{
  "AcquisitionMatrixPE": 82,
  "AcquisitionNumber": 1,
  "AcquisitionTime": "13:23:24.562500",
  "BandwidthPerPixelPhaseEncode": 24.888,
  "BaseResolution": 82,
  "BodyPartExamined": "BRAIN",
  "ConsistencyInfo": "N4_VE11E_LATEST_20181129",
  "ConversionSoftware": "dcm2niix",
  "ConversionSoftwareVersion": "v1.0.20201102",
  "DerivedVendorReportedEchoSpacing": 0.00049,
  "DeviceSerialNumber": "66112",
  "DwellTime": 2e-06,
  "EchoTime": 0.0272,
  "EchoTrainLength": 82,
  "EffectiveEchoSpacing": 0.00049,
  "FlipAngle": 44,
  "ImageComments": "Unaliased MB8/PE3",
  "ImageOrientationPatientDICOM": [0.997015, 0.074352, -0.0207856, -0.0732162, 0.996016, 0.0509041],
  "ImageType": [
    "ORIGINAL",
    "PRIMARY",
    "M",
    "MB",
    "ND",
    "NORM",
    "MOSAIC"
],
  "ImagingFrequency": 123.259,
  "InPlanePhaseEncodingDirectionDICOM": "COL",
  "InstitutionAddress": "Maynard 3,Hanover,NH,US,03755",
  "InstitutionName": "Dartmouth College - PBS",
  "InstitutionalDepartmentName": "Department",
  "MRAcquisitionType": "2D",
  "MagneticFieldStrength": 3,
  "Manufacturer": "Siemens",
  "ManufacturersModelName": "Prisma",
  "Modality": "MR",
  "MultibandAccelerationFactor": 8,
  "PartialFourier": 1,
  "PatientPosition": "HFS",
  "PercentPhaseFOV": 100,
  "PercentSampling": 100,
  "PhaseEncodingDirection": "j-",
  "PhaseEncodingSteps": 82,
  "PhaseResolution": 1,
  "PixelBandwidth": 3050,
  "ProcedureStepDescription": "Wager_Wager^1076_spacetop",
  "ProtocolName": "func_run-01_task-narratives_acq-ap-mb8",
  "PulseSequenceDetails": "%CustomerSeq%\\cmrr_mbep2d_bold",
  "ReceiveCoilActiveElements": "HEA;HEP",
  "ReceiveCoilName": "Head_32",
  "ReconMatrixPE": 82,
  "RepetitionTime": 0.46,
  "SAR": 0.0821035,
  "ScanOptions": "FS",
  "ScanningSequence": "EP",
  "SequenceName": "epfid2d1_82",
  "SequenceVariant": "SK\\SS",
  "SeriesDescription": "func_run-01_task-narratives_acq-ap-mb8",
  "SeriesNumber": 8,
  "ShimSetting": [4234, -7721, -7197, 309, -49, 174, 144, 63],
  "SliceThickness": 2.7,
  "SliceTiming": [0, 0.25, 0.0625, 0.315, 0.125, 0.3775, 0.1875, 0, 0.25, 0.0625, 0.315, 0.125, 0.3775, 0.1875, 0, 0.25, 0.0625, 0.315, 0.125, 0.3775, 0.1875, 0, 0.25, 0.0625, 0.315, 0.125, 0.3775, 0.1875, 0, 0.25, 0.0625, 0.315, 0.125, 0.3775, 0.1875, 0, 0.25, 0.0625, 0.315, 0.125, 0.3775, 0.1875, 0, 0.25, 0.0625, 0.315, 0.125, 0.3775, 0.1875, 0, 0.25, 0.0625, 0.315, 0.125, 0.3775, 0.1875],
  "SoftwareVersions": "syngo MR E11",
  "SpacingBetweenSlices": 2.7,
  "StationName": "AWP66112",
  "TaskName": "narratives",
  "TotalReadoutTime": 0.03969,
  "TxRefAmp": 222.337,
  "WipMemBlock": "370ade28-373f-4ae0-a1a5-2801ad4c915b||Sequence: R016 ve11e/master r/434b28f1; Aug  7 2019 18:53:46 by eja",
  "dcmmeta_affine": [
    [-2.674919366836548, -0.19643373787403107, -0.06611664593219757, 122.91509246826172],
    [-0.19948090612888336, 2.67223858833313, 0.13292181491851807, -97.3626937866211],
    [-0.05576633661985397, -0.13657191395759583, 2.695915460586548, -38.50493621826172],
    [0.0, 0.0, 0.0, 1.0]
],
  "dcmmeta_reorient_transform": [
    [0.0, -1.0, 0.0, 81.0],
    [1.0, 0.0, 0.0, 0.0],
    [0.0, 0.0, 1.0, 0.0],
    [0.0, 0.0, 0.0, 1.0]
],
  "dcmmeta_shape": [82, 82, 56, 967],
  "dcmmeta_slice_dim": 2,
  "dcmmeta_version": 0.6,
  "global": {
    "const": {
      "AccessionNumber": "A004481",
      "AcquisitionMatrix": [82, 0, 0, 82],
      "AngioFlag": "N",
      "BitsAllocated": 16,
      "BitsStored": 16,
      "BodyPartExamined": "BRAIN",
      "Columns": 656,
      "EchoNumbers": 1,
      "EchoTime": 27.2,
      "EchoTrainLength": 82,
      "FlipAngle": 44.0,
      "HighBit": 15,
      "ImageOrientationPatient": [0.99701541706162, 0.07435197079609, -0.0207856339856, -0.0732162097315, 0.99601614534483, 0.050904074935],
      "ImagePositionPatient": [-818.32936585799, -943.27209095346, -72.758462981324],
      "ImageType": [
        "ORIGINAL",
        "PRIMARY",
        "M",
        "MB",
        "ND",
        "NORM",
        "MOSAIC"
],
      "ImagedNucleus": "1H",
      "ImagingFrequency": 123.259047,
      "InPlanePhaseEncodingDirection": "COL",
      "MRAcquisitionType": "2D",
      "MagneticFieldStrength": 3.0,
      "Manufacturer": "SIEMENS",
      "ManufacturerModelName": "Prisma",
      "Modality": "MR",
      "NumberOfAverages": 1.0,
      "NumberOfPhaseEncodingSteps": 82,
      "PercentPhaseFieldOfView": 100.0,
      "PercentSampling": 100.0,
      "PerformedProcedureStepStartTime": "131005.993000",
      "PhotometricInterpretation": "MONOCHROME2",
      "PixelBandwidth": 3050.0,
      "PixelRepresentation": 0,
      "PixelSpacing": [2.6829268932343, 2.6829268932343],
      "ProtocolName": "func_run-01_task-narratives_acq-ap-mb8",
      "RepetitionTime": 460.0,
      "Rows": 656,
      "SAR": 0.0821035247602,
      "SamplesPerPixel": 1,
      "ScanOptions": "FS",
      "ScanningSequence": "EP",
      "SequenceName": "epfid2d1_82",
      "SequenceVariant": [
        "SK",
        "SS"
],
      "SeriesDescription": "func_run-01_task-narratives_acq-ap-mb8",
      "SeriesNumber": 8,
      "SeriesTime": "132338.915000",
      "SliceLocation": -46.249784798809,
      "SliceThickness": 2.7000000476837,
      "SmallestImagePixelValue": 0,
      "SoftwareVersions": "syngo MR E11",
      "SpacingBetweenSlices": 2.699999999797,
      "SpecificCharacterSet": "ISO_IR 100",
      "StudyID": "2",
      "StudyTime": "131005.784000",
      "TransmitCoilName": "Body",
      "VariableFlipAngleFlag": "N",
      "WindowCenterWidthExplanation": "Algo1"
    },
    "slices": {}
  },
  "time": {
    "samples": {
      "AcquisitionNumber": [1, 2, 3, 4, 5, 6, 7, 8, 9, 10, 11, 12, 13, 14, 15, 16, 17, 18, 19, 20, 21, 22, 23, 24, 25, 26, 27, 28, 29, 30, 31, 32, 33, 34, 35, 36, 37, 38, 39, 40, 41, 42, 43, 44, 45, 46, 47, 48, 49, 50, 51, 52, 53, 54, 55, 56, 57, 58, 59, 60, 61, 62, 63, 64, 65, 66, 67, 68, 69, 70, 71, 72, 73, 74, 75, 76, 77, 78, 79, 80, 81, 82, 83, 84, 85, 86, 87, 88, 89, 90, 91, 92, 93, 94, 95, 96, 97, 98, 99, 100, 101, 102, 103, 104, 105, 106, 107, 108, 109, 110, 111, 112, 113, 114, 115, 116, 117, 118, 119, 120, 121, 122, 123, 124, 125, 126, 127, 128, 129, 130, 131, 132, 133, 134, 135, 136, 137, 138, 139, 140, 141, 142, 143, 144, 145, 146, 147, 148, 149, 150, 151, 152, 153, 154, 155, 156, 157, 158, 159, 160, 161, 162, 163, 164, 165, 166, 167, 168, 169, 170, 171, 172, 173, 174, 175, 176, 177, 178, 179, 180, 181, 182, 183, 184, 185, 186, 187, 188, 189, 190, 191, 192, 193, 194, 195, 196, 197, 198, 199, 200, 201, 202, 203, 204, 205, 206, 207, 208, 209, 210, 211, 212, 213, 214, 215, 216, 217, 218, 219, 220, 221, 222, 223, 224, 225, 226, 227, 228, 229, 230, 231, 232, 233, 234, 235, 236, 237, 238, 239, 240, 241, 242, 243, 244, 245, 246, 247, 248, 249, 250, 251, 252, 253, 254, 255, 256, 257, 258, 259, 260, 261, 262, 263, 264, 265, 266, 267, 268, 269, 270, 271, 272, 273, 274, 275, 276, 277, 278, 279, 280, 281, 282, 283, 284, 285, 286, 287, 288, 289, 290, 291, 292, 293, 294, 295, 296, 297, 298, 299, 300, 301, 302, 303, 304, 305, 306, 307, 308, 309, 310, 311, 312, 313, 314, 315, 316, 317, 318, 319, 320, 321, 322, 323, 324, 325, 326, 327, 328, 329, 330, 331, 332, 333, 334, 335, 336, 337, 338, 339, 340, 341, 342, 343, 344, 345, 346, 347, 348, 349, 350, 351, 352, 353, 354, 355, 356, 357, 358, 359, 360, 361, 362, 363, 364, 365, 366, 367, 368, 369, 370, 371, 372, 373, 374, 375, 376, 377, 378, 379, 380, 381, 382, 383, 384, 385, 386, 387, 388, 389, 390, 391, 392, 393, 394, 395, 396, 397, 398, 399, 400, 401, 402, 403, 404, 405, 406, 407, 408, 409, 410, 411, 412, 413, 414, 415, 416, 417, 418, 419, 420, 421, 422, 423, 424, 425, 426, 427, 428, 429, 430, 431, 432, 433, 434, 435, 436, 437, 438, 439, 440, 441, 442, 443, 444, 445, 446, 447, 448, 449, 450, 451, 452, 453, 454, 455, 456, 457, 458, 459, 460, 461, 462, 463, 464, 465, 466, 467, 468, 469, 470, 471, 472, 473, 474, 475, 476, 477, 478, 479, 480, 481, 482, 483, 484, 485, 486, 487, 488, 489, 490, 491, 492, 493, 494, 495, 496, 497, 498, 499, 500, 501, 502, 503, 504, 505, 506, 507, 508, 509, 510, 511, 512, 513, 514, 515, 516, 517, 518, 519, 520, 521, 522, 523, 524, 525, 526, 527, 528, 529, 530, 531, 532, 533, 534, 535, 536, 537, 538, 539, 540, 541, 542, 543, 544, 545, 546, 547, 548, 549, 550, 551, 552, 553, 554, 555, 556, 557, 558, 559, 560, 561, 562, 563, 564, 565, 566, 567, 568, 569, 570, 571, 572, 573, 574, 575, 576, 577, 578, 579, 580, 581, 582, 583, 584, 585, 586, 587, 588, 589, 590, 591, 592, 593, 594, 595, 596, 597, 598, 599, 600, 601, 602, 603, 604, 605, 606, 607, 608, 609, 610, 611, 612, 613, 614, 615, 616, 617, 618, 619, 620, 621, 622, 623, 624, 625, 626, 627, 628, 629, 630, 631, 632, 633, 634, 635, 636, 637, 638, 639, 640, 641, 642, 643, 644, 645, 646, 647, 648, 649, 650, 651, 652, 653, 654, 655, 656, 657, 658, 659, 660, 661, 662, 663, 664, 665, 666, 667, 668, 669, 670, 671, 672, 673, 674, 675, 676, 677, 678, 679, 680, 681, 682, 683, 684, 685, 686, 687, 688, 689, 690, 691, 692, 693, 694, 695, 696, 697, 698, 699, 700, 701, 702, 703, 704, 705, 706, 707, 708, 709, 710, 711, 712, 713, 714, 715, 716, 717, 718, 719, 720, 721, 722, 723, 724, 725, 726, 727, 728, 729, 730, 731, 732, 733, 734, 735, 736, 737, 738, 739, 740, 741, 742, 743, 744, 745, 746, 747, 748, 749, 750, 751, 752, 753, 754, 755, 756, 757, 758, 759, 760, 761, 762, 763, 764, 765, 766, 767, 768, 769, 770, 771, 772, 773, 774, 775, 776, 777, 778, 779, 780, 781, 782, 783, 784, 785, 786, 787, 788, 789, 790, 791, 792, 793, 794, 795, 796, 797, 798, 799, 800, 801, 802, 803, 804, 805, 806, 807, 808, 809, 810, 811, 812, 813, 814, 815, 816, 817, 818, 819, 820, 821, 822, 823, 824, 825, 826, 827, 828, 829, 830, 831, 832, 833, 834, 835, 836, 837, 838, 839, 840, 841, 842, 843, 844, 845, 846, 847, 848, 849, 850, 851, 852, 853, 854, 855, 856, 857, 858, 859, 860, 861, 862, 863, 864, 865, 866, 867, 868, 869, 870, 871, 872, 873, 874, 875, 876, 877, 878, 879, 880, 881, 882, 883, 884, 885, 886, 887, 888, 889, 890, 891, 892, 893, 894, 895, 896, 897, 898, 899, 900, 901, 902, 903, 904, 905, 906, 907, 908, 909, 910, 911, 912, 913, 914, 915, 916, 917, 918, 919, 920, 921, 922, 923, 924, 925, 926, 927, 928, 929, 930, 931, 932, 933, 934, 935, 936, 937, 938, 939, 940, 941, 942, 943, 944, 945, 946, 947, 948, 949, 950, 951, 952, 953, 954, 955, 956, 957, 958, 959, 960, 961, 962, 963, 964, 965, 966, 967],
      "AcquisitionTime": ["132324.562500", "132325.022500", "132325.482500", "132325.942500", "132326.402500", "132326.862500", "132327.322500", "132327.782500", "132328.242500", "132328.702500", "132329.162500", "132329.622500", "132330.082500", "132330.542500", "132331.002500", "132331.462500", "132331.922500", "132332.382500", "132332.842500", "132333.302500", "132333.762500", "132334.222500", "132334.682500", "132335.142500", "132335.602500", "132336.062500", "132336.522500", "132336.982500", "132337.442500", "132337.902500", "132338.362500", "132338.822500", "132339.282500", "132339.742500", "132340.202500", "132340.662500", "132341.122500", "132341.582500", "132342.042500", "132342.502500", "132342.962500", "132343.422500", "132343.882500", "132344.342500", "132344.802500", "132345.262500", "132345.722500", "132346.182500", "132346.642500", "132347.102500", "132347.562500", "132348.022500", "132348.482500", "132348.942500", "132349.402500", "132349.862500", "132350.322500", "132350.782500", "132351.242500", "132351.702500", "132352.162500", "132352.622500", "132353.082500", "132353.542500", "132354.002500", "132354.462500", "132354.922500", "132355.382500", "132355.842500", "132356.302500", "132356.762500", "132357.222500", "132357.682500", "132358.142500", "132358.602500", "132359.062500", "132359.522500", "132359.982500", "132400.442500", "132400.902500", "132401.362500", "132401.822500", "132402.282500", "132402.742500", "132403.202500", "132403.662500", "132404.122500", "132404.582500", "132405.042500", "132405.502500", "132405.962500", "132406.422500", "132406.882500", "132407.342500", "132407.802500", "132408.262500", "132408.722500", "132409.182500", "132409.642500", "132410.102500", "132410.562500", "132411.022500", "132411.482500", "132411.942500", "132412.402500", "132412.862500", "132413.322500", "132413.782500", "132414.242500", "132414.702500", "132415.162500", "132415.622500", "132416.082500", "132416.542500", "132417.002500", "132417.462500", "132417.922500", "132418.382500", "132418.842500", "132419.302500", "132419.762500", "132420.222500", "132420.682500", "132421.142500", "132421.602500", "132422.062500", "132422.522500", "132422.982500", "132423.442500", "132423.902500", "132424.362500", "132424.822500", "132425.282500", "132425.742500", "132426.202500", "132426.662500", "132427.122500", "132427.582500", "132428.042500", "132428.502500", "132428.962500", "132429.422500", "132429.882500", "132430.342500", "132430.802500", "132431.262500", "132431.722500", "132432.182500", "132432.642500", "132433.102500", "132433.562500", "132434.022500", "132434.482500", "132434.942500", "132435.402500", "132435.862500", "132436.322500", "132436.782500", "132437.242500", "132437.702500", "132438.162500", "132438.622500", "132439.082500", "132439.542500", "132440.002500", "132440.462500", "132440.922500", "132441.382500", "132441.842500", "132442.302500", "132442.762500", "132443.222500", "132443.682500", "132444.142500", "132444.602500", "132445.062500", "132445.522500", "132445.982500", "132446.442500", "132446.902500", "132447.362500", "132447.822500", "132448.282500", "132448.742500", "132449.202500", "132449.662500", "132450.122500", "132450.582500", "132451.042500", "132451.502500", "132451.962500", "132452.422500", "132452.882500", "132453.342500", "132453.802500", "132454.262500", "132454.722500", "132455.182500", "132455.642500", "132456.102500", "132456.562500", "132457.022500", "132457.482500", "132457.942500", "132458.402500", "132458.862500", "132459.322500", "132459.782500", "132500.242500", "132500.702500", "132501.162500", "132501.622500", "132502.082500", "132502.542500", "132503.002500", "132503.462500", "132503.922500", "132504.382500", "132504.842500", "132505.302500", "132505.762500", "132506.222500", "132506.682500", "132507.142500", "132507.602500", "132508.062500", "132508.522500", "132508.982500", "132509.442500", "132509.902500", "132510.362500", "132510.822500", "132511.282500", "132511.742500", "132512.202500", "132512.662500", "132513.122500", "132513.582500", "132514.042500", "132514.502500", "132514.962500", "132515.422500", "132515.882500", "132516.342500", "132516.802500", "132517.262500", "132517.722500", "132518.182500", "132518.642500", "132519.102500", "132519.562500", "132520.022500", "132520.482500", "132520.942500", "132521.402500", "132521.862500", "132522.322500", "132522.782500", "132523.242500", "132523.702500", "132524.162500", "132524.622500", "132525.082500", "132525.542500", "132526.002500", "132526.462500", "132526.922500", "132527.382500", "132527.842500", "132528.302500", "132528.762500", "132529.222500", "132529.682500", "132530.142500", "132530.602500", "132531.062500", "132531.522500", "132531.982500", "132532.442500", "132532.902500", "132533.362500", "132533.822500", "132534.282500", "132534.742500", "132535.202500", "132535.662500", "132536.122500", "132536.582500", "132537.042500", "132537.502500", "132537.962500", "132538.422500", "132538.882500", "132539.342500", "132539.802500", "132540.262500", "132540.722500", "132541.182500", "132541.642500", "132542.102500", "132542.562500", "132543.022500", "132543.482500", "132543.942500", "132544.402500", "132544.862500", "132545.322500", "132545.782500", "132546.242500", "132546.702500", "132547.162500", "132547.622500", "132548.082500", "132548.542500", "132549.002500", "132549.462500", "132549.922500", "132550.382500", "132550.842500", "132551.302500", "132551.762500", "132552.222500", "132552.682500", "132553.142500", "132553.602500", "132554.062500", "132554.522500", "132554.982500", "132555.442500", "132555.902500", "132556.362500", "132556.822500", "132557.282500", "132557.742500", "132558.202500", "132558.662500", "132559.122500", "132559.582500", "132600.042500", "132600.502500", "132600.962500", "132601.422500", "132601.882500", "132602.342500", "132602.802500", "132603.262500", "132603.722500", "132604.182500", "132604.642500", "132605.102500", "132605.562500", "132606.022500", "132606.482500", "132606.942500", "132607.402500", "132607.862500", "132608.322500", "132608.782500", "132609.242500", "132609.702500", "132610.162500", "132610.622500", "132611.082500", "132611.542500", "132612.002500", "132612.462500", "132612.922500", "132613.382500", "132613.842500", "132614.302500", "132614.762500", "132615.222500", "132615.682500", "132616.142500", "132616.602500", "132617.062500", "132617.522500", "132617.982500", "132618.442500", "132618.902500", "132619.362500", "132619.822500", "132620.282500", "132620.742500", "132621.202500", "132621.662500", "132622.122500", "132622.582500", "132623.042500", "132623.502500", "132623.962500", "132624.422500", "132624.882500", "132625.342500", "132625.802500", "132626.262500", "132626.722500", "132627.182500", "132627.642500", "132628.102500", "132628.562500", "132629.022500", "132629.482500", "132629.942500", "132630.402500", "132630.862500", "132631.322500", "132631.782500", "132632.242500", "132632.702500", "132633.162500", "132633.622500", "132634.082500", "132634.542500", "132635.002500", "132635.462500", "132635.922500", "132636.382500", "132636.842500", "132637.302500", "132637.762500", "132638.222500", "132638.682500", "132639.142500", "132639.602500", "132640.062500", "132640.522500", "132640.982500", "132641.442500", "132641.902500", "132642.362500", "132642.822500", "132643.282500", "132643.742500", "132644.202500", "132644.662500", "132645.122500", "132645.582500", "132646.042500", "132646.502500", "132646.962500", "132647.422500", "132647.882500", "132648.342500", "132648.802500", "132649.262500", "132649.722500", "132650.182500", "132650.642500", "132651.102500", "132651.562500", "132652.022500", "132652.482500", "132652.942500", "132653.402500", "132653.862500", "132654.322500", "132654.782500", "132655.242500", "132655.702500", "132656.162500", "132656.622500", "132657.082500", "132657.542500", "132658.002500", "132658.462500", "132658.922500", "132659.382500", "132659.842500", "132700.302500", "132700.762500", "132701.222500", "132701.682500", "132702.142500", "132702.602500", "132703.062500", "132703.522500", "132703.982500", "132704.442500", "132704.902500", "132705.362500", "132705.822500", "132706.282500", "132706.742500", "132707.202500", "132707.662500", "132708.122500", "132708.582500", "132709.042500", "132709.502500", "132709.962500", "132710.422500", "132710.882500", "132711.342500", "132711.802500", "132712.262500", "132712.722500", "132713.182500", "132713.642500", "132714.102500", "132714.562500", "132715.022500", "132715.482500", "132715.942500", "132716.402500", "132716.862500", "132717.322500", "132717.782500", "132718.242500", "132718.702500", "132719.162500", "132719.622500", "132720.082500", "132720.542500", "132721.002500", "132721.462500", "132721.922500", "132722.382500", "132722.842500", "132723.302500", "132723.762500", "132724.222500", "132724.682500", "132725.142500", "132725.602500", "132726.062500", "132726.522500", "132726.982500", "132727.442500", "132727.902500", "132728.362500", "132728.822500", "132729.282500", "132729.742500", "132730.202500", "132730.662500", "132731.122500", "132731.582500", "132732.042500", "132732.502500", "132732.962500", "132733.422500", "132733.882500", "132734.342500", "132734.802500", "132735.262500", "132735.722500", "132736.182500", "132736.642500", "132737.102500", "132737.562500", "132738.022500", "132738.482500", "132738.942500", "132739.402500", "132739.862500", "132740.322500", "132740.782500", "132741.242500", "132741.702500", "132742.162500", "132742.622500", "132743.082500", "132743.542500", "132744.002500", "132744.462500", "132744.922500", "132745.382500", "132745.842500", "132746.302500", "132746.762500", "132747.222500", "132747.682500", "132748.142500", "132748.602500", "132749.062500", "132749.522500", "132749.982500", "132750.442500", "132750.902500", "132751.362500", "132751.822500", "132752.282500", "132752.742500", "132753.202500", "132753.662500", "132754.122500", "132754.582500", "132755.042500", "132755.502500", "132755.962500", "132756.422500", "132756.882500", "132757.342500", "132757.802500", "132758.262500", "132758.722500", "132759.182500", "132759.642500", "132800.102500", "132800.562500", "132801.022500", "132801.482500", "132801.942500", "132802.402500", "132802.862500", "132803.322500", "132803.782500", "132804.242500", "132804.702500", "132805.162500", "132805.622500", "132806.082500", "132806.542500", "132807.002500", "132807.462500", "132807.922500", "132808.382500", "132808.842500", "132809.302500", "132809.762500", "132810.222500", "132810.682500", "132811.142500", "132811.602500", "132812.062500", "132812.522500", "132812.982500", "132813.442500", "132813.902500", "132814.362500", "132814.822500", "132815.282500", "132815.742500", "132816.202500", "132816.662500", "132817.122500", "132817.582500", "132818.042500", "132818.502500", "132818.962500", "132819.422500", "132819.882500", "132820.342500", "132820.802500", "132821.262500", "132821.722500", "132822.182500", "132822.642500", "132823.102500", "132823.562500", "132824.022500", "132824.482500", "132824.942500", "132825.402500", "132825.862500", "132826.322500", "132826.782500", "132827.242500", "132827.702500", "132828.162500", "132828.622500", "132829.082500", "132829.542500", "132830.002500", "132830.462500", "132830.922500", "132831.382500", "132831.842500", "132832.302500", "132832.762500", "132833.222500", "132833.682500", "132834.142500", "132834.602500", "132835.062500", "132835.522500", "132835.982500", "132836.442500", "132836.902500", "132837.362500", "132837.822500", "132838.282500", "132838.742500", "132839.202500", "132839.662500", "132840.122500", "132840.582500", "132841.042500", "132841.502500", "132841.962500", "132842.422500", "132842.882500", "132843.342500", "132843.802500", "132844.262500", "132844.722500", "132845.182500", "132845.642500", "132846.102500", "132846.562500", "132847.022500", "132847.482500", "132847.942500", "132848.402500", "132848.862500", "132849.322500", "132849.782500", "132850.242500", "132850.702500", "132851.162500", "132851.622500", "132852.082500", "132852.542500", "132853.002500", "132853.462500", "132853.922500", "132854.382500", "132854.842500", "132855.302500", "132855.762500", "132856.222500", "132856.682500", "132857.142500", "132857.602500", "132858.062500", "132858.522500", "132858.982500", "132859.442500", "132859.902500", "132900.362500", "132900.822500", "132901.282500", "132901.742500", "132902.202500", "132902.662500", "132903.122500", "132903.582500", "132904.042500", "132904.502500", "132904.962500", "132905.422500", "132905.882500", "132906.342500", "132906.802500", "132907.262500", "132907.722500", "132908.182500", "132908.642500", "132909.102500", "132909.562500", "132910.022500", "132910.482500", "132910.942500", "132911.402500", "132911.862500", "132912.322500", "132912.782500", "132913.242500", "132913.702500", "132914.162500", "132914.622500", "132915.082500", "132915.542500", "132916.002500", "132916.462500", "132916.922500", "132917.382500", "132917.842500", "132918.302500", "132918.762500", "132919.222500", "132919.682500", "132920.142500", "132920.602500", "132921.062500", "132921.522500", "132921.982500", "132922.442500", "132922.902500", "132923.362500", "132923.822500", "132924.282500", "132924.742500", "132925.202500", "132925.662500", "132926.122500", "132926.582500", "132927.042500", "132927.502500", "132927.962500", "132928.422500", "132928.882500", "132929.342500", "132929.802500", "132930.262500", "132930.722500", "132931.182500", "132931.642500", "132932.102500", "132932.562500", "132933.022500", "132933.482500", "132933.942500", "132934.402500", "132934.862500", "132935.322500", "132935.782500", "132936.242500", "132936.702500", "132937.162500", "132937.622500", "132938.082500", "132938.542500", "132939.002500", "132939.462500", "132939.922500", "132940.382500", "132940.842500", "132941.302500", "132941.762500", "132942.222500", "132942.682500", "132943.142500", "132943.602500", "132944.062500", "132944.522500", "132944.982500", "132945.442500", "132945.902500", "132946.362500", "132946.822500", "132947.282500", "132947.742500", "132948.202500", "132948.662500", "132949.122500", "132949.582500", "132950.042500", "132950.502500", "132950.962500", "132951.422500", "132951.882500", "132952.342500", "132952.802500", "132953.262500", "132953.722500", "132954.182500", "132954.642500", "132955.102500", "132955.562500", "132956.022500", "132956.482500", "132956.942500", "132957.402500", "132957.862500", "132958.322500", "132958.782500", "132959.242500", "132959.702500", "133000.162500", "133000.622500", "133001.082500", "133001.542500", "133002.002500", "133002.462500", "133002.922500", "133003.382500", "133003.842500", "133004.302500", "133004.762500", "133005.222500", "133005.682500", "133006.142500", "133006.602500", "133007.062500", "133007.522500", "133007.982500", "133008.442500", "133008.902500", "133009.362500", "133009.822500", "133010.282500", "133010.742500", "133011.202500", "133011.662500", "133012.122500", "133012.582500", "133013.042500", "133013.502500", "133013.962500", "133014.422500", "133014.882500", "133015.342500", "133015.802500", "133016.262500", "133016.722500", "133017.182500", "133017.642500", "133018.102500", "133018.562500", "133019.022500", "133019.482500", "133019.942500", "133020.402500", "133020.862500", "133021.322500", "133021.782500", "133022.242500", "133022.702500", "133023.162500", "133023.622500", "133024.082500", "133024.542500", "133025.002500", "133025.462500", "133025.922500", "133026.382500", "133026.842500", "133027.302500", "133027.762500", "133028.222500", "133028.682500", "133029.142500", "133029.602500", "133030.062500", "133030.522500", "133030.982500", "133031.442500", "133031.902500", "133032.362500", "133032.822500", "133033.282500", "133033.742500", "133034.202500", "133034.662500", "133035.122500", "133035.582500", "133036.042500", "133036.502500", "133036.962500", "133037.422500", "133037.882500", "133038.342500", "133038.802500", "133039.262500", "133039.722500", "133040.182500", "133040.642500", "133041.102500", "133041.562500", "133042.022500", "133042.482500", "133042.942500", "133043.402500", "133043.862500", "133044.322500", "133044.782500", "133045.242500", "133045.702500", "133046.162500", "133046.622500", "133047.082500", "133047.542500", "133048.002500", "133048.462500", "133048.922500"],
