{
  "AcquisitionMatrixPE": 82,
  "AcquisitionNumber": 1,
  "AcquisitionTime": "11:01:44.510000",
  "BandwidthPerPixelPhaseEncode": 24.888,
  "BaseResolution": 82,
  "BodyPartExamined": "BRAIN",
  "ConsistencyInfo": "N4_VE11E_LATEST_20181129",
  "ConversionSoftware": "dcm2niix",
  "ConversionSoftwareVersion": "v1.0.20201102",
  "DerivedVendorReportedEchoSpacing": 0.00049,
  "DeviceSerialNumber": "66112",
  "DwellTime": 2e-06,
  "EchoTime": 0.0272,
  "EchoTrainLength": 82,
  "EffectiveEchoSpacing": 0.00049,
  "FlipAngle": 44,
  "ImageComments": "Unaliased MB8/PE3",
  "ImageOrientationPatientDICOM": [0.989829, -0.0344856, 0.138019, 0.0286858, 0.998629, 0.0437932],
  "ImageType": [
    "ORIGINAL",
    "PRIMARY",
    "M",
    "MB",
    "ND",
    "NORM",
    "MOSAIC"
],
  "ImagingFrequency": 123.252,
  "InPlanePhaseEncodingDirectionDICOM": "COL",
  "InstitutionAddress": "Maynard 3,Hanover,NH,US,03755",
  "InstitutionName": "Dartmouth College - PBS",
  "InstitutionalDepartmentName": "Department",
  "MRAcquisitionType": "2D",
  "MagneticFieldStrength": 3,
  "Manufacturer": "Siemens",
  "ManufacturersModelName": "Prisma",
  "Modality": "MR",
  "MultibandAccelerationFactor": 8,
  "PartialFourier": 1,
  "PatientPosition": "HFS",
  "PercentPhaseFOV": 100,
  "PercentSampling": 100,
  "PhaseEncodingDirection": "j-",
  "PhaseEncodingSteps": 82,
  "PhaseResolution": 1,
  "PixelBandwidth": 3050,
  "ProcedureStepDescription": "Wager_Wager^1076_spacetop",
  "ProtocolName": "func_run-03_task-social_acq-ap-mb8",
  "PulseSequenceDetails": "%CustomerSeq%\\cmrr_mbep2d_bold",
  "ReceiveCoilActiveElements": "HEA;HEP",
  "ReceiveCoilName": "Head_32",
  "ReconMatrixPE": 82,
  "RepetitionTime": 0.46,
  "SAR": 0.0893289,
  "ScanOptions": "FS",
  "ScanningSequence": "EP",
  "SequenceName": "epfid2d1_82",
  "SequenceVariant": "SK\\SS",
  "SeriesDescription": "func_run-03_task-social_acq-ap-mb8",
  "SeriesNumber": 16,
  "ShimSetting": [4193, -7762, -7262, 593, -37, -285, 59, 17],
  "SliceThickness": 2.7,
  "SliceTiming": [0, 0.2525, 0.0625, 0.315, 0.1275, 0.3775, 0.19, 0, 0.2525, 0.0625, 0.315, 0.1275, 0.3775, 0.19, 0, 0.2525, 0.0625, 0.315, 0.1275, 0.3775, 0.19, 0, 0.2525, 0.0625, 0.315, 0.1275, 0.3775, 0.19, 0, 0.2525, 0.0625, 0.315, 0.1275, 0.3775, 0.19, 0, 0.2525, 0.0625, 0.315, 0.1275, 0.3775, 0.19, 0, 0.2525, 0.0625, 0.315, 0.1275, 0.3775, 0.19, 0, 0.2525, 0.0625, 0.315, 0.1275, 0.3775, 0.19],
  "SoftwareVersions": "syngo MR E11",
  "SpacingBetweenSlices": 2.7,
  "StationName": "AWP66112",
  "TaskName": "social",
  "TotalReadoutTime": 0.03969,
  "TxRefAmp": 249.225,
  "WipMemBlock": "3154cd52-5675-42dd-8d57-7ad048c41e55||Sequence: R016 ve11e/master r/434b28f1; Aug  7 2019 18:53:46 by eja",
  "dcmmeta_affine": [
    [-2.6556389331817627, 0.07696196436882019, 0.3762173652648926, 104.00782012939453],
    [0.09252243489027023, 2.6792478561401367, 0.10634917765855789, -94.47172546386719],
    [0.37029433250427246, -0.11749391257762909, 2.6715445518493652, -76.29450988769531],
    [0.0, 0.0, 0.0, 1.0]
],
  "dcmmeta_reorient_transform": [
    [0.0, -1.0, 0.0, 81.0],
    [1.0, 0.0, 0.0, 0.0],
    [0.0, 0.0, 1.0, 0.0],
    [0.0, 0.0, 0.0, 1.0]
],
  "dcmmeta_shape": [82, 82, 56, 872],
  "dcmmeta_slice_dim": 2,
  "dcmmeta_version": 0.6,
  "global": {
    "const": {
      "AccessionNumber": "A004036",
      "AcquisitionMatrix": [82, 0, 0, 82],
      "AngioFlag": "N",
      "BitsAllocated": 16,
      "BitsStored": 16,
      "BodyPartExamined": "BRAIN",
      "Columns": 656,
      "EchoNumbers": 1,
      "EchoTime": 27.2,
      "EchoTrainLength": 82,
      "FlipAngle": 44.0,
      "HighBit": 15,
      "ImageOrientationPatient": [0.989829052446, -0.034485632927, 0.13801879602241, 0.02868582200899, 0.99862870002003, 0.04379318567963],
      "ImagePositionPatient": [-894.49821333338, -864.93752312169, -225.80674253658],
      "ImageType": [
        "ORIGINAL",
        "PRIMARY",
        "M",
        "MB",
        "ND",
        "NORM",
        "MOSAIC"
],
      "ImagedNucleus": "1H",
      "ImagingFrequency": 123.252175,
      "InPlanePhaseEncodingDirection": "COL",
      "MRAcquisitionType": "2D",
      "MagneticFieldStrength": 3.0,
      "Manufacturer": "SIEMENS",
      "ManufacturerModelName": "Prisma",
      "Modality": "MR",
      "NumberOfAverages": 1.0,
      "NumberOfPhaseEncodingSteps": 82,
      "PercentPhaseFieldOfView": 100.0,
      "PercentSampling": 100.0,
      "PerformedProcedureStepStartTime": "100627.909000",
      "PhotometricInterpretation": "MONOCHROME2",
      "PixelBandwidth": 3050.0,
      "PixelRepresentation": 0,
      "PixelSpacing": [2.6829268932343, 2.6829268932343],
      "ProtocolName": "func_run-03_task-social_acq-ap-mb8",
      "RepetitionTime": 460.0,
      "Rows": 656,
      "SAR": 0.0893288910136,
      "SamplesPerPixel": 1,
      "ScanOptions": "FS",
      "ScanningSequence": "EP",
      "SequenceName": "epfid2d1_82",
      "SequenceVariant": [
        "SK",
        "SS"
],
      "SeriesDescription": "func_run-03_task-social_acq-ap-mb8",
      "SeriesNumber": 16,
      "SeriesTime": "110156.508000",
      "SliceLocation": -64.719116389768,
      "SliceThickness": 2.7000000476837,
      "SmallestImagePixelValue": 0,
      "SoftwareVersions": "syngo MR E11",
      "SpacingBetweenSlices": 2.7000000183332,
      "SpecificCharacterSet": "ISO_IR 100",
      "StudyID": "1",
      "StudyTime": "100627.679000",
      "TransmitCoilName": "Body",
      "VariableFlipAngleFlag": "N",
      "WindowCenterWidthExplanation": "Algo1"
    },
    "slices": {}
  },
  "time": {
    "samples": {
      "AcquisitionNumber": [1, 2, 3, 4, 5, 6, 7, 8, 9, 10, 11, 12, 13, 14, 15, 16, 17, 18, 19, 20, 21, 22, 23, 24, 25, 26, 27, 28, 29, 30, 31, 32, 33, 34, 35, 36, 37, 38, 39, 40, 41, 42, 43, 44, 45, 46, 47, 48, 49, 50, 51, 52, 53, 54, 55, 56, 57, 58, 59, 60, 61, 62, 63, 64, 65, 66, 67, 68, 69, 70, 71, 72, 73, 74, 75, 76, 77, 78, 79, 80, 81, 82, 83, 84, 85, 86, 87, 88, 89, 90, 91, 92, 93, 94, 95, 96, 97, 98, 99, 100, 101, 102, 103, 104, 105, 106, 107, 108, 109, 110, 111, 112, 113, 114, 115, 116, 117, 118, 119, 120, 121, 122, 123, 124, 125, 126, 127, 128, 129, 130, 131, 132, 133, 134, 135, 136, 137, 138, 139, 140, 141, 142, 143, 144, 145, 146, 147, 148, 149, 150, 151, 152, 153, 154, 155, 156, 157, 158, 159, 160, 161, 162, 163, 164, 165, 166, 167, 168, 169, 170, 171, 172, 173, 174, 175, 176, 177, 178, 179, 180, 181, 182, 183, 184, 185, 186, 187, 188, 189, 190, 191, 192, 193, 194, 195, 196, 197, 198, 199, 200, 201, 202, 203, 204, 205, 206, 207, 208, 209, 210, 211, 212, 213, 214, 215, 216, 217, 218, 219, 220, 221, 222, 223, 224, 225, 226, 227, 228, 229, 230, 231, 232, 233, 234, 235, 236, 237, 238, 239, 240, 241, 242, 243, 244, 245, 246, 247, 248, 249, 250, 251, 252, 253, 254, 255, 256, 257, 258, 259, 260, 261, 262, 263, 264, 265, 266, 267, 268, 269, 270, 271, 272, 273, 274, 275, 276, 277, 278, 279, 280, 281, 282, 283, 284, 285, 286, 287, 288, 289, 290, 291, 292, 293, 294, 295, 296, 297, 298, 299, 300, 301, 302, 303, 304, 305, 306, 307, 308, 309, 310, 311, 312, 313, 314, 315, 316, 317, 318, 319, 320, 321, 322, 323, 324, 325, 326, 327, 328, 329, 330, 331, 332, 333, 334, 335, 336, 337, 338, 339, 340, 341, 342, 343, 344, 345, 346, 347, 348, 349, 350, 351, 352, 353, 354, 355, 356, 357, 358, 359, 360, 361, 362, 363, 364, 365, 366, 367, 368, 369, 370, 371, 372, 373, 374, 375, 376, 377, 378, 379, 380, 381, 382, 383, 384, 385, 386, 387, 388, 389, 390, 391, 392, 393, 394, 395, 396, 397, 398, 399, 400, 401, 402, 403, 404, 405, 406, 407, 408, 409, 410, 411, 412, 413, 414, 415, 416, 417, 418, 419, 420, 421, 422, 423, 424, 425, 426, 427, 428, 429, 430, 431, 432, 433, 434, 435, 436, 437, 438, 439, 440, 441, 442, 443, 444, 445, 446, 447, 448, 449, 450, 451, 452, 453, 454, 455, 456, 457, 458, 459, 460, 461, 462, 463, 464, 465, 466, 467, 468, 469, 470, 471, 472, 473, 474, 475, 476, 477, 478, 479, 480, 481, 482, 483, 484, 485, 486, 487, 488, 489, 490, 491, 492, 493, 494, 495, 496, 497, 498, 499, 500, 501, 502, 503, 504, 505, 506, 507, 508, 509, 510, 511, 512, 513, 514, 515, 516, 517, 518, 519, 520, 521, 522, 523, 524, 525, 526, 527, 528, 529, 530, 531, 532, 533, 534, 535, 536, 537, 538, 539, 540, 541, 542, 543, 544, 545, 546, 547, 548, 549, 550, 551, 552, 553, 554, 555, 556, 557, 558, 559, 560, 561, 562, 563, 564, 565, 566, 567, 568, 569, 570, 571, 572, 573, 574, 575, 576, 577, 578, 579, 580, 581, 582, 583, 584, 585, 586, 587, 588, 589, 590, 591, 592, 593, 594, 595, 596, 597, 598, 599, 600, 601, 602, 603, 604, 605, 606, 607, 608, 609, 610, 611, 612, 613, 614, 615, 616, 617, 618, 619, 620, 621, 622, 623, 624, 625, 626, 627, 628, 629, 630, 631, 632, 633, 634, 635, 636, 637, 638, 639, 640, 641, 642, 643, 644, 645, 646, 647, 648, 649, 650, 651, 652, 653, 654, 655, 656, 657, 658, 659, 660, 661, 662, 663, 664, 665, 666, 667, 668, 669, 670, 671, 672, 673, 674, 675, 676, 677, 678, 679, 680, 681, 682, 683, 684, 685, 686, 687, 688, 689, 690, 691, 692, 693, 694, 695, 696, 697, 698, 699, 700, 701, 702, 703, 704, 705, 706, 707, 708, 709, 710, 711, 712, 713, 714, 715, 716, 717, 718, 719, 720, 721, 722, 723, 724, 725, 726, 727, 728, 729, 730, 731, 732, 733, 734, 735, 736, 737, 738, 739, 740, 741, 742, 743, 744, 745, 746, 747, 748, 749, 750, 751, 752, 753, 754, 755, 756, 757, 758, 759, 760, 761, 762, 763, 764, 765, 766, 767, 768, 769, 770, 771, 772, 773, 774, 775, 776, 777, 778, 779, 780, 781, 782, 783, 784, 785, 786, 787, 788, 789, 790, 791, 792, 793, 794, 795, 796, 797, 798, 799, 800, 801, 802, 803, 804, 805, 806, 807, 808, 809, 810, 811, 812, 813, 814, 815, 816, 817, 818, 819, 820, 821, 822, 823, 824, 825, 826, 827, 828, 829, 830, 831, 832, 833, 834, 835, 836, 837, 838, 839, 840, 841, 842, 843, 844, 845, 846, 847, 848, 849, 850, 851, 852, 853, 854, 855, 856, 857, 858, 859, 860, 861, 862, 863, 864, 865, 866, 867, 868, 869, 870, 871, 872],
      "AcquisitionTime": ["110144.510000", "110144.970000", "110145.430000", "110145.890000", "110146.350000", "110146.810000", "110147.270000", "110147.730000", "110148.190000", "110148.650000", "110149.110000", "110149.570000", "110150.030000", "110150.490000", "110150.950000", "110151.410000", "110151.870000", "110152.330000", "110152.790000", "110153.250000", "110153.710000", "110154.170000", "110154.630000", "110155.090000", "110155.550000", "110156.010000", "110156.470000", "110156.930000", "110157.390000", "110157.850000", "110158.310000", "110158.770000", "110159.230000", "110159.690000", "110200.150000", "110200.610000", "110201.070000", "110201.530000", "110201.990000", "110202.450000", "110202.910000", "110203.370000", "110203.830000", "110204.290000", "110204.750000", "110205.210000", "110205.670000", "110206.130000", "110206.590000", "110207.050000", "110207.510000", "110207.970000", "110208.430000", "110208.890000", "110209.350000", "110209.810000", "110210.270000", "110210.730000", "110211.190000", "110211.650000", "110212.110000", "110212.570000", "110213.030000", "110213.490000", "110213.950000", "110214.410000", "110214.870000", "110215.330000", "110215.790000", "110216.250000", "110216.710000", "110217.170000", "110217.630000", "110218.090000", "110218.550000", "110219.010000", "110219.470000", "110219.930000", "110220.390000", "110220.850000", "110221.310000", "110221.770000", "110222.230000", "110222.690000", "110223.150000", "110223.610000", "110224.070000", "110224.530000", "110224.990000", "110225.450000", "110225.910000", "110226.370000", "110226.830000", "110227.290000", "110227.750000", "110228.210000", "110228.670000", "110229.130000", "110229.590000", "110230.050000", "110230.510000", "110230.970000", "110231.430000", "110231.890000", "110232.350000", "110232.810000", "110233.270000", "110233.730000", "110234.190000", "110234.650000", "110235.110000", "110235.570000", "110236.030000", "110236.490000", "110236.950000", "110237.410000", "110237.870000", "110238.330000", "110238.790000", "110239.250000", "110239.710000", "110240.170000", "110240.630000", "110241.090000", "110241.550000", "110242.010000", "110242.470000", "110242.930000", "110243.390000", "110243.850000", "110244.310000", "110244.770000", "110245.230000", "110245.690000", "110246.150000", "110246.610000", "110247.070000", "110247.530000", "110247.990000", "110248.450000", "110248.910000", "110249.370000", "110249.830000", "110250.290000", "110250.750000", "110251.210000", "110251.670000", "110252.130000", "110252.590000", "110253.050000", "110253.510000", "110253.970000", "110254.430000", "110254.890000", "110255.350000", "110255.810000", "110256.270000", "110256.730000", "110257.190000", "110257.650000", "110258.110000", "110258.570000", "110259.030000", "110259.490000", "110259.950000", "110300.410000", "110300.870000", "110301.330000", "110301.790000", "110302.250000", "110302.710000", "110303.170000", "110303.630000", "110304.090000", "110304.550000", "110305.010000", "110305.470000", "110305.930000", "110306.390000", "110306.850000", "110307.310000", "110307.770000", "110308.230000", "110308.690000", "110309.150000", "110309.610000", "110310.070000", "110310.530000", "110310.990000", "110311.450000", "110311.910000", "110312.370000", "110312.830000", "110313.290000", "110313.750000", "110314.210000", "110314.670000", "110315.130000", "110315.590000", "110316.050000", "110316.510000", "110316.970000", "110317.430000", "110317.890000", "110318.350000", "110318.810000", "110319.270000", "110319.730000", "110320.190000", "110320.650000", "110321.110000", "110321.570000", "110322.030000", "110322.490000", "110322.950000", "110323.410000", "110323.870000", "110324.330000", "110324.790000", "110325.250000", "110325.710000", "110326.170000", "110326.630000", "110327.090000", "110327.550000", "110328.010000", "110328.470000", "110328.930000", "110329.390000", "110329.850000", "110330.310000", "110330.770000", "110331.230000", "110331.690000", "110332.150000", "110332.610000", "110333.070000", "110333.530000", "110333.990000", "110334.450000", "110334.910000", "110335.370000", "110335.830000", "110336.290000", "110336.750000", "110337.210000", "110337.670000", "110338.130000", "110338.590000", "110339.050000", "110339.510000", "110339.970000", "110340.430000", "110340.890000", "110341.350000", "110341.810000", "110342.270000", "110342.730000", "110343.190000", "110343.650000", "110344.110000", "110344.570000", "110345.030000", "110345.490000", "110345.950000", "110346.410000", "110346.870000", "110347.330000", "110347.790000", "110348.250000", "110348.710000", "110349.170000", "110349.630000", "110350.090000", "110350.550000", "110351.010000", "110351.470000", "110351.930000", "110352.390000", "110352.850000", "110353.310000", "110353.770000", "110354.230000", "110354.690000", "110355.150000", "110355.610000", "110356.070000", "110356.530000", "110356.990000", "110357.450000", "110357.910000", "110358.370000", "110358.830000", "110359.290000", "110359.750000", "110400.210000", "110400.670000", "110401.130000", "110401.590000", "110402.050000", "110402.510000", "110402.970000", "110403.430000", "110403.890000", "110404.350000", "110404.810000", "110405.270000", "110405.730000", "110406.190000", "110406.650000", "110407.110000", "110407.570000", "110408.030000", "110408.490000", "110408.950000", "110409.410000", "110409.870000", "110410.330000", "110410.790000", "110411.250000", "110411.710000", "110412.170000", "110412.630000", "110413.090000", "110413.550000", "110414.010000", "110414.470000", "110414.930000", "110415.390000", "110415.850000", "110416.310000", "110416.770000", "110417.230000", "110417.690000", "110418.150000", "110418.610000", "110419.070000", "110419.530000", "110419.990000", "110420.450000", "110420.910000", "110421.370000", "110421.830000", "110422.290000", "110422.750000", "110423.210000", "110423.670000", "110424.130000", "110424.590000", "110425.050000", "110425.510000", "110425.970000", "110426.430000", "110426.890000", "110427.350000", "110427.810000", "110428.270000", "110428.730000", "110429.190000", "110429.650000", "110430.110000", "110430.570000", "110431.030000", "110431.490000", "110431.950000", "110432.410000", "110432.870000", "110433.330000", "110433.790000", "110434.250000", "110434.710000", "110435.170000", "110435.630000", "110436.090000", "110436.550000", "110437.010000", "110437.470000", "110437.930000", "110438.390000", "110438.850000", "110439.310000", "110439.770000", "110440.230000", "110440.690000", "110441.150000", "110441.610000", "110442.070000", "110442.530000", "110442.990000", "110443.450000", "110443.910000", "110444.370000", "110444.830000", "110445.290000", "110445.750000", "110446.210000", "110446.670000", "110447.130000", "110447.590000", "110448.050000", "110448.510000", "110448.970000", "110449.430000", "110449.890000", "110450.350000", "110450.810000", "110451.270000", "110451.730000", "110452.190000", "110452.650000", "110453.110000", "110453.570000", "110454.030000", "110454.490000", "110454.950000", "110455.410000", "110455.870000", "110456.330000", "110456.790000", "110457.250000", "110457.710000", "110458.170000", "110458.630000", "110459.090000", "110459.550000", "110500.010000", "110500.470000", "110500.930000", "110501.390000", "110501.850000", "110502.310000", "110502.770000", "110503.230000", "110503.690000", "110504.150000", "110504.610000", "110505.070000", "110505.530000", "110505.990000", "110506.450000", "110506.910000", "110507.370000", "110507.830000", "110508.290000", "110508.750000", "110509.210000", "110509.670000", "110510.130000", "110510.590000", "110511.050000", "110511.510000", "110511.970000", "110512.430000", "110512.890000", "110513.350000", "110513.810000", "110514.270000", "110514.730000", "110515.190000", "110515.650000", "110516.110000", "110516.570000", "110517.030000", "110517.490000", "110517.950000", "110518.410000", "110518.870000", "110519.330000", "110519.790000", "110520.250000", "110520.710000", "110521.170000", "110521.630000", "110522.090000", "110522.550000", "110523.010000", "110523.470000", "110523.930000", "110524.390000", "110524.850000", "110525.310000", "110525.770000", "110526.230000", "110526.690000", "110527.150000", "110527.610000", "110528.070000", "110528.530000", "110528.990000", "110529.450000", "110529.910000", "110530.370000", "110530.830000", "110531.290000", "110531.750000", "110532.210000", "110532.670000", "110533.130000", "110533.590000", "110534.050000", "110534.510000", "110534.970000", "110535.430000", "110535.890000", "110536.350000", "110536.810000", "110537.270000", "110537.730000", "110538.190000", "110538.650000", "110539.110000", "110539.570000", "110540.030000", "110540.490000", "110540.950000", "110541.410000", "110541.870000", "110542.330000", "110542.790000", "110543.250000", "110543.710000", "110544.170000", "110544.630000", "110545.090000", "110545.550000", "110546.010000", "110546.470000", "110546.930000", "110547.390000", "110547.850000", "110548.310000", "110548.770000", "110549.230000", "110549.690000", "110550.150000", "110550.610000", "110551.070000", "110551.530000", "110551.990000", "110552.450000", "110552.910000", "110553.370000", "110553.830000", "110554.290000", "110554.750000", "110555.210000", "110555.670000", "110556.130000", "110556.590000", "110557.050000", "110557.510000", "110557.970000", "110558.430000", "110558.890000", "110559.350000", "110559.810000", "110600.270000", "110600.730000", "110601.190000", "110601.650000", "110602.110000", "110602.570000", "110603.030000", "110603.490000", "110603.950000", "110604.410000", "110604.870000", "110605.330000", "110605.790000", "110606.250000", "110606.710000", "110607.170000", "110607.630000", "110608.090000", "110608.550000", "110609.010000", "110609.470000", "110609.930000", "110610.390000", "110610.850000", "110611.310000", "110611.770000", "110612.230000", "110612.690000", "110613.150000", "110613.610000", "110614.070000", "110614.530000", "110614.990000", "110615.450000", "110615.910000", "110616.370000", "110616.830000", "110617.290000", "110617.750000", "110618.210000", "110618.670000", "110619.130000", "110619.590000", "110620.050000", "110620.510000", "110620.970000", "110621.430000", "110621.890000", "110622.350000", "110622.810000", "110623.270000", "110623.730000", "110624.190000", "110624.650000", "110625.110000", "110625.570000", "110626.030000", "110626.490000", "110626.950000", "110627.410000", "110627.870000", "110628.330000", "110628.790000", "110629.250000", "110629.710000", "110630.170000", "110630.630000", "110631.090000", "110631.550000", "110632.010000", "110632.470000", "110632.930000", "110633.390000", "110633.850000", "110634.310000", "110634.770000", "110635.230000", "110635.690000", "110636.150000", "110636.610000", "110637.070000", "110637.530000", "110637.990000", "110638.450000", "110638.910000", "110639.370000", "110639.830000", "110640.290000", "110640.750000", "110641.210000", "110641.670000", "110642.130000", "110642.590000", "110643.050000", "110643.510000", "110643.970000", "110644.430000", "110644.890000", "110645.350000", "110645.810000", "110646.270000", "110646.730000", "110647.190000", "110647.650000", "110648.110000", "110648.570000", "110649.030000", "110649.490000", "110649.950000", "110650.410000", "110650.870000", "110651.330000", "110651.790000", "110652.250000", "110652.710000", "110653.170000", "110653.630000", "110654.090000", "110654.550000", "110655.010000", "110655.470000", "110655.930000", "110656.390000", "110656.850000", "110657.310000", "110657.770000", "110658.230000", "110658.690000", "110659.150000", "110659.610000", "110700.070000", "110700.530000", "110700.990000", "110701.450000", "110701.910000", "110702.370000", "110702.830000", "110703.290000", "110703.750000", "110704.210000", "110704.670000", "110705.130000", "110705.590000", "110706.050000", "110706.510000", "110706.970000", "110707.430000", "110707.890000", "110708.350000", "110708.810000", "110709.270000", "110709.730000", "110710.190000", "110710.650000", "110711.110000", "110711.570000", "110712.030000", "110712.490000", "110712.950000", "110713.410000", "110713.870000", "110714.330000", "110714.790000", "110715.250000", "110715.710000", "110716.170000", "110716.630000", "110717.090000", "110717.550000", "110718.010000", "110718.470000", "110718.930000", "110719.390000", "110719.850000", "110720.310000", "110720.770000", "110721.230000", "110721.690000", "110722.150000", "110722.610000", "110723.070000", "110723.530000", "110723.990000", "110724.450000", "110724.910000", "110725.370000", "110725.830000", "110726.290000", "110726.750000", "110727.210000", "110727.670000", "110728.130000", "110728.590000", "110729.050000", "110729.510000", "110729.970000", "110730.430000", "110730.890000", "110731.350000", "110731.810000", "110732.270000", "110732.730000", "110733.190000", "110733.650000", "110734.110000", "110734.570000", "110735.030000", "110735.490000", "110735.950000", "110736.410000", "110736.870000", "110737.330000", "110737.790000", "110738.250000", "110738.710000", "110739.170000", "110739.630000", "110740.090000", "110740.550000", "110741.010000", "110741.470000", "110741.930000", "110742.390000", "110742.850000", "110743.310000", "110743.770000", "110744.230000", "110744.690000", "110745.150000", "110745.610000", "110746.070000", "110746.530000", "110746.990000", "110747.450000", "110747.910000", "110748.370000", "110748.830000", "110749.290000", "110749.750000", "110750.210000", "110750.670000", "110751.130000", "110751.590000", "110752.050000", "110752.510000", "110752.970000", "110753.430000", "110753.890000", "110754.350000", "110754.810000", "110755.270000", "110755.730000", "110756.190000", "110756.650000", "110757.110000", "110757.570000", "110758.030000", "110758.490000", "110758.950000", "110759.410000", "110759.870000", "110800.330000", "110800.790000", "110801.250000", "110801.710000", "110802.170000", "110802.630000", "110803.090000", "110803.550000", "110804.010000", "110804.470000", "110804.930000", "110805.390000", "110805.850000", "110806.310000", "110806.770000", "110807.230000", "110807.690000", "110808.150000", "110808.610000", "110809.070000", "110809.530000", "110809.990000", "110810.450000", "110810.910000", "110811.370000", "110811.830000", "110812.290000", "110812.750000", "110813.210000", "110813.670000", "110814.130000", "110814.590000", "110815.050000", "110815.510000", "110815.970000", "110816.430000", "110816.890000", "110817.350000", "110817.810000", "110818.270000", "110818.730000", "110819.190000", "110819.650000", "110820.110000", "110820.570000", "110821.030000", "110821.490000", "110821.950000", "110822.410000", "110822.870000", "110823.330000", "110823.790000", "110824.250000", "110824.710000", "110825.170000"],
