{
  "AcquisitionMatrixPE": 82,
  "AcquisitionNumber": 1,
  "AcquisitionTime": "13:06:30.375000",
  "BandwidthPerPixelPhaseEncode": 24.888,
  "BaseResolution": 82,
  "BodyPartExamined": "BRAIN",
  "ConsistencyInfo": "N4_VE11E_LATEST_20181129",
  "ConversionSoftware": "dcm2niix",
  "ConversionSoftwareVersion": "v1.0.20201102",
  "DerivedVendorReportedEchoSpacing": 0.00049,
  "DeviceSerialNumber": "66112",
  "DwellTime": 2e-06,
  "EchoTime": 0.0272,
  "EchoTrainLength": 82,
  "EffectiveEchoSpacing": 0.00049,
  "FlipAngle": 44,
  "ImageComments": "Unaliased MB8/PE3",
  "ImageOrientationPatientDICOM": [0.997067, -0.0535357, 0.0546863, 0.056443, 0.996994, -0.0530793],
  "ImageType": [
    "ORIGINAL",
    "PRIMARY",
    "M",
    "MB",
    "ND",
    "NORM",
    "MOSAIC"
],
  "ImagingFrequency": 123.252,
  "InPlanePhaseEncodingDirectionDICOM": "COL",
  "InstitutionAddress": "Maynard 3,Hanover,NH,US,03755",
  "InstitutionName": "Dartmouth College - PBS",
  "InstitutionalDepartmentName": "Department",
  "MRAcquisitionType": "2D",
  "MagneticFieldStrength": 3,
  "Manufacturer": "Siemens",
  "ManufacturersModelName": "Prisma",
  "Modality": "MR",
  "MultibandAccelerationFactor": 8,
  "PartialFourier": 1,
  "PatientPosition": "HFS",
  "PercentPhaseFOV": 100,
  "PercentSampling": 100,
  "PhaseEncodingDirection": "j-",
  "PhaseEncodingSteps": 82,
  "PhaseResolution": 1,
  "PixelBandwidth": 3050,
  "ProcedureStepDescription": "Wager_Wager^1076_spacetop",
  "ProtocolName": "func_run-02_task-narratives_acq-ap-mb8",
  "PulseSequenceDetails": "%CustomerSeq%\\cmrr_mbep2d_bold",
  "ReceiveCoilActiveElements": "HEA;HEP",
  "ReceiveCoilName": "Head_32",
  "ReconMatrixPE": 82,
  "RepetitionTime": 0.46,
  "SAR": 0.0998704,
  "ScanOptions": "FS",
  "ScanningSequence": "EP",
  "SequenceName": "epfid2d1_82",
  "SequenceVariant": "SK\\SS",
  "SeriesDescription": "func_run-02_task-narratives_acq-ap-mb8",
  "SeriesNumber": 12,
  "ShimSetting": [4172, -7758, -7285, 616, 77, -455, 93, 48],
  "SliceThickness": 2.7,
  "SliceTiming": [0, 0.25, 0.0625, 0.3125, 0.125, 0.3775, 0.1875, 0, 0.25, 0.0625, 0.3125, 0.125, 0.3775, 0.1875, 0, 0.25, 0.0625, 0.3125, 0.125, 0.3775, 0.1875, 0, 0.25, 0.0625, 0.3125, 0.125, 0.3775, 0.1875, 0, 0.25, 0.0625, 0.3125, 0.125, 0.3775, 0.1875, 0, 0.25, 0.0625, 0.3125, 0.125, 0.3775, 0.1875, 0, 0.25, 0.0625, 0.3125, 0.125, 0.3775, 0.1875, 0, 0.25, 0.0625, 0.3125, 0.125, 0.3775, 0.1875],
  "SoftwareVersions": "syngo MR E11",
  "SpacingBetweenSlices": 2.7,
  "StationName": "AWP66112",
  "TaskName": "narratives",
  "TotalReadoutTime": 0.03969,
  "TxRefAmp": 236.868,
  "WipMemBlock": "508011ab-66b2-4b08-b068-7f75c3b01121||Sequence: R016 ve11e/master r/434b28f1; Aug  7 2019 18:53:46 by eja",
  "dcmmeta_affine": [
    [-2.6750588417053223, 0.15143248438835144, 0.1395367980003357, 102.39361572265625],
    [0.14363239705562592, 2.6748616695404053, -0.15122778713703156, -98.73583221435547],
    [0.14671941101551056, 0.1424078643321991, 2.692147731781006, -92.37532806396484],
    [0.0, 0.0, 0.0, 1.0]
],
  "dcmmeta_reorient_transform": [
    [0.0, -1.0, 0.0, 81.0],
    [1.0, 0.0, 0.0, 0.0],
    [0.0, 0.0, 1.0, 0.0],
    [0.0, 0.0, 0.0, 1.0]
],
  "dcmmeta_shape": [82, 82, 56, 1098],
  "dcmmeta_slice_dim": 2,
  "dcmmeta_version": 0.6,
  "global": {
    "const": {
      "AccessionNumber": "A004107",
      "AcquisitionMatrix": [82, 0, 0, 82],
      "AngioFlag": "N",
      "BitsAllocated": 16,
      "BitsStored": 16,
      "BodyPartExamined": "BRAIN",
      "Columns": 656,
      "EchoNumbers": 1,
      "EchoTime": 27.2,
      "EchoTrainLength": 82,
      "FlipAngle": 44.0,
      "HighBit": 15,
      "ImageOrientationPatient": [0.99706736658224, -0.0535357116357, 0.05468632440035, 0.05644301439761, 0.99699386895854, -0.0530792933713],
      "ImagePositionPatient": [-925.86266317271, -844.39075835825, -82.077708152281],
      "ImageType": [
        "ORIGINAL",
        "PRIMARY",
        "M",
        "MB",
        "ND",
        "NORM",
        "MOSAIC"
],
      "ImagedNucleus": "1H",
      "ImagingFrequency": 123.252217,
      "InPlanePhaseEncodingDirection": "COL",
      "MRAcquisitionType": "2D",
      "MagneticFieldStrength": 3.0,
      "Manufacturer": "SIEMENS",
      "ManufacturerModelName": "Prisma",
      "Modality": "MR",
      "NumberOfAverages": 1.0,
      "NumberOfPhaseEncodingSteps": 82,
      "PercentPhaseFieldOfView": 100.0,
      "PercentSampling": 100.0,
      "PerformedProcedureStepStartTime": "124203.350000",
      "PhotometricInterpretation": "MONOCHROME2",
      "PixelBandwidth": 3050.0,
      "PixelRepresentation": 0,
      "PixelSpacing": [2.6829268932343, 2.6829268932343],
      "ProtocolName": "func_run-02_task-narratives_acq-ap-mb8",
      "RepetitionTime": 460.0,
      "Rows": 656,
      "SAR": 0.09987044033225,
      "SamplesPerPixel": 1,
      "ScanOptions": "FS",
      "ScanningSequence": "EP",
      "SequenceName": "epfid2d1_82",
      "SequenceVariant": [
        "SK",
        "SS"
],
      "SeriesDescription": "func_run-02_task-narratives_acq-ap-mb8",
      "SeriesNumber": 12,
      "SeriesTime": "130645.537000",
      "SliceLocation": -81.284727165421,
      "SliceThickness": 2.7000000476837,
      "SmallestImagePixelValue": 0,
      "SoftwareVersions": "syngo MR E11",
      "SpacingBetweenSlices": 2.7000000525682,
      "SpecificCharacterSet": "ISO_IR 100",
      "StudyID": "2",
      "StudyTime": "124203.241000",
      "TransmitCoilName": "Body",
      "VariableFlipAngleFlag": "N",
      "WindowCenterWidthExplanation": "Algo1"
    },
    "slices": {}
  },
  "time": {
    "samples": {
      "AcquisitionNumber": [1, 2, 3, 4, 5, 6, 7, 8, 9, 10, 11, 12, 13, 14, 15, 16, 17, 18, 19, 20, 21, 22, 23, 24, 25, 26, 27, 28, 29, 30, 31, 32, 33, 34, 35, 36, 37, 38, 39, 40, 41, 42, 43, 44, 45, 46, 47, 48, 49, 50, 51, 52, 53, 54, 55, 56, 57, 58, 59, 60, 61, 62, 63, 64, 65, 66, 67, 68, 69, 70, 71, 72, 73, 74, 75, 76, 77, 78, 79, 80, 81, 82, 83, 84, 85, 86, 87, 88, 89, 90, 91, 92, 93, 94, 95, 96, 97, 98, 99, 100, 101, 102, 103, 104, 105, 106, 107, 108, 109, 110, 111, 112, 113, 114, 115, 116, 117, 118, 119, 120, 121, 122, 123, 124, 125, 126, 127, 128, 129, 130, 131, 132, 133, 134, 135, 136, 137, 138, 139, 140, 141, 142, 143, 144, 145, 146, 147, 148, 149, 150, 151, 152, 153, 154, 155, 156, 157, 158, 159, 160, 161, 162, 163, 164, 165, 166, 167, 168, 169, 170, 171, 172, 173, 174, 175, 176, 177, 178, 179, 180, 181, 182, 183, 184, 185, 186, 187, 188, 189, 190, 191, 192, 193, 194, 195, 196, 197, 198, 199, 200, 201, 202, 203, 204, 205, 206, 207, 208, 209, 210, 211, 212, 213, 214, 215, 216, 217, 218, 219, 220, 221, 222, 223, 224, 225, 226, 227, 228, 229, 230, 231, 232, 233, 234, 235, 236, 237, 238, 239, 240, 241, 242, 243, 244, 245, 246, 247, 248, 249, 250, 251, 252, 253, 254, 255, 256, 257, 258, 259, 260, 261, 262, 263, 264, 265, 266, 267, 268, 269, 270, 271, 272, 273, 274, 275, 276, 277, 278, 279, 280, 281, 282, 283, 284, 285, 286, 287, 288, 289, 290, 291, 292, 293, 294, 295, 296, 297, 298, 299, 300, 301, 302, 303, 304, 305, 306, 307, 308, 309, 310, 311, 312, 313, 314, 315, 316, 317, 318, 319, 320, 321, 322, 323, 324, 325, 326, 327, 328, 329, 330, 331, 332, 333, 334, 335, 336, 337, 338, 339, 340, 341, 342, 343, 344, 345, 346, 347, 348, 349, 350, 351, 352, 353, 354, 355, 356, 357, 358, 359, 360, 361, 362, 363, 364, 365, 366, 367, 368, 369, 370, 371, 372, 373, 374, 375, 376, 377, 378, 379, 380, 381, 382, 383, 384, 385, 386, 387, 388, 389, 390, 391, 392, 393, 394, 395, 396, 397, 398, 399, 400, 401, 402, 403, 404, 405, 406, 407, 408, 409, 410, 411, 412, 413, 414, 415, 416, 417, 418, 419, 420, 421, 422, 423, 424, 425, 426, 427, 428, 429, 430, 431, 432, 433, 434, 435, 436, 437, 438, 439, 440, 441, 442, 443, 444, 445, 446, 447, 448, 449, 450, 451, 452, 453, 454, 455, 456, 457, 458, 459, 460, 461, 462, 463, 464, 465, 466, 467, 468, 469, 470, 471, 472, 473, 474, 475, 476, 477, 478, 479, 480, 481, 482, 483, 484, 485, 486, 487, 488, 489, 490, 491, 492, 493, 494, 495, 496, 497, 498, 499, 500, 501, 502, 503, 504, 505, 506, 507, 508, 509, 510, 511, 512, 513, 514, 515, 516, 517, 518, 519, 520, 521, 522, 523, 524, 525, 526, 527, 528, 529, 530, 531, 532, 533, 534, 535, 536, 537, 538, 539, 540, 541, 542, 543, 544, 545, 546, 547, 548, 549, 550, 551, 552, 553, 554, 555, 556, 557, 558, 559, 560, 561, 562, 563, 564, 565, 566, 567, 568, 569, 570, 571, 572, 573, 574, 575, 576, 577, 578, 579, 580, 581, 582, 583, 584, 585, 586, 587, 588, 589, 590, 591, 592, 593, 594, 595, 596, 597, 598, 599, 600, 601, 602, 603, 604, 605, 606, 607, 608, 609, 610, 611, 612, 613, 614, 615, 616, 617, 618, 619, 620, 621, 622, 623, 624, 625, 626, 627, 628, 629, 630, 631, 632, 633, 634, 635, 636, 637, 638, 639, 640, 641, 642, 643, 644, 645, 646, 647, 648, 649, 650, 651, 652, 653, 654, 655, 656, 657, 658, 659, 660, 661, 662, 663, 664, 665, 666, 667, 668, 669, 670, 671, 672, 673, 674, 675, 676, 677, 678, 679, 680, 681, 682, 683, 684, 685, 686, 687, 688, 689, 690, 691, 692, 693, 694, 695, 696, 697, 698, 699, 700, 701, 702, 703, 704, 705, 706, 707, 708, 709, 710, 711, 712, 713, 714, 715, 716, 717, 718, 719, 720, 721, 722, 723, 724, 725, 726, 727, 728, 729, 730, 731, 732, 733, 734, 735, 736, 737, 738, 739, 740, 741, 742, 743, 744, 745, 746, 747, 748, 749, 750, 751, 752, 753, 754, 755, 756, 757, 758, 759, 760, 761, 762, 763, 764, 765, 766, 767, 768, 769, 770, 771, 772, 773, 774, 775, 776, 777, 778, 779, 780, 781, 782, 783, 784, 785, 786, 787, 788, 789, 790, 791, 792, 793, 794, 795, 796, 797, 798, 799, 800, 801, 802, 803, 804, 805, 806, 807, 808, 809, 810, 811, 812, 813, 814, 815, 816, 817, 818, 819, 820, 821, 822, 823, 824, 825, 826, 827, 828, 829, 830, 831, 832, 833, 834, 835, 836, 837, 838, 839, 840, 841, 842, 843, 844, 845, 846, 847, 848, 849, 850, 851, 852, 853, 854, 855, 856, 857, 858, 859, 860, 861, 862, 863, 864, 865, 866, 867, 868, 869, 870, 871, 872, 873, 874, 875, 876, 877, 878, 879, 880, 881, 882, 883, 884, 885, 886, 887, 888, 889, 890, 891, 892, 893, 894, 895, 896, 897, 898, 899, 900, 901, 902, 903, 904, 905, 906, 907, 908, 909, 910, 911, 912, 913, 914, 915, 916, 917, 918, 919, 920, 921, 922, 923, 924, 925, 926, 927, 928, 929, 930, 931, 932, 933, 934, 935, 936, 937, 938, 939, 940, 941, 942, 943, 944, 945, 946, 947, 948, 949, 950, 951, 952, 953, 954, 955, 956, 957, 958, 959, 960, 961, 962, 963, 964, 965, 966, 967, 968, 969, 970, 971, 972, 973, 974, 975, 976, 977, 978, 979, 980, 981, 982, 983, 984, 985, 986, 987, 988, 989, 990, 991, 992, 993, 994, 995, 996, 997, 998, 999, 1000, 1001, 1002, 1003, 1004, 1005, 1006, 1007, 1008, 1009, 1010, 1011, 1012, 1013, 1014, 1015, 1016, 1017, 1018, 1019, 1020, 1021, 1022, 1023, 1024, 1025, 1026, 1027, 1028, 1029, 1030, 1031, 1032, 1033, 1034, 1035, 1036, 1037, 1038, 1039, 1040, 1041, 1042, 1043, 1044, 1045, 1046, 1047, 1048, 1049, 1050, 1051, 1052, 1053, 1054, 1055, 1056, 1057, 1058, 1059, 1060, 1061, 1062, 1063, 1064, 1065, 1066, 1067, 1068, 1069, 1070, 1071, 1072, 1073, 1074, 1075, 1076, 1077, 1078, 1079, 1080, 1081, 1082, 1083, 1084, 1085, 1086, 1087, 1088, 1089, 1090, 1091, 1092, 1093, 1094, 1095, 1096, 1097, 1098],
      "AcquisitionTime": ["130630.375000", "130630.835000", "130631.295000", "130631.755000", "130632.215000", "130632.675000", "130633.135000", "130633.595000", "130634.055000", "130634.515000", "130634.975000", "130635.435000", "130635.895000", "130636.355000", "130636.815000", "130637.275000", "130637.735000", "130638.195000", "130638.655000", "130639.115000", "130639.575000", "130640.035000", "130640.495000", "130640.955000", "130641.415000", "130641.875000", "130642.335000", "130642.795000", "130643.255000", "130643.715000", "130644.175000", "130644.635000", "130645.095000", "130645.555000", "130646.015000", "130646.475000", "130646.935000", "130647.395000", "130647.855000", "130648.315000", "130648.775000", "130649.235000", "130649.695000", "130650.155000", "130650.615000", "130651.075000", "130651.535000", "130651.995000", "130652.455000", "130652.915000", "130653.375000", "130653.835000", "130654.295000", "130654.755000", "130655.215000", "130655.675000", "130656.135000", "130656.595000", "130657.055000", "130657.515000", "130657.975000", "130658.435000", "130658.895000", "130659.355000", "130659.815000", "130700.275000", "130700.735000", "130701.195000", "130701.655000", "130702.115000", "130702.575000", "130703.035000", "130703.495000", "130703.955000", "130704.415000", "130704.875000", "130705.335000", "130705.795000", "130706.255000", "130706.715000", "130707.175000", "130707.635000", "130708.095000", "130708.555000", "130709.015000", "130709.475000", "130709.935000", "130710.395000", "130710.855000", "130711.315000", "130711.775000", "130712.235000", "130712.695000", "130713.155000", "130713.615000", "130714.075000", "130714.535000", "130714.995000", "130715.455000", "130715.915000", "130716.375000", "130716.835000", "130717.295000", "130717.755000", "130718.215000", "130718.675000", "130719.135000", "130719.595000", "130720.055000", "130720.515000", "130720.975000", "130721.435000", "130721.895000", "130722.355000", "130722.815000", "130723.275000", "130723.735000", "130724.195000", "130724.655000", "130725.115000", "130725.575000", "130726.035000", "130726.495000", "130726.955000", "130727.415000", "130727.875000", "130728.335000", "130728.795000", "130729.255000", "130729.715000", "130730.175000", "130730.635000", "130731.095000", "130731.555000", "130732.015000", "130732.475000", "130732.935000", "130733.395000", "130733.855000", "130734.315000", "130734.775000", "130735.235000", "130735.695000", "130736.155000", "130736.615000", "130737.075000", "130737.535000", "130737.995000", "130738.455000", "130738.915000", "130739.375000", "130739.835000", "130740.295000", "130740.755000", "130741.215000", "130741.675000", "130742.135000", "130742.595000", "130743.055000", "130743.515000", "130743.975000", "130744.435000", "130744.895000", "130745.355000", "130745.815000", "130746.275000", "130746.735000", "130747.195000", "130747.655000", "130748.115000", "130748.575000", "130749.035000", "130749.495000", "130749.955000", "130750.415000", "130750.875000", "130751.335000", "130751.795000", "130752.255000", "130752.715000", "130753.175000", "130753.635000", "130754.095000", "130754.555000", "130755.015000", "130755.475000", "130755.935000", "130756.395000", "130756.855000", "130757.315000", "130757.775000", "130758.235000", "130758.695000", "130759.155000", "130759.615000", "130800.075000", "130800.535000", "130800.995000", "130801.455000", "130801.915000", "130802.375000", "130802.835000", "130803.295000", "130803.755000", "130804.215000", "130804.675000", "130805.135000", "130805.595000", "130806.055000", "130806.515000", "130806.975000", "130807.435000", "130807.895000", "130808.355000", "130808.815000", "130809.275000", "130809.735000", "130810.195000", "130810.655000", "130811.115000", "130811.575000", "130812.035000", "130812.495000", "130812.955000", "130813.415000", "130813.875000", "130814.335000", "130814.795000", "130815.255000", "130815.715000", "130816.175000", "130816.635000", "130817.095000", "130817.555000", "130818.015000", "130818.475000", "130818.935000", "130819.395000", "130819.855000", "130820.315000", "130820.775000", "130821.235000", "130821.695000", "130822.155000", "130822.615000", "130823.075000", "130823.535000", "130823.995000", "130824.455000", "130824.915000", "130825.375000", "130825.835000", "130826.295000", "130826.755000", "130827.215000", "130827.675000", "130828.135000", "130828.595000", "130829.055000", "130829.515000", "130829.975000", "130830.435000", "130830.895000", "130831.355000", "130831.815000", "130832.275000", "130832.735000", "130833.195000", "130833.655000", "130834.115000", "130834.575000", "130835.035000", "130835.495000", "130835.955000", "130836.415000", "130836.875000", "130837.335000", "130837.795000", "130838.255000", "130838.715000", "130839.175000", "130839.635000", "130840.095000", "130840.555000", "130841.015000", "130841.475000", "130841.935000", "130842.395000", "130842.855000", "130843.315000", "130843.775000", "130844.235000", "130844.695000", "130845.155000", "130845.615000", "130846.075000", "130846.535000", "130846.995000", "130847.455000", "130847.915000", "130848.375000", "130848.835000", "130849.295000", "130849.755000", "130850.215000", "130850.675000", "130851.135000", "130851.595000", "130852.055000", "130852.515000", "130852.975000", "130853.435000", "130853.895000", "130854.355000", "130854.815000", "130855.275000", "130855.735000", "130856.195000", "130856.655000", "130857.115000", "130857.575000", "130858.035000", "130858.495000", "130858.955000", "130859.415000", "130859.875000", "130900.335000", "130900.795000", "130901.255000", "130901.715000", "130902.175000", "130902.635000", "130903.095000", "130903.555000", "130904.015000", "130904.475000", "130904.935000", "130905.395000", "130905.855000", "130906.315000", "130906.775000", "130907.235000", "130907.695000", "130908.155000", "130908.615000", "130909.075000", "130909.535000", "130909.995000", "130910.455000", "130910.915000", "130911.375000", "130911.835000", "130912.295000", "130912.755000", "130913.215000", "130913.675000", "130914.135000", "130914.595000", "130915.055000", "130915.515000", "130915.975000", "130916.435000", "130916.895000", "130917.355000", "130917.815000", "130918.275000", "130918.735000", "130919.195000", "130919.655000", "130920.115000", "130920.575000", "130921.035000", "130921.495000", "130921.955000", "130922.415000", "130922.875000", "130923.335000", "130923.795000", "130924.255000", "130924.715000", "130925.175000", "130925.635000", "130926.095000", "130926.555000", "130927.015000", "130927.475000", "130927.935000", "130928.395000", "130928.855000", "130929.315000", "130929.775000", "130930.235000", "130930.695000", "130931.155000", "130931.615000", "130932.075000", "130932.535000", "130932.995000", "130933.455000", "130933.915000", "130934.375000", "130934.835000", "130935.295000", "130935.755000", "130936.215000", "130936.675000", "130937.135000", "130937.595000", "130938.055000", "130938.515000", "130938.975000", "130939.435000", "130939.895000", "130940.355000", "130940.815000", "130941.275000", "130941.735000", "130942.195000", "130942.655000", "130943.115000", "130943.575000", "130944.035000", "130944.495000", "130944.955000", "130945.415000", "130945.875000", "130946.335000", "130946.795000", "130947.255000", "130947.715000", "130948.175000", "130948.635000", "130949.095000", "130949.555000", "130950.015000", "130950.475000", "130950.935000", "130951.395000", "130951.855000", "130952.315000", "130952.775000", "130953.235000", "130953.695000", "130954.155000", "130954.615000", "130955.075000", "130955.535000", "130955.995000", "130956.455000", "130956.915000", "130957.375000", "130957.835000", "130958.295000", "130958.755000", "130959.215000", "130959.675000", "131000.135000", "131000.595000", "131001.055000", "131001.515000", "131001.975000", "131002.435000", "131002.895000", "131003.355000", "131003.815000", "131004.275000", "131004.735000", "131005.195000", "131005.655000", "131006.115000", "131006.575000", "131007.035000", "131007.495000", "131007.955000", "131008.415000", "131008.875000", "131009.335000", "131009.795000", "131010.255000", "131010.715000", "131011.175000", "131011.635000", "131012.095000", "131012.555000", "131013.015000", "131013.475000", "131013.935000", "131014.395000", "131014.855000", "131015.315000", "131015.775000", "131016.235000", "131016.695000", "131017.155000", "131017.615000", "131018.075000", "131018.535000", "131018.995000", "131019.455000", "131019.915000", "131020.375000", "131020.835000", "131021.295000", "131021.755000", "131022.215000", "131022.675000", "131023.135000", "131023.595000", "131024.055000", "131024.515000", "131024.975000", "131025.435000", "131025.895000", "131026.355000", "131026.815000", "131027.275000", "131027.735000", "131028.195000", "131028.655000", "131029.115000", "131029.575000", "131030.035000", "131030.495000", "131030.955000", "131031.415000", "131031.875000", "131032.335000", "131032.795000", "131033.255000", "131033.715000", "131034.175000", "131034.635000", "131035.095000", "131035.555000", "131036.015000", "131036.475000", "131036.935000", "131037.395000", "131037.855000", "131038.315000", "131038.775000", "131039.235000", "131039.695000", "131040.155000", "131040.615000", "131041.075000", "131041.535000", "131041.995000", "131042.455000", "131042.915000", "131043.375000", "131043.835000", "131044.295000", "131044.755000", "131045.215000", "131045.675000", "131046.135000", "131046.595000", "131047.055000", "131047.515000", "131047.975000", "131048.435000", "131048.895000", "131049.355000", "131049.815000", "131050.275000", "131050.735000", "131051.195000", "131051.655000", "131052.115000", "131052.575000", "131053.035000", "131053.495000", "131053.955000", "131054.415000", "131054.875000", "131055.335000", "131055.795000", "131056.255000", "131056.715000", "131057.175000", "131057.635000", "131058.095000", "131058.555000", "131059.015000", "131059.475000", "131059.935000", "131100.395000", "131100.855000", "131101.315000", "131101.775000", "131102.235000", "131102.695000", "131103.155000", "131103.615000", "131104.075000", "131104.535000", "131104.995000", "131105.455000", "131105.915000", "131106.375000", "131106.835000", "131107.295000", "131107.755000", "131108.215000", "131108.675000", "131109.135000", "131109.595000", "131110.055000", "131110.515000", "131110.975000", "131111.435000", "131111.895000", "131112.355000", "131112.815000", "131113.275000", "131113.735000", "131114.195000", "131114.655000", "131115.115000", "131115.575000", "131116.035000", "131116.495000", "131116.955000", "131117.415000", "131117.875000", "131118.335000", "131118.795000", "131119.255000", "131119.715000", "131120.175000", "131120.635000", "131121.095000", "131121.555000", "131122.015000", "131122.475000", "131122.935000", "131123.395000", "131123.855000", "131124.315000", "131124.775000", "131125.235000", "131125.695000", "131126.155000", "131126.615000", "131127.075000", "131127.535000", "131127.995000", "131128.455000", "131128.915000", "131129.375000", "131129.835000", "131130.295000", "131130.755000", "131131.215000", "131131.675000", "131132.135000", "131132.595000", "131133.055000", "131133.515000", "131133.975000", "131134.435000", "131134.895000", "131135.355000", "131135.815000", "131136.275000", "131136.735000", "131137.195000", "131137.655000", "131138.115000", "131138.575000", "131139.035000", "131139.495000", "131139.955000", "131140.415000", "131140.875000", "131141.335000", "131141.795000", "131142.255000", "131142.715000", "131143.175000", "131143.635000", "131144.095000", "131144.555000", "131145.015000", "131145.475000", "131145.935000", "131146.395000", "131146.855000", "131147.315000", "131147.775000", "131148.235000", "131148.695000", "131149.155000", "131149.615000", "131150.075000", "131150.535000", "131150.995000", "131151.455000", "131151.915000", "131152.375000", "131152.835000", "131153.295000", "131153.755000", "131154.215000", "131154.675000", "131155.135000", "131155.595000", "131156.055000", "131156.515000", "131156.975000", "131157.435000", "131157.895000", "131158.355000", "131158.815000", "131159.275000", "131159.735000", "131200.195000", "131200.655000", "131201.115000", "131201.575000", "131202.035000", "131202.495000", "131202.955000", "131203.415000", "131203.875000", "131204.335000", "131204.795000", "131205.255000", "131205.715000", "131206.175000", "131206.635000", "131207.095000", "131207.555000", "131208.015000", "131208.475000", "131208.935000", "131209.395000", "131209.855000", "131210.315000", "131210.775000", "131211.235000", "131211.695000", "131212.155000", "131212.615000", "131213.075000", "131213.535000", "131213.995000", "131214.455000", "131214.915000", "131215.375000", "131215.835000", "131216.295000", "131216.755000", "131217.215000", "131217.675000", "131218.135000", "131218.595000", "131219.055000", "131219.515000", "131219.975000", "131220.435000", "131220.895000", "131221.355000", "131221.815000", "131222.275000", "131222.735000", "131223.195000", "131223.655000", "131224.115000", "131224.575000", "131225.035000", "131225.495000", "131225.955000", "131226.415000", "131226.875000", "131227.335000", "131227.795000", "131228.255000", "131228.715000", "131229.175000", "131229.635000", "131230.095000", "131230.555000", "131231.015000", "131231.475000", "131231.935000", "131232.395000", "131232.855000", "131233.315000", "131233.775000", "131234.235000", "131234.695000", "131235.155000", "131235.615000", "131236.075000", "131236.535000", "131236.995000", "131237.455000", "131237.915000", "131238.375000", "131238.835000", "131239.295000", "131239.755000", "131240.215000", "131240.675000", "131241.135000", "131241.595000", "131242.055000", "131242.515000", "131242.975000", "131243.435000", "131243.895000", "131244.355000", "131244.815000", "131245.275000", "131245.735000", "131246.195000", "131246.655000", "131247.115000", "131247.575000", "131248.035000", "131248.495000", "131248.955000", "131249.415000", "131249.875000", "131250.335000", "131250.795000", "131251.255000", "131251.715000", "131252.175000", "131252.635000", "131253.095000", "131253.555000", "131254.015000", "131254.475000", "131254.935000", "131255.395000", "131255.855000", "131256.315000", "131256.775000", "131257.235000", "131257.695000", "131258.155000", "131258.615000", "131259.075000", "131259.535000", "131259.995000", "131300.455000", "131300.915000", "131301.375000", "131301.835000", "131302.295000", "131302.755000", "131303.215000", "131303.675000", "131304.135000", "131304.595000", "131305.055000", "131305.515000", "131305.975000", "131306.435000", "131306.895000", "131307.355000", "131307.815000", "131308.275000", "131308.735000", "131309.195000", "131309.655000", "131310.115000", "131310.575000", "131311.035000", "131311.495000", "131311.955000", "131312.415000", "131312.875000", "131313.335000", "131313.795000", "131314.255000", "131314.715000", "131315.175000", "131315.635000", "131316.095000", "131316.555000", "131317.015000", "131317.475000", "131317.935000", "131318.395000", "131318.855000", "131319.315000", "131319.775000", "131320.235000", "131320.695000", "131321.155000", "131321.615000", "131322.075000", "131322.535000", "131322.995000", "131323.455000", "131323.915000", "131324.375000", "131324.835000", "131325.295000", "131325.755000", "131326.215000", "131326.675000", "131327.135000", "131327.595000", "131328.055000", "131328.515000", "131328.975000", "131329.435000", "131329.895000", "131330.355000", "131330.815000", "131331.275000", "131331.735000", "131332.195000", "131332.655000", "131333.115000", "131333.575000", "131334.035000", "131334.495000", "131334.955000", "131335.415000", "131335.875000", "131336.335000", "131336.795000", "131337.255000", "131337.715000", "131338.175000", "131338.635000", "131339.095000", "131339.555000", "131340.015000", "131340.475000", "131340.935000", "131341.395000", "131341.855000", "131342.315000", "131342.775000", "131343.235000", "131343.695000", "131344.155000", "131344.615000", "131345.075000", "131345.535000", "131345.995000", "131346.455000", "131346.915000", "131347.375000", "131347.835000", "131348.295000", "131348.755000", "131349.215000", "131349.675000", "131350.135000", "131350.595000", "131351.055000", "131351.515000", "131351.975000", "131352.435000", "131352.895000", "131353.355000", "131353.815000", "131354.275000", "131354.735000", "131355.195000", "131355.655000", "131356.115000", "131356.575000", "131357.035000", "131357.495000", "131357.955000", "131358.415000", "131358.875000", "131359.335000", "131359.795000", "131400.255000", "131400.715000", "131401.175000", "131401.635000", "131402.095000", "131402.555000", "131403.015000", "131403.475000", "131403.935000", "131404.395000", "131404.855000", "131405.315000", "131405.775000", "131406.235000", "131406.695000", "131407.155000", "131407.615000", "131408.075000", "131408.535000", "131408.995000", "131409.455000", "131409.915000", "131410.375000", "131410.835000", "131411.295000", "131411.755000", "131412.215000", "131412.675000", "131413.135000", "131413.595000", "131414.055000", "131414.515000", "131414.975000", "131415.435000", "131415.895000", "131416.355000", "131416.815000", "131417.275000", "131417.735000", "131418.195000", "131418.655000", "131419.115000", "131419.575000", "131420.035000", "131420.495000", "131420.955000", "131421.415000", "131421.875000", "131422.335000", "131422.795000", "131423.255000", "131423.715000", "131424.175000", "131424.635000", "131425.095000", "131425.555000", "131426.015000", "131426.475000", "131426.935000", "131427.395000", "131427.855000", "131428.315000", "131428.775000", "131429.235000", "131429.695000", "131430.155000", "131430.615000", "131431.075000", "131431.535000", "131431.995000", "131432.455000", "131432.915000", "131433.375000", "131433.835000", "131434.295000", "131434.755000", "131435.215000", "131435.675000", "131436.135000", "131436.595000", "131437.055000", "131437.515000", "131437.975000", "131438.435000", "131438.895000", "131439.355000", "131439.815000", "131440.275000", "131440.735000", "131441.195000", "131441.655000", "131442.115000", "131442.575000", "131443.035000", "131443.495000", "131443.955000", "131444.415000", "131444.875000", "131445.335000", "131445.795000", "131446.255000", "131446.715000", "131447.175000", "131447.635000", "131448.095000", "131448.555000", "131449.015000", "131449.475000", "131449.935000", "131450.395000", "131450.855000", "131451.315000", "131451.775000", "131452.235000", "131452.695000", "131453.155000", "131453.615000", "131454.075000", "131454.535000", "131454.995000"],
