{
  "AcquisitionMatrixPE": 82,
  "AcquisitionNumber": 1,
  "AcquisitionTime": "13:44:23.502500",
  "BandwidthPerPixelPhaseEncode": 24.888,
  "BaseResolution": 82,
  "BodyPartExamined": "BRAIN",
  "ConsistencyInfo": "N4_VE11E_LATEST_20181129",
  "ConversionSoftware": "dcm2niix",
  "ConversionSoftwareVersion": "v1.0.20201102",
  "DerivedVendorReportedEchoSpacing": 0.00049,
  "DeviceSerialNumber": "66112",
  "DwellTime": 2e-06,
  "EchoTime": 0.0272,
  "EchoTrainLength": 82,
  "EffectiveEchoSpacing": 0.00049,
  "FlipAngle": 44,
  "ImageComments": "Unaliased MB8/PE3",
  "ImageOrientationPatientDICOM": [0.997067, -0.0535357, 0.0546863, 0.056443, 0.996994, -0.0530793],
  "ImageType": [
    "ORIGINAL",
    "PRIMARY",
    "M",
    "MB",
    "ND",
    "NORM",
    "MOSAIC"
],
  "ImagingFrequency": 123.252,
  "InPlanePhaseEncodingDirectionDICOM": "COL",
  "InstitutionAddress": "Maynard 3,Hanover,NH,US,03755",
  "InstitutionName": "Dartmouth College - PBS",
  "InstitutionalDepartmentName": "Department",
  "MRAcquisitionType": "2D",
  "MagneticFieldStrength": 3,
  "Manufacturer": "Siemens",
  "ManufacturersModelName": "Prisma",
  "Modality": "MR",
  "MultibandAccelerationFactor": 8,
  "PartialFourier": 1,
  "PatientPosition": "HFS",
  "PercentPhaseFOV": 100,
  "PercentSampling": 100,
  "PhaseEncodingDirection": "j-",
  "PhaseEncodingSteps": 82,
  "PhaseResolution": 1,
  "PixelBandwidth": 3050,
  "ProcedureStepDescription": "Wager_Wager^1076_spacetop",
  "ProtocolName": "func_run-02_task-faces_acq-ap-mb8",
  "PulseSequenceDetails": "%CustomerSeq%\\cmrr_mbep2d_bold",
  "ReceiveCoilActiveElements": "HEA;HEP",
  "ReceiveCoilName": "Head_32",
  "ReconMatrixPE": 82,
  "RepetitionTime": 0.46,
  "SAR": 0.0997711,
  "ScanOptions": "FS",
  "ScanningSequence": "EP",
  "SequenceName": "epfid2d1_82",
  "SequenceVariant": "SK\\SS",
  "SeriesDescription": "func_run-02_task-faces_acq-ap-mb8",
  "SeriesNumber": 20,
  "ShimSetting": [4172, -7758, -7285, 616, 77, -455, 93, 48],
  "SliceThickness": 2.7,
  "SliceTiming": [0, 0.25, 0.0625, 0.315, 0.125, 0.3775, 0.1875, 0, 0.25, 0.0625, 0.315, 0.125, 0.3775, 0.1875, 0, 0.25, 0.0625, 0.315, 0.125, 0.3775, 0.1875, 0, 0.25, 0.0625, 0.315, 0.125, 0.3775, 0.1875, 0, 0.25, 0.0625, 0.315, 0.125, 0.3775, 0.1875, 0, 0.25, 0.0625, 0.315, 0.125, 0.3775, 0.1875, 0, 0.25, 0.0625, 0.315, 0.125, 0.3775, 0.1875, 0, 0.25, 0.0625, 0.315, 0.125, 0.3775, 0.1875],
  "SoftwareVersions": "syngo MR E11",
  "SpacingBetweenSlices": 2.7,
  "StationName": "AWP66112",
  "TaskName": "faces",
  "TotalReadoutTime": 0.03969,
  "TxRefAmp": 236.868,
  "WipMemBlock": "bafc3b54-04d3-42f8-b5d4-155707ea2218||Sequence: R016 ve11e/master r/434b28f1; Aug  7 2019 18:53:46 by eja",
  "dcmmeta_affine": [
    [-2.6750588417053223, 0.15143248438835144, 0.1395367980003357, 102.39361572265625],
    [0.14363239705562592, 2.6748616695404053, -0.15122778713703156, -98.73583221435547],
    [0.14671941101551056, 0.1424078643321991, 2.692147731781006, -92.37532806396484],
    [0.0, 0.0, 0.0, 1.0]
],
  "dcmmeta_reorient_transform": [
    [0.0, -1.0, 0.0, 81.0],
    [1.0, 0.0, 0.0, 0.0],
    [0.0, 0.0, 1.0, 0.0],
    [0.0, 0.0, 0.0, 1.0]
],
  "dcmmeta_shape": [82, 82, 56, 914],
  "dcmmeta_slice_dim": 2,
  "dcmmeta_version": 0.6,
  "global": {
    "const": {
      "AccessionNumber": "A004107",
      "AcquisitionMatrix": [82, 0, 0, 82],
      "AngioFlag": "N",
      "BitsAllocated": 16,
      "BitsStored": 16,
      "BodyPartExamined": "BRAIN",
      "Columns": 656,
      "EchoNumbers": 1,
      "EchoTime": 27.2,
      "EchoTrainLength": 82,
      "FlipAngle": 44.0,
      "HighBit": 15,
      "ImageOrientationPatient": [0.99706736658224, -0.0535357116357, 0.05468632440035, 0.05644301439761, 0.99699386895854, -0.0530792933713],
      "ImagePositionPatient": [-925.86266317271, -844.39075835825, -82.077708152281],
      "ImageType": [
        "ORIGINAL",
        "PRIMARY",
        "M",
        "MB",
        "ND",
        "NORM",
        "MOSAIC"
],
      "ImagedNucleus": "1H",
      "ImagingFrequency": 123.252236,
      "InPlanePhaseEncodingDirection": "COL",
      "MRAcquisitionType": "2D",
      "MagneticFieldStrength": 3.0,
      "Manufacturer": "SIEMENS",
      "ManufacturerModelName": "Prisma",
      "Modality": "MR",
      "NumberOfAverages": 1.0,
      "NumberOfPhaseEncodingSteps": 82,
      "PercentPhaseFieldOfView": 100.0,
      "PercentSampling": 100.0,
      "PerformedProcedureStepStartTime": "124203.350000",
      "PhotometricInterpretation": "MONOCHROME2",
      "PixelBandwidth": 3050.0,
      "PixelRepresentation": 0,
      "PixelSpacing": [2.6829268932343, 2.6829268932343],
      "ProtocolName": "func_run-02_task-faces_acq-ap-mb8",
      "RepetitionTime": 460.0,
      "Rows": 656,
      "SAR": 0.09977106087627,
      "SamplesPerPixel": 1,
      "ScanOptions": "FS",
      "ScanningSequence": "EP",
      "SequenceName": "epfid2d1_82",
      "SequenceVariant": [
        "SK",
        "SS"
],
      "SeriesDescription": "func_run-02_task-faces_acq-ap-mb8",
      "SeriesNumber": 20,
      "SeriesTime": "134445.614000",
      "SliceLocation": -81.284727165421,
      "SliceThickness": 2.7000000476837,
      "SmallestImagePixelValue": 0,
      "SoftwareVersions": "syngo MR E11",
      "SpacingBetweenSlices": 2.7000000525682,
      "SpecificCharacterSet": "ISO_IR 100",
      "StudyID": "2",
      "StudyTime": "124203.241000",
      "TransmitCoilName": "Body",
      "VariableFlipAngleFlag": "N",
      "WindowCenterWidthExplanation": "Algo1"
    },
    "slices": {}
  },
  "time": {
    "samples": {
      "AcquisitionNumber": [1, 2, 3, 4, 5, 6, 7, 8, 9, 10, 11, 12, 13, 14, 15, 16, 17, 18, 19, 20, 21, 22, 23, 24, 25, 26, 27, 28, 29, 30, 31, 32, 33, 34, 35, 36, 37, 38, 39, 40, 41, 42, 43, 44, 45, 46, 47, 48, 49, 50, 51, 52, 53, 54, 55, 56, 57, 58, 59, 60, 61, 62, 63, 64, 65, 66, 67, 68, 69, 70, 71, 72, 73, 74, 75, 76, 77, 78, 79, 80, 81, 82, 83, 84, 85, 86, 87, 88, 89, 90, 91, 92, 93, 94, 95, 96, 97, 98, 99, 100, 101, 102, 103, 104, 105, 106, 107, 108, 109, 110, 111, 112, 113, 114, 115, 116, 117, 118, 119, 120, 121, 122, 123, 124, 125, 126, 127, 128, 129, 130, 131, 132, 133, 134, 135, 136, 137, 138, 139, 140, 141, 142, 143, 144, 145, 146, 147, 148, 149, 150, 151, 152, 153, 154, 155, 156, 157, 158, 159, 160, 161, 162, 163, 164, 165, 166, 167, 168, 169, 170, 171, 172, 173, 174, 175, 176, 177, 178, 179, 180, 181, 182, 183, 184, 185, 186, 187, 188, 189, 190, 191, 192, 193, 194, 195, 196, 197, 198, 199, 200, 201, 202, 203, 204, 205, 206, 207, 208, 209, 210, 211, 212, 213, 214, 215, 216, 217, 218, 219, 220, 221, 222, 223, 224, 225, 226, 227, 228, 229, 230, 231, 232, 233, 234, 235, 236, 237, 238, 239, 240, 241, 242, 243, 244, 245, 246, 247, 248, 249, 250, 251, 252, 253, 254, 255, 256, 257, 258, 259, 260, 261, 262, 263, 264, 265, 266, 267, 268, 269, 270, 271, 272, 273, 274, 275, 276, 277, 278, 279, 280, 281, 282, 283, 284, 285, 286, 287, 288, 289, 290, 291, 292, 293, 294, 295, 296, 297, 298, 299, 300, 301, 302, 303, 304, 305, 306, 307, 308, 309, 310, 311, 312, 313, 314, 315, 316, 317, 318, 319, 320, 321, 322, 323, 324, 325, 326, 327, 328, 329, 330, 331, 332, 333, 334, 335, 336, 337, 338, 339, 340, 341, 342, 343, 344, 345, 346, 347, 348, 349, 350, 351, 352, 353, 354, 355, 356, 357, 358, 359, 360, 361, 362, 363, 364, 365, 366, 367, 368, 369, 370, 371, 372, 373, 374, 375, 376, 377, 378, 379, 380, 381, 382, 383, 384, 385, 386, 387, 388, 389, 390, 391, 392, 393, 394, 395, 396, 397, 398, 399, 400, 401, 402, 403, 404, 405, 406, 407, 408, 409, 410, 411, 412, 413, 414, 415, 416, 417, 418, 419, 420, 421, 422, 423, 424, 425, 426, 427, 428, 429, 430, 431, 432, 433, 434, 435, 436, 437, 438, 439, 440, 441, 442, 443, 444, 445, 446, 447, 448, 449, 450, 451, 452, 453, 454, 455, 456, 457, 458, 459, 460, 461, 462, 463, 464, 465, 466, 467, 468, 469, 470, 471, 472, 473, 474, 475, 476, 477, 478, 479, 480, 481, 482, 483, 484, 485, 486, 487, 488, 489, 490, 491, 492, 493, 494, 495, 496, 497, 498, 499, 500, 501, 502, 503, 504, 505, 506, 507, 508, 509, 510, 511, 512, 513, 514, 515, 516, 517, 518, 519, 520, 521, 522, 523, 524, 525, 526, 527, 528, 529, 530, 531, 532, 533, 534, 535, 536, 537, 538, 539, 540, 541, 542, 543, 544, 545, 546, 547, 548, 549, 550, 551, 552, 553, 554, 555, 556, 557, 558, 559, 560, 561, 562, 563, 564, 565, 566, 567, 568, 569, 570, 571, 572, 573, 574, 575, 576, 577, 578, 579, 580, 581, 582, 583, 584, 585, 586, 587, 588, 589, 590, 591, 592, 593, 594, 595, 596, 597, 598, 599, 600, 601, 602, 603, 604, 605, 606, 607, 608, 609, 610, 611, 612, 613, 614, 615, 616, 617, 618, 619, 620, 621, 622, 623, 624, 625, 626, 627, 628, 629, 630, 631, 632, 633, 634, 635, 636, 637, 638, 639, 640, 641, 642, 643, 644, 645, 646, 647, 648, 649, 650, 651, 652, 653, 654, 655, 656, 657, 658, 659, 660, 661, 662, 663, 664, 665, 666, 667, 668, 669, 670, 671, 672, 673, 674, 675, 676, 677, 678, 679, 680, 681, 682, 683, 684, 685, 686, 687, 688, 689, 690, 691, 692, 693, 694, 695, 696, 697, 698, 699, 700, 701, 702, 703, 704, 705, 706, 707, 708, 709, 710, 711, 712, 713, 714, 715, 716, 717, 718, 719, 720, 721, 722, 723, 724, 725, 726, 727, 728, 729, 730, 731, 732, 733, 734, 735, 736, 737, 738, 739, 740, 741, 742, 743, 744, 745, 746, 747, 748, 749, 750, 751, 752, 753, 754, 755, 756, 757, 758, 759, 760, 761, 762, 763, 764, 765, 766, 767, 768, 769, 770, 771, 772, 773, 774, 775, 776, 777, 778, 779, 780, 781, 782, 783, 784, 785, 786, 787, 788, 789, 790, 791, 792, 793, 794, 795, 796, 797, 798, 799, 800, 801, 802, 803, 804, 805, 806, 807, 808, 809, 810, 811, 812, 813, 814, 815, 816, 817, 818, 819, 820, 821, 822, 823, 824, 825, 826, 827, 828, 829, 830, 831, 832, 833, 834, 835, 836, 837, 838, 839, 840, 841, 842, 843, 844, 845, 846, 847, 848, 849, 850, 851, 852, 853, 854, 855, 856, 857, 858, 859, 860, 861, 862, 863, 864, 865, 866, 867, 868, 869, 870, 871, 872, 873, 874, 875, 876, 877, 878, 879, 880, 881, 882, 883, 884, 885, 886, 887, 888, 889, 890, 891, 892, 893, 894, 895, 896, 897, 898, 899, 900, 901, 902, 903, 904, 905, 906, 907, 908, 909, 910, 911, 912, 913, 914],
      "AcquisitionTime": ["134423.502500", "134423.962500", "134424.422500", "134424.882500", "134425.342500", "134425.802500", "134426.262500", "134426.722500", "134427.182500", "134427.642500", "134428.102500", "134428.562500", "134429.022500", "134429.482500", "134429.942500", "134430.402500", "134430.862500", "134431.322500", "134431.782500", "134432.242500", "134432.702500", "134433.162500", "134433.622500", "134434.082500", "134434.542500", "134435.002500", "134435.462500", "134435.922500", "134436.382500", "134436.842500", "134437.302500", "134437.762500", "134438.222500", "134438.682500", "134439.142500", "134439.602500", "134440.062500", "134440.522500", "134440.982500", "134441.442500", "134441.902500", "134442.362500", "134442.822500", "134443.282500", "134443.742500", "134444.202500", "134444.662500", "134445.122500", "134445.582500", "134446.042500", "134446.502500", "134446.962500", "134447.422500", "134447.882500", "134448.342500", "134448.802500", "134449.262500", "134449.722500", "134450.182500", "134450.642500", "134451.102500", "134451.562500", "134452.022500", "134452.482500", "134452.942500", "134453.402500", "134453.862500", "134454.322500", "134454.782500", "134455.242500", "134455.702500", "134456.162500", "134456.622500", "134457.082500", "134457.542500", "134458.002500", "134458.462500", "134458.922500", "134459.382500", "134459.842500", "134500.302500", "134500.762500", "134501.222500", "134501.682500", "134502.142500", "134502.602500", "134503.062500", "134503.522500", "134503.982500", "134504.442500", "134504.902500", "134505.362500", "134505.822500", "134506.282500", "134506.742500", "134507.202500", "134507.662500", "134508.122500", "134508.582500", "134509.042500", "134509.502500", "134509.962500", "134510.422500", "134510.882500", "134511.342500", "134511.802500", "134512.262500", "134512.722500", "134513.182500", "134513.642500", "134514.102500", "134514.562500", "134515.022500", "134515.482500", "134515.942500", "134516.402500", "134516.862500", "134517.322500", "134517.782500", "134518.242500", "134518.702500", "134519.162500", "134519.622500", "134520.082500", "134520.542500", "134521.002500", "134521.462500", "134521.922500", "134522.382500", "134522.842500", "134523.302500", "134523.762500", "134524.222500", "134524.682500", "134525.142500", "134525.602500", "134526.062500", "134526.522500", "134526.982500", "134527.442500", "134527.902500", "134528.362500", "134528.822500", "134529.282500", "134529.742500", "134530.202500", "134530.662500", "134531.122500", "134531.582500", "134532.042500", "134532.502500", "134532.962500", "134533.422500", "134533.882500", "134534.342500", "134534.802500", "134535.262500", "134535.722500", "134536.182500", "134536.642500", "134537.102500", "134537.562500", "134538.022500", "134538.482500", "134538.942500", "134539.402500", "134539.862500", "134540.322500", "134540.782500", "134541.242500", "134541.702500", "134542.162500", "134542.622500", "134543.082500", "134543.542500", "134544.002500", "134544.462500", "134544.922500", "134545.382500", "134545.842500", "134546.302500", "134546.762500", "134547.222500", "134547.682500", "134548.142500", "134548.602500", "134549.062500", "134549.522500", "134549.982500", "134550.442500", "134550.902500", "134551.362500", "134551.822500", "134552.282500", "134552.742500", "134553.202500", "134553.662500", "134554.122500", "134554.582500", "134555.042500", "134555.502500", "134555.962500", "134556.422500", "134556.882500", "134557.342500", "134557.802500", "134558.262500", "134558.722500", "134559.182500", "134559.642500", "134600.102500", "134600.562500", "134601.022500", "134601.482500", "134601.942500", "134602.402500", "134602.862500", "134603.322500", "134603.782500", "134604.242500", "134604.702500", "134605.162500", "134605.622500", "134606.082500", "134606.542500", "134607.002500", "134607.462500", "134607.922500", "134608.382500", "134608.842500", "134609.302500", "134609.762500", "134610.222500", "134610.682500", "134611.142500", "134611.602500", "134612.062500", "134612.522500", "134612.982500", "134613.442500", "134613.902500", "134614.362500", "134614.822500", "134615.282500", "134615.742500", "134616.202500", "134616.662500", "134617.122500", "134617.582500", "134618.042500", "134618.502500", "134618.962500", "134619.422500", "134619.882500", "134620.342500", "134620.802500", "134621.262500", "134621.722500", "134622.182500", "134622.642500", "134623.102500", "134623.562500", "134624.022500", "134624.482500", "134624.942500", "134625.402500", "134625.862500", "134626.322500", "134626.782500", "134627.242500", "134627.702500", "134628.162500", "134628.622500", "134629.082500", "134629.542500", "134630.002500", "134630.462500", "134630.922500", "134631.382500", "134631.842500", "134632.302500", "134632.762500", "134633.222500", "134633.682500", "134634.142500", "134634.602500", "134635.062500", "134635.522500", "134635.982500", "134636.442500", "134636.902500", "134637.362500", "134637.822500", "134638.282500", "134638.742500", "134639.202500", "134639.662500", "134640.122500", "134640.582500", "134641.042500", "134641.502500", "134641.962500", "134642.422500", "134642.882500", "134643.342500", "134643.802500", "134644.262500", "134644.722500", "134645.182500", "134645.642500", "134646.102500", "134646.562500", "134647.022500", "134647.482500", "134647.942500", "134648.402500", "134648.862500", "134649.322500", "134649.782500", "134650.242500", "134650.702500", "134651.162500", "134651.622500", "134652.082500", "134652.542500", "134653.002500", "134653.462500", "134653.922500", "134654.382500", "134654.842500", "134655.302500", "134655.762500", "134656.222500", "134656.682500", "134657.142500", "134657.602500", "134658.062500", "134658.522500", "134658.982500", "134659.442500", "134659.902500", "134700.362500", "134700.822500", "134701.282500", "134701.742500", "134702.202500", "134702.662500", "134703.122500", "134703.582500", "134704.042500", "134704.502500", "134704.962500", "134705.422500", "134705.882500", "134706.342500", "134706.802500", "134707.262500", "134707.722500", "134708.182500", "134708.642500", "134709.102500", "134709.562500", "134710.022500", "134710.482500", "134710.942500", "134711.402500", "134711.862500", "134712.322500", "134712.782500", "134713.242500", "134713.702500", "134714.162500", "134714.622500", "134715.082500", "134715.542500", "134716.002500", "134716.462500", "134716.922500", "134717.382500", "134717.842500", "134718.302500", "134718.762500", "134719.222500", "134719.682500", "134720.142500", "134720.602500", "134721.062500", "134721.522500", "134721.982500", "134722.442500", "134722.902500", "134723.362500", "134723.822500", "134724.282500", "134724.742500", "134725.202500", "134725.662500", "134726.122500", "134726.582500", "134727.042500", "134727.502500", "134727.962500", "134728.422500", "134728.882500", "134729.342500", "134729.802500", "134730.262500", "134730.722500", "134731.182500", "134731.642500", "134732.102500", "134732.562500", "134733.022500", "134733.482500", "134733.942500", "134734.402500", "134734.862500", "134735.322500", "134735.782500", "134736.242500", "134736.702500", "134737.162500", "134737.622500", "134738.082500", "134738.542500", "134739.002500", "134739.462500", "134739.922500", "134740.382500", "134740.842500", "134741.302500", "134741.762500", "134742.222500", "134742.682500", "134743.142500", "134743.602500", "134744.062500", "134744.522500", "134744.982500", "134745.442500", "134745.902500", "134746.362500", "134746.822500", "134747.282500", "134747.742500", "134748.202500", "134748.662500", "134749.122500", "134749.582500", "134750.042500", "134750.502500", "134750.962500", "134751.422500", "134751.882500", "134752.342500", "134752.802500", "134753.262500", "134753.722500", "134754.182500", "134754.642500", "134755.102500", "134755.562500", "134756.022500", "134756.482500", "134756.942500", "134757.402500", "134757.862500", "134758.322500", "134758.782500", "134759.242500", "134759.702500", "134800.162500", "134800.622500", "134801.082500", "134801.542500", "134802.002500", "134802.462500", "134802.922500", "134803.382500", "134803.842500", "134804.302500", "134804.762500", "134805.222500", "134805.682500", "134806.142500", "134806.602500", "134807.062500", "134807.522500", "134807.982500", "134808.442500", "134808.902500", "134809.362500", "134809.822500", "134810.282500", "134810.742500", "134811.202500", "134811.662500", "134812.122500", "134812.582500", "134813.042500", "134813.502500", "134813.962500", "134814.422500", "134814.882500", "134815.342500", "134815.802500", "134816.262500", "134816.722500", "134817.182500", "134817.642500", "134818.102500", "134818.562500", "134819.022500", "134819.482500", "134819.942500", "134820.402500", "134820.862500", "134821.322500", "134821.782500", "134822.242500", "134822.702500", "134823.162500", "134823.622500", "134824.082500", "134824.542500", "134825.002500", "134825.462500", "134825.922500", "134826.382500", "134826.842500", "134827.302500", "134827.762500", "134828.222500", "134828.682500", "134829.142500", "134829.602500", "134830.062500", "134830.522500", "134830.982500", "134831.442500", "134831.902500", "134832.362500", "134832.822500", "134833.282500", "134833.742500", "134834.202500", "134834.662500", "134835.122500", "134835.582500", "134836.042500", "134836.502500", "134836.962500", "134837.422500", "134837.882500", "134838.342500", "134838.802500", "134839.262500", "134839.722500", "134840.182500", "134840.642500", "134841.102500", "134841.562500", "134842.022500", "134842.482500", "134842.942500", "134843.402500", "134843.862500", "134844.322500", "134844.782500", "134845.242500", "134845.702500", "134846.162500", "134846.622500", "134847.082500", "134847.542500", "134848.002500", "134848.462500", "134848.922500", "134849.382500", "134849.842500", "134850.302500", "134850.762500", "134851.222500", "134851.682500", "134852.142500", "134852.602500", "134853.062500", "134853.522500", "134853.982500", "134854.442500", "134854.902500", "134855.362500", "134855.822500", "134856.282500", "134856.742500", "134857.202500", "134857.662500", "134858.122500", "134858.582500", "134859.042500", "134859.502500", "134859.962500", "134900.422500", "134900.882500", "134901.342500", "134901.802500", "134902.262500", "134902.722500", "134903.182500", "134903.642500", "134904.102500", "134904.562500", "134905.022500", "134905.482500", "134905.942500", "134906.402500", "134906.862500", "134907.322500", "134907.782500", "134908.242500", "134908.702500", "134909.162500", "134909.622500", "134910.082500", "134910.542500", "134911.002500", "134911.462500", "134911.922500", "134912.382500", "134912.842500", "134913.302500", "134913.762500", "134914.222500", "134914.682500", "134915.142500", "134915.602500", "134916.062500", "134916.522500", "134916.982500", "134917.442500", "134917.902500", "134918.362500", "134918.822500", "134919.282500", "134919.742500", "134920.202500", "134920.662500", "134921.122500", "134921.582500", "134922.042500", "134922.502500", "134922.962500", "134923.422500", "134923.882500", "134924.342500", "134924.802500", "134925.262500", "134925.722500", "134926.182500", "134926.642500", "134927.102500", "134927.562500", "134928.022500", "134928.482500", "134928.942500", "134929.402500", "134929.862500", "134930.322500", "134930.782500", "134931.242500", "134931.702500", "134932.162500", "134932.622500", "134933.082500", "134933.542500", "134934.002500", "134934.462500", "134934.922500", "134935.382500", "134935.842500", "134936.302500", "134936.762500", "134937.222500", "134937.682500", "134938.142500", "134938.602500", "134939.062500", "134939.522500", "134939.982500", "134940.442500", "134940.902500", "134941.362500", "134941.822500", "134942.282500", "134942.742500", "134943.202500", "134943.662500", "134944.122500", "134944.582500", "134945.042500", "134945.502500", "134945.962500", "134946.422500", "134946.882500", "134947.342500", "134947.802500", "134948.262500", "134948.722500", "134949.182500", "134949.642500", "134950.102500", "134950.562500", "134951.022500", "134951.482500", "134951.942500", "134952.402500", "134952.862500", "134953.322500", "134953.782500", "134954.242500", "134954.702500", "134955.162500", "134955.622500", "134956.082500", "134956.542500", "134957.002500", "134957.462500", "134957.922500", "134958.382500", "134958.842500", "134959.302500", "134959.762500", "135000.222500", "135000.682500", "135001.142500", "135001.602500", "135002.062500", "135002.522500", "135002.982500", "135003.442500", "135003.902500", "135004.362500", "135004.822500", "135005.282500", "135005.742500", "135006.202500", "135006.662500", "135007.122500", "135007.582500", "135008.042500", "135008.502500", "135008.962500", "135009.422500", "135009.882500", "135010.342500", "135010.802500", "135011.262500", "135011.722500", "135012.182500", "135012.642500", "135013.102500", "135013.562500", "135014.022500", "135014.482500", "135014.942500", "135015.402500", "135015.862500", "135016.322500", "135016.782500", "135017.242500", "135017.702500", "135018.162500", "135018.622500", "135019.082500", "135019.542500", "135020.002500", "135020.462500", "135020.922500", "135021.382500", "135021.842500", "135022.302500", "135022.762500", "135023.222500", "135023.682500", "135024.142500", "135024.602500", "135025.062500", "135025.522500", "135025.982500", "135026.442500", "135026.902500", "135027.362500", "135027.822500", "135028.282500", "135028.742500", "135029.202500", "135029.662500", "135030.122500", "135030.582500", "135031.042500", "135031.502500", "135031.962500", "135032.422500", "135032.882500", "135033.342500", "135033.802500", "135034.262500", "135034.722500", "135035.182500", "135035.642500", "135036.102500", "135036.562500", "135037.022500", "135037.482500", "135037.942500", "135038.402500", "135038.862500", "135039.322500", "135039.782500", "135040.242500", "135040.702500", "135041.162500", "135041.622500", "135042.082500", "135042.542500", "135043.002500", "135043.462500", "135043.922500", "135044.382500", "135044.842500", "135045.302500", "135045.762500", "135046.222500", "135046.682500", "135047.142500", "135047.602500", "135048.062500", "135048.522500", "135048.982500", "135049.442500", "135049.902500", "135050.362500", "135050.822500", "135051.282500", "135051.742500", "135052.202500", "135052.662500", "135053.122500", "135053.582500", "135054.042500", "135054.502500", "135054.962500", "135055.422500", "135055.882500", "135056.342500", "135056.802500", "135057.262500", "135057.722500", "135058.182500", "135058.642500", "135059.102500", "135059.562500", "135100.022500", "135100.482500", "135100.942500", "135101.402500", "135101.862500", "135102.322500", "135102.782500", "135103.242500", "135103.702500", "135104.162500", "135104.622500", "135105.082500", "135105.542500", "135106.002500", "135106.462500", "135106.922500", "135107.382500", "135107.842500", "135108.302500", "135108.762500", "135109.222500", "135109.682500", "135110.142500", "135110.602500", "135111.062500", "135111.522500", "135111.982500", "135112.442500", "135112.902500", "135113.362500", "135113.822500", "135114.282500", "135114.742500", "135115.202500", "135115.662500", "135116.122500", "135116.582500", "135117.042500", "135117.502500", "135117.962500", "135118.422500", "135118.882500", "135119.342500", "135119.802500", "135120.262500", "135120.722500", "135121.182500", "135121.642500", "135122.102500", "135122.562500", "135123.022500", "135123.482500"],
