{
  "AcquisitionMatrixPE": 82,
  "AcquisitionNumber": 1,
  "AcquisitionTime": "14:01:50.290000",
  "BandwidthPerPixelPhaseEncode": 24.888,
  "BaseResolution": 82,
  "BodyPartExamined": "BRAIN",
  "ConsistencyInfo": "N4_VE11E_LATEST_20181129",
  "ConversionSoftware": "dcm2niix",
  "ConversionSoftwareVersion": "v1.0.20201102",
  "DerivedVendorReportedEchoSpacing": 0.00049,
  "DeviceSerialNumber": "66112",
  "DwellTime": 2e-06,
  "EchoTime": 0.0272,
  "EchoTrainLength": 82,
  "EffectiveEchoSpacing": 0.00049,
  "FlipAngle": 44,
  "ImageComments": "Unaliased MB8/PE3",
  "ImageOrientationPatientDICOM": [0.995734, -0.0765846, 0.0514655, 0.0776665, 0.996791, -0.0193597],
  "ImageType": [
    "ORIGINAL",
    "PRIMARY",
    "M",
    "MB",
    "ND",
    "NORM",
    "MOSAIC"
],
  "ImagingFrequency": 123.252,
  "InPlanePhaseEncodingDirectionDICOM": "COL",
  "InstitutionAddress": "Maynard 3,Hanover,NH,US,03755",
  "InstitutionName": "Dartmouth College - PBS",
  "InstitutionalDepartmentName": "Department",
  "MRAcquisitionType": "2D",
  "MagneticFieldStrength": 3,
  "Manufacturer": "Siemens",
  "ManufacturersModelName": "Prisma",
  "Modality": "MR",
  "MultibandAccelerationFactor": 8,
  "PartialFourier": 1,
  "PatientPosition": "HFS",
  "PercentPhaseFOV": 100,
  "PercentSampling": 100,
  "PhaseEncodingDirection": "j-",
  "PhaseEncodingSteps": 82,
  "PhaseResolution": 1,
  "PixelBandwidth": 3050,
  "ProcedureStepDescription": "Wager_Wager^1076_spacetop",
  "ProtocolName": "func_run-01_task-alignvideo_acq-ap-mb8",
  "PulseSequenceDetails": "%CustomerSeq%\\cmrr_mbep2d_bold",
  "ReceiveCoilActiveElements": "HEA;HEP",
  "ReceiveCoilName": "Head_32",
  "ReconMatrixPE": 82,
  "RepetitionTime": 0.46,
  "SAR": 0.0997183,
  "ScanOptions": "FS",
  "ScanningSequence": "EP",
  "SequenceName": "epfid2d1_82",
  "SequenceVariant": "SK\\SS",
  "SeriesDescription": "func_run-01_task-alignvideo_acq-ap-mb8",
  "SeriesNumber": 30,
  "ShimSetting": [4172, -7758, -7285, 600, 81, -476, 97, 47],
  "SliceThickness": 2.7,
  "SliceTiming": [0, 0.25, 0.0625, 0.315, 0.125, 0.3775, 0.1875, 0, 0.25, 0.0625, 0.315, 0.125, 0.3775, 0.1875, 0, 0.25, 0.0625, 0.315, 0.125, 0.3775, 0.1875, 0, 0.25, 0.0625, 0.315, 0.125, 0.3775, 0.1875, 0, 0.25, 0.0625, 0.315, 0.125, 0.3775, 0.1875, 0, 0.25, 0.0625, 0.315, 0.125, 0.3775, 0.1875, 0, 0.25, 0.0625, 0.315, 0.125, 0.3775, 0.1875, 0, 0.25, 0.0625, 0.315, 0.125, 0.3775, 0.1875],
  "SoftwareVersions": "syngo MR E11",
  "SpacingBetweenSlices": 2.7,
  "StationName": "AWP66112",
  "TaskName": "alignvideo",
  "TotalReadoutTime": 0.03969,
  "TxRefAmp": 236.868,
  "WipMemBlock": "cc0a900f-5f33-411d-b756-a94636b7fbb9||Sequence: R016 ve11e/master r/434b28f1; Aug  7 2019 18:53:46 by eja",
  "dcmmeta_affine": [
    [-2.6714813709259033, 0.20837365090847015, 0.13450782001018524, 99.62648010253906],
    [0.20547083020210266, 2.674318552017212, -0.06284060329198837, -108.45606994628906],
    [0.13807816803455353, 0.05194076523184776, 2.6959152221679688, -93.50212860107422],
    [0.0, 0.0, 0.0, 1.0]
],
  "dcmmeta_reorient_transform": [
    [0.0, -1.0, 0.0, 81.0],
    [1.0, 0.0, 0.0, 0.0],
    [0.0, 0.0, 1.0, 0.0],
    [0.0, 0.0, 0.0, 1.0]
],
  "dcmmeta_shape": [82, 82, 56, 839],
  "dcmmeta_slice_dim": 2,
  "dcmmeta_version": 0.6,
  "global": {
    "const": {
      "AccessionNumber": "A004107",
      "AcquisitionMatrix": [82, 0, 0, 82],
      "AngioFlag": "N",
      "BitsAllocated": 16,
      "BitsStored": 16,
      "BodyPartExamined": "BRAIN",
      "Columns": 656,
      "EchoNumbers": 1,
      "EchoTime": 27.2,
      "EchoTrainLength": 82,
      "FlipAngle": 44.0,
      "HighBit": 15,
      "ImageOrientationPatient": [0.99573395261076, -0.0765845802584, 0.05146549994708, 0.07766653929737, 0.9967914070557, -0.0193597389829],
      "ImagePositionPatient": [-943.02314604616, -816.72299873966, -114.01636072733],
      "ImageType": [
        "ORIGINAL",
        "PRIMARY",
        "M",
        "MB",
        "ND",
        "NORM",
        "MOSAIC"
],
      "ImagedNucleus": "1H",
      "ImagingFrequency": 123.252241,
      "InPlanePhaseEncodingDirection": "COL",
      "MRAcquisitionType": "2D",
      "MagneticFieldStrength": 3.0,
      "Manufacturer": "SIEMENS",
      "ManufacturerModelName": "Prisma",
      "Modality": "MR",
      "NumberOfAverages": 1.0,
      "NumberOfPhaseEncodingSteps": 82,
      "PercentPhaseFieldOfView": 100.0,
      "PercentSampling": 100.0,
      "PerformedProcedureStepStartTime": "124203.350000",
      "PhotometricInterpretation": "MONOCHROME2",
      "PixelBandwidth": 3050.0,
      "PixelRepresentation": 0,
      "PixelSpacing": [2.6829268932343, 2.6829268932343],
      "ProtocolName": "func_run-01_task-alignvideo_acq-ap-mb8",
      "RepetitionTime": 460.0,
      "Rows": 656,
      "SAR": 0.09971826114281,
      "SamplesPerPixel": 1,
      "ScanOptions": "FS",
      "ScanningSequence": "EP",
      "SequenceName": "epfid2d1_82",
      "SequenceVariant": [
        "SK",
        "SS"
],
      "SeriesDescription": "func_run-01_task-alignvideo_acq-ap-mb8",
      "SeriesNumber": 30,
      "SeriesTime": "140205.550000",
      "SliceLocation": -85.873265360026,
      "SliceThickness": 2.7000000476837,
      "SmallestImagePixelValue": 0,
      "SoftwareVersions": "syngo MR E11",
      "SpacingBetweenSlices": 2.6999999637644,
      "SpecificCharacterSet": "ISO_IR 100",
      "StudyID": "2",
      "StudyTime": "124203.241000",
      "TransmitCoilName": "Body",
      "VariableFlipAngleFlag": "N",
      "WindowCenterWidthExplanation": "Algo1"
    },
    "slices": {}
  },
  "time": {
    "samples": {
      "AcquisitionNumber": [1, 2, 3, 4, 5, 6, 7, 8, 9, 10, 11, 12, 13, 14, 15, 16, 17, 18, 19, 20, 21, 22, 23, 24, 25, 26, 27, 28, 29, 30, 31, 32, 33, 34, 35, 36, 37, 38, 39, 40, 41, 42, 43, 44, 45, 46, 47, 48, 49, 50, 51, 52, 53, 54, 55, 56, 57, 58, 59, 60, 61, 62, 63, 64, 65, 66, 67, 68, 69, 70, 71, 72, 73, 74, 75, 76, 77, 78, 79, 80, 81, 82, 83, 84, 85, 86, 87, 88, 89, 90, 91, 92, 93, 94, 95, 96, 97, 98, 99, 100, 101, 102, 103, 104, 105, 106, 107, 108, 109, 110, 111, 112, 113, 114, 115, 116, 117, 118, 119, 120, 121, 122, 123, 124, 125, 126, 127, 128, 129, 130, 131, 132, 133, 134, 135, 136, 137, 138, 139, 140, 141, 142, 143, 144, 145, 146, 147, 148, 149, 150, 151, 152, 153, 154, 155, 156, 157, 158, 159, 160, 161, 162, 163, 164, 165, 166, 167, 168, 169, 170, 171, 172, 173, 174, 175, 176, 177, 178, 179, 180, 181, 182, 183, 184, 185, 186, 187, 188, 189, 190, 191, 192, 193, 194, 195, 196, 197, 198, 199, 200, 201, 202, 203, 204, 205, 206, 207, 208, 209, 210, 211, 212, 213, 214, 215, 216, 217, 218, 219, 220, 221, 222, 223, 224, 225, 226, 227, 228, 229, 230, 231, 232, 233, 234, 235, 236, 237, 238, 239, 240, 241, 242, 243, 244, 245, 246, 247, 248, 249, 250, 251, 252, 253, 254, 255, 256, 257, 258, 259, 260, 261, 262, 263, 264, 265, 266, 267, 268, 269, 270, 271, 272, 273, 274, 275, 276, 277, 278, 279, 280, 281, 282, 283, 284, 285, 286, 287, 288, 289, 290, 291, 292, 293, 294, 295, 296, 297, 298, 299, 300, 301, 302, 303, 304, 305, 306, 307, 308, 309, 310, 311, 312, 313, 314, 315, 316, 317, 318, 319, 320, 321, 322, 323, 324, 325, 326, 327, 328, 329, 330, 331, 332, 333, 334, 335, 336, 337, 338, 339, 340, 341, 342, 343, 344, 345, 346, 347, 348, 349, 350, 351, 352, 353, 354, 355, 356, 357, 358, 359, 360, 361, 362, 363, 364, 365, 366, 367, 368, 369, 370, 371, 372, 373, 374, 375, 376, 377, 378, 379, 380, 381, 382, 383, 384, 385, 386, 387, 388, 389, 390, 391, 392, 393, 394, 395, 396, 397, 398, 399, 400, 401, 402, 403, 404, 405, 406, 407, 408, 409, 410, 411, 412, 413, 414, 415, 416, 417, 418, 419, 420, 421, 422, 423, 424, 425, 426, 427, 428, 429, 430, 431, 432, 433, 434, 435, 436, 437, 438, 439, 440, 441, 442, 443, 444, 445, 446, 447, 448, 449, 450, 451, 452, 453, 454, 455, 456, 457, 458, 459, 460, 461, 462, 463, 464, 465, 466, 467, 468, 469, 470, 471, 472, 473, 474, 475, 476, 477, 478, 479, 480, 481, 482, 483, 484, 485, 486, 487, 488, 489, 490, 491, 492, 493, 494, 495, 496, 497, 498, 499, 500, 501, 502, 503, 504, 505, 506, 507, 508, 509, 510, 511, 512, 513, 514, 515, 516, 517, 518, 519, 520, 521, 522, 523, 524, 525, 526, 527, 528, 529, 530, 531, 532, 533, 534, 535, 536, 537, 538, 539, 540, 541, 542, 543, 544, 545, 546, 547, 548, 549, 550, 551, 552, 553, 554, 555, 556, 557, 558, 559, 560, 561, 562, 563, 564, 565, 566, 567, 568, 569, 570, 571, 572, 573, 574, 575, 576, 577, 578, 579, 580, 581, 582, 583, 584, 585, 586, 587, 588, 589, 590, 591, 592, 593, 594, 595, 596, 597, 598, 599, 600, 601, 602, 603, 604, 605, 606, 607, 608, 609, 610, 611, 612, 613, 614, 615, 616, 617, 618, 619, 620, 621, 622, 623, 624, 625, 626, 627, 628, 629, 630, 631, 632, 633, 634, 635, 636, 637, 638, 639, 640, 641, 642, 643, 644, 645, 646, 647, 648, 649, 650, 651, 652, 653, 654, 655, 656, 657, 658, 659, 660, 661, 662, 663, 664, 665, 666, 667, 668, 669, 670, 671, 672, 673, 674, 675, 676, 677, 678, 679, 680, 681, 682, 683, 684, 685, 686, 687, 688, 689, 690, 691, 692, 693, 694, 695, 696, 697, 698, 699, 700, 701, 702, 703, 704, 705, 706, 707, 708, 709, 710, 711, 712, 713, 714, 715, 716, 717, 718, 719, 720, 721, 722, 723, 724, 725, 726, 727, 728, 729, 730, 731, 732, 733, 734, 735, 736, 737, 738, 739, 740, 741, 742, 743, 744, 745, 746, 747, 748, 749, 750, 751, 752, 753, 754, 755, 756, 757, 758, 759, 760, 761, 762, 763, 764, 765, 766, 767, 768, 769, 770, 771, 772, 773, 774, 775, 776, 777, 778, 779, 780, 781, 782, 783, 784, 785, 786, 787, 788, 789, 790, 791, 792, 793, 794, 795, 796, 797, 798, 799, 800, 801, 802, 803, 804, 805, 806, 807, 808, 809, 810, 811, 812, 813, 814, 815, 816, 817, 818, 819, 820, 821, 822, 823, 824, 825, 826, 827, 828, 829, 830, 831, 832, 833, 834, 835, 836, 837, 838, 839],
      "AcquisitionTime": ["140150.290000", "140150.750000", "140151.210000", "140151.670000", "140152.130000", "140152.590000", "140153.050000", "140153.510000", "140153.970000", "140154.430000", "140154.890000", "140155.350000", "140155.810000", "140156.270000", "140156.730000", "140157.190000", "140157.650000", "140158.110000", "140158.570000", "140159.030000", "140159.490000", "140159.950000", "140200.410000", "140200.870000", "140201.330000", "140201.790000", "140202.250000", "140202.710000", "140203.170000", "140203.630000", "140204.090000", "140204.550000", "140205.010000", "140205.470000", "140205.930000", "140206.390000", "140206.850000", "140207.310000", "140207.770000", "140208.230000", "140208.690000", "140209.150000", "140209.610000", "140210.070000", "140210.530000", "140210.990000", "140211.450000", "140211.910000", "140212.370000", "140212.830000", "140213.290000", "140213.750000", "140214.210000", "140214.670000", "140215.130000", "140215.590000", "140216.050000", "140216.510000", "140216.970000", "140217.430000", "140217.890000", "140218.350000", "140218.810000", "140219.270000", "140219.730000", "140220.190000", "140220.650000", "140221.110000", "140221.570000", "140222.030000", "140222.490000", "140222.950000", "140223.410000", "140223.870000", "140224.330000", "140224.790000", "140225.250000", "140225.710000", "140226.170000", "140226.630000", "140227.090000", "140227.550000", "140228.010000", "140228.470000", "140228.930000", "140229.390000", "140229.850000", "140230.310000", "140230.770000", "140231.230000", "140231.690000", "140232.150000", "140232.610000", "140233.070000", "140233.530000", "140233.990000", "140234.450000", "140234.910000", "140235.370000", "140235.830000", "140236.290000", "140236.750000", "140237.210000", "140237.670000", "140238.130000", "140238.590000", "140239.050000", "140239.510000", "140239.970000", "140240.430000", "140240.890000", "140241.350000", "140241.810000", "140242.270000", "140242.730000", "140243.190000", "140243.650000", "140244.110000", "140244.570000", "140245.030000", "140245.490000", "140245.950000", "140246.410000", "140246.870000", "140247.330000", "140247.790000", "140248.250000", "140248.710000", "140249.170000", "140249.630000", "140250.090000", "140250.550000", "140251.010000", "140251.470000", "140251.930000", "140252.390000", "140252.850000", "140253.310000", "140253.770000", "140254.230000", "140254.690000", "140255.150000", "140255.610000", "140256.070000", "140256.530000", "140256.990000", "140257.450000", "140257.910000", "140258.370000", "140258.830000", "140259.290000", "140259.750000", "140300.210000", "140300.670000", "140301.130000", "140301.590000", "140302.050000", "140302.510000", "140302.970000", "140303.430000", "140303.890000", "140304.350000", "140304.810000", "140305.270000", "140305.730000", "140306.190000", "140306.650000", "140307.110000", "140307.570000", "140308.030000", "140308.490000", "140308.950000", "140309.410000", "140309.870000", "140310.330000", "140310.790000", "140311.250000", "140311.710000", "140312.170000", "140312.630000", "140313.090000", "140313.550000", "140314.010000", "140314.470000", "140314.930000", "140315.390000", "140315.850000", "140316.310000", "140316.770000", "140317.230000", "140317.690000", "140318.150000", "140318.610000", "140319.070000", "140319.530000", "140319.990000", "140320.450000", "140320.910000", "140321.370000", "140321.830000", "140322.290000", "140322.750000", "140323.210000", "140323.670000", "140324.130000", "140324.590000", "140325.050000", "140325.510000", "140325.970000", "140326.430000", "140326.890000", "140327.350000", "140327.810000", "140328.270000", "140328.730000", "140329.190000", "140329.650000", "140330.110000", "140330.570000", "140331.030000", "140331.490000", "140331.950000", "140332.410000", "140332.870000", "140333.330000", "140333.790000", "140334.250000", "140334.710000", "140335.170000", "140335.630000", "140336.090000", "140336.550000", "140337.010000", "140337.470000", "140337.930000", "140338.390000", "140338.850000", "140339.310000", "140339.770000", "140340.230000", "140340.690000", "140341.150000", "140341.610000", "140342.070000", "140342.530000", "140342.990000", "140343.450000", "140343.910000", "140344.370000", "140344.830000", "140345.290000", "140345.750000", "140346.210000", "140346.670000", "140347.130000", "140347.590000", "140348.050000", "140348.510000", "140348.970000", "140349.430000", "140349.890000", "140350.350000", "140350.810000", "140351.270000", "140351.730000", "140352.190000", "140352.650000", "140353.110000", "140353.570000", "140354.030000", "140354.490000", "140354.950000", "140355.410000", "140355.870000", "140356.330000", "140356.790000", "140357.250000", "140357.710000", "140358.170000", "140358.630000", "140359.090000", "140359.550000", "140400.010000", "140400.470000", "140400.930000", "140401.390000", "140401.850000", "140402.310000", "140402.770000", "140403.230000", "140403.690000", "140404.150000", "140404.610000", "140405.070000", "140405.530000", "140405.990000", "140406.450000", "140406.910000", "140407.370000", "140407.830000", "140408.290000", "140408.750000", "140409.210000", "140409.670000", "140410.130000", "140410.590000", "140411.050000", "140411.510000", "140411.970000", "140412.430000", "140412.890000", "140413.350000", "140413.810000", "140414.270000", "140414.730000", "140415.190000", "140415.650000", "140416.110000", "140416.570000", "140417.030000", "140417.490000", "140417.950000", "140418.410000", "140418.870000", "140419.330000", "140419.790000", "140420.250000", "140420.710000", "140421.170000", "140421.630000", "140422.090000", "140422.550000", "140423.010000", "140423.470000", "140423.930000", "140424.390000", "140424.850000", "140425.310000", "140425.770000", "140426.230000", "140426.690000", "140427.150000", "140427.610000", "140428.070000", "140428.530000", "140428.990000", "140429.450000", "140429.910000", "140430.370000", "140430.830000", "140431.290000", "140431.750000", "140432.210000", "140432.670000", "140433.130000", "140433.590000", "140434.050000", "140434.510000", "140434.970000", "140435.430000", "140435.890000", "140436.350000", "140436.810000", "140437.270000", "140437.730000", "140438.190000", "140438.650000", "140439.110000", "140439.570000", "140440.030000", "140440.490000", "140440.950000", "140441.410000", "140441.870000", "140442.330000", "140442.790000", "140443.250000", "140443.710000", "140444.170000", "140444.630000", "140445.090000", "140445.550000", "140446.010000", "140446.470000", "140446.930000", "140447.390000", "140447.850000", "140448.310000", "140448.770000", "140449.230000", "140449.690000", "140450.150000", "140450.610000", "140451.070000", "140451.530000", "140451.990000", "140452.450000", "140452.910000", "140453.370000", "140453.830000", "140454.290000", "140454.750000", "140455.210000", "140455.670000", "140456.130000", "140456.590000", "140457.050000", "140457.510000", "140457.970000", "140458.430000", "140458.890000", "140459.350000", "140459.810000", "140500.270000", "140500.730000", "140501.190000", "140501.650000", "140502.110000", "140502.570000", "140503.030000", "140503.490000", "140503.950000", "140504.410000", "140504.870000", "140505.330000", "140505.790000", "140506.250000", "140506.710000", "140507.170000", "140507.630000", "140508.090000", "140508.550000", "140509.010000", "140509.470000", "140509.930000", "140510.390000", "140510.850000", "140511.310000", "140511.770000", "140512.230000", "140512.690000", "140513.150000", "140513.610000", "140514.070000", "140514.530000", "140514.990000", "140515.450000", "140515.910000", "140516.370000", "140516.830000", "140517.290000", "140517.750000", "140518.210000", "140518.670000", "140519.130000", "140519.590000", "140520.050000", "140520.510000", "140520.970000", "140521.430000", "140521.890000", "140522.350000", "140522.810000", "140523.270000", "140523.730000", "140524.190000", "140524.650000", "140525.110000", "140525.570000", "140526.030000", "140526.490000", "140526.950000", "140527.410000", "140527.870000", "140528.330000", "140528.790000", "140529.250000", "140529.710000", "140530.170000", "140530.630000", "140531.090000", "140531.550000", "140532.010000", "140532.470000", "140532.930000", "140533.390000", "140533.850000", "140534.310000", "140534.770000", "140535.230000", "140535.690000", "140536.150000", "140536.610000", "140537.070000", "140537.530000", "140537.990000", "140538.450000", "140538.910000", "140539.370000", "140539.830000", "140540.290000", "140540.750000", "140541.210000", "140541.670000", "140542.130000", "140542.590000", "140543.050000", "140543.510000", "140543.970000", "140544.430000", "140544.890000", "140545.350000", "140545.810000", "140546.270000", "140546.730000", "140547.190000", "140547.650000", "140548.110000", "140548.570000", "140549.030000", "140549.490000", "140549.950000", "140550.410000", "140550.870000", "140551.330000", "140551.790000", "140552.250000", "140552.710000", "140553.170000", "140553.630000", "140554.090000", "140554.550000", "140555.010000", "140555.470000", "140555.930000", "140556.390000", "140556.850000", "140557.310000", "140557.770000", "140558.230000", "140558.690000", "140559.150000", "140559.610000", "140600.070000", "140600.530000", "140600.990000", "140601.450000", "140601.910000", "140602.370000", "140602.830000", "140603.290000", "140603.750000", "140604.210000", "140604.670000", "140605.130000", "140605.590000", "140606.050000", "140606.510000", "140606.970000", "140607.430000", "140607.890000", "140608.350000", "140608.810000", "140609.270000", "140609.730000", "140610.190000", "140610.650000", "140611.110000", "140611.570000", "140612.030000", "140612.490000", "140612.950000", "140613.410000", "140613.870000", "140614.330000", "140614.790000", "140615.250000", "140615.710000", "140616.170000", "140616.630000", "140617.090000", "140617.550000", "140618.010000", "140618.470000", "140618.930000", "140619.390000", "140619.850000", "140620.310000", "140620.770000", "140621.230000", "140621.690000", "140622.150000", "140622.610000", "140623.070000", "140623.530000", "140623.990000", "140624.450000", "140624.910000", "140625.370000", "140625.830000", "140626.290000", "140626.750000", "140627.210000", "140627.670000", "140628.130000", "140628.590000", "140629.050000", "140629.510000", "140629.970000", "140630.430000", "140630.890000", "140631.350000", "140631.810000", "140632.270000", "140632.730000", "140633.190000", "140633.650000", "140634.110000", "140634.570000", "140635.030000", "140635.490000", "140635.950000", "140636.410000", "140636.870000", "140637.330000", "140637.790000", "140638.250000", "140638.710000", "140639.170000", "140639.630000", "140640.090000", "140640.550000", "140641.010000", "140641.470000", "140641.930000", "140642.390000", "140642.850000", "140643.310000", "140643.770000", "140644.230000", "140644.690000", "140645.150000", "140645.610000", "140646.070000", "140646.530000", "140646.990000", "140647.450000", "140647.910000", "140648.370000", "140648.830000", "140649.290000", "140649.750000", "140650.210000", "140650.670000", "140651.130000", "140651.590000", "140652.050000", "140652.510000", "140652.970000", "140653.430000", "140653.890000", "140654.350000", "140654.810000", "140655.270000", "140655.730000", "140656.190000", "140656.650000", "140657.110000", "140657.570000", "140658.030000", "140658.490000", "140658.950000", "140659.410000", "140659.870000", "140700.330000", "140700.790000", "140701.250000", "140701.710000", "140702.170000", "140702.630000", "140703.090000", "140703.550000", "140704.010000", "140704.470000", "140704.930000", "140705.390000", "140705.850000", "140706.310000", "140706.770000", "140707.230000", "140707.690000", "140708.150000", "140708.610000", "140709.070000", "140709.530000", "140709.990000", "140710.450000", "140710.910000", "140711.370000", "140711.830000", "140712.290000", "140712.750000", "140713.210000", "140713.670000", "140714.130000", "140714.590000", "140715.050000", "140715.510000", "140715.970000", "140716.430000", "140716.890000", "140717.350000", "140717.810000", "140718.270000", "140718.730000", "140719.190000", "140719.650000", "140720.110000", "140720.570000", "140721.030000", "140721.490000", "140721.950000", "140722.410000", "140722.870000", "140723.330000", "140723.790000", "140724.250000", "140724.710000", "140725.170000", "140725.630000", "140726.090000", "140726.550000", "140727.010000", "140727.470000", "140727.930000", "140728.390000", "140728.850000", "140729.310000", "140729.770000", "140730.230000", "140730.690000", "140731.150000", "140731.610000", "140732.070000", "140732.530000", "140732.990000", "140733.450000", "140733.910000", "140734.370000", "140734.830000", "140735.290000", "140735.750000", "140736.210000", "140736.670000", "140737.130000", "140737.590000", "140738.050000", "140738.510000", "140738.970000", "140739.430000", "140739.890000", "140740.350000", "140740.810000", "140741.270000", "140741.730000", "140742.190000", "140742.650000", "140743.110000", "140743.570000", "140744.030000", "140744.490000", "140744.950000", "140745.410000", "140745.870000", "140746.330000", "140746.790000", "140747.250000", "140747.710000", "140748.170000", "140748.630000", "140749.090000", "140749.550000", "140750.010000", "140750.470000", "140750.930000", "140751.390000", "140751.850000", "140752.310000", "140752.770000", "140753.230000", "140753.690000", "140754.150000", "140754.610000", "140755.070000", "140755.530000", "140755.990000", "140756.450000", "140756.910000", "140757.370000", "140757.830000", "140758.290000", "140758.750000", "140759.210000", "140759.670000", "140800.130000", "140800.590000", "140801.050000", "140801.510000", "140801.970000", "140802.430000", "140802.890000", "140803.350000", "140803.810000", "140804.270000", "140804.730000", "140805.190000", "140805.650000", "140806.110000", "140806.570000", "140807.030000", "140807.490000", "140807.950000", "140808.410000", "140808.870000", "140809.330000", "140809.790000", "140810.250000", "140810.710000", "140811.170000", "140811.630000", "140812.090000", "140812.550000", "140813.010000", "140813.470000", "140813.930000", "140814.390000", "140814.850000", "140815.310000", "140815.770000"],
