{
  "AcquisitionMatrixPE": 82,
  "AcquisitionNumber": 1,
  "AcquisitionTime": "14:32:29.562500",
  "BandwidthPerPixelPhaseEncode": 24.888,
  "BaseResolution": 82,
  "BodyPartExamined": "BRAIN",
  "ConsistencyInfo": "N4_VE11E_LATEST_20181129",
  "ConversionSoftware": "dcm2niix",
  "ConversionSoftwareVersion": "v1.0.20201102",
  "DerivedVendorReportedEchoSpacing": 0.00049,
  "DeviceSerialNumber": "66112",
  "DwellTime": 2e-06,
  "EchoTime": 0.0272,
  "EchoTrainLength": 82,
  "EffectiveEchoSpacing": 0.00049,
  "FlipAngle": 44,
  "ImageComments": "Unaliased MB8/PE3",
  "ImageOrientationPatientDICOM": [0.995734, -0.0765846, 0.0514655, 0.0776665, 0.996791, -0.0193597],
  "ImageType": [
    "ORIGINAL",
    "PRIMARY",
    "M",
    "MB",
    "ND",
    "NORM",
    "MOSAIC"
],
  "ImagingFrequency": 123.252,
  "InPlanePhaseEncodingDirectionDICOM": "COL",
  "InstitutionAddress": "Maynard 3,Hanover,NH,US,03755",
  "InstitutionName": "Dartmouth College - PBS",
  "InstitutionalDepartmentName": "Department",
  "MRAcquisitionType": "2D",
  "MagneticFieldStrength": 3,
  "Manufacturer": "Siemens",
  "ManufacturersModelName": "Prisma",
  "Modality": "MR",
  "MultibandAccelerationFactor": 8,
  "PartialFourier": 1,
  "PatientPosition": "HFS",
  "PercentPhaseFOV": 100,
  "PercentSampling": 100,
  "PhaseEncodingDirection": "j-",
  "PhaseEncodingSteps": 82,
  "PhaseResolution": 1,
  "PixelBandwidth": 3050,
  "ProcedureStepDescription": "Wager_Wager^1076_spacetop",
  "ProtocolName": "func_run-04_task-alignvideo_acq-ap-mb8",
  "PulseSequenceDetails": "%CustomerSeq%\\cmrr_mbep2d_bold",
  "ReceiveCoilActiveElements": "HEA;HEP",
  "ReceiveCoilName": "Head_32",
  "ReconMatrixPE": 82,
  "RepetitionTime": 0.46,
  "SAR": 0.0997711,
  "ScanOptions": "FS",
  "ScanningSequence": "EP",
  "SequenceName": "epfid2d1_82",
  "SequenceVariant": "SK\\SS",
  "SeriesDescription": "func_run-04_task-alignvideo_acq-ap-mb8",
  "SeriesNumber": 36,
  "ShimSetting": [4172, -7758, -7285, 600, 81, -476, 97, 47],
  "SliceThickness": 2.7,
  "SliceTiming": [0, 0.25, 0.0625, 0.315, 0.125, 0.3775, 0.1875, 0, 0.25, 0.0625, 0.315, 0.125, 0.3775, 0.1875, 0, 0.25, 0.0625, 0.315, 0.125, 0.3775, 0.1875, 0, 0.25, 0.0625, 0.315, 0.125, 0.3775, 0.1875, 0, 0.25, 0.0625, 0.315, 0.125, 0.3775, 0.1875, 0, 0.25, 0.0625, 0.315, 0.125, 0.3775, 0.1875, 0, 0.25, 0.0625, 0.315, 0.125, 0.3775, 0.1875, 0, 0.25, 0.0625, 0.315, 0.125, 0.3775, 0.1875],
  "SoftwareVersions": "syngo MR E11",
  "SpacingBetweenSlices": 2.7,
  "StationName": "AWP66112",
  "TaskName": "alignvideo",
  "TotalReadoutTime": 0.03969,
  "TxRefAmp": 236.868,
  "WipMemBlock": "b107c6d3-5d2e-4263-933e-42f03fa89d16||Sequence: R016 ve11e/master r/434b28f1; Aug  7 2019 18:53:46 by eja",
  "dcmmeta_affine": [
    [-2.6714813709259033, 0.20837365090847015, 0.13450782001018524, 99.62648010253906],
    [0.20547083020210266, 2.674318552017212, -0.06284060329198837, -108.45606994628906],
    [0.13807816803455353, 0.05194076523184776, 2.6959152221679688, -93.50212860107422],
    [0.0, 0.0, 0.0, 1.0]
],
  "dcmmeta_reorient_transform": [
    [0.0, -1.0, 0.0, 81.0],
    [1.0, 0.0, 0.0, 0.0],
    [0.0, 0.0, 1.0, 0.0],
    [0.0, 0.0, 0.0, 1.0]
],
  "dcmmeta_shape": [82, 82, 56, 914],
  "dcmmeta_slice_dim": 2,
  "dcmmeta_version": 0.6,
  "global": {
    "const": {
      "AccessionNumber": "A004107",
      "AcquisitionMatrix": [82, 0, 0, 82],
      "AngioFlag": "N",
      "BitsAllocated": 16,
      "BitsStored": 16,
      "BodyPartExamined": "BRAIN",
      "Columns": 656,
      "EchoNumbers": 1,
      "EchoTime": 27.2,
      "EchoTrainLength": 82,
      "FlipAngle": 44.0,
      "HighBit": 15,
      "ImageOrientationPatient": [0.99573395261076, -0.0765845802584, 0.05146549994708, 0.07766653929737, 0.9967914070557, -0.0193597389829],
      "ImagePositionPatient": [-943.02314604616, -816.72299873966, -114.01636072733],
      "ImageType": [
        "ORIGINAL",
        "PRIMARY",
        "M",
        "MB",
        "ND",
        "NORM",
        "MOSAIC"
],
      "ImagedNucleus": "1H",
      "ImagingFrequency": 123.252249,
      "InPlanePhaseEncodingDirection": "COL",
      "MRAcquisitionType": "2D",
      "MagneticFieldStrength": 3.0,
      "Manufacturer": "SIEMENS",
      "ManufacturerModelName": "Prisma",
      "Modality": "MR",
      "NumberOfAverages": 1.0,
      "NumberOfPhaseEncodingSteps": 82,
      "PercentPhaseFieldOfView": 100.0,
      "PercentSampling": 100.0,
      "PerformedProcedureStepStartTime": "124203.350000",
      "PhotometricInterpretation": "MONOCHROME2",
      "PixelBandwidth": 3050.0,
      "PixelRepresentation": 0,
      "PixelSpacing": [2.6829268932343, 2.6829268932343],
      "ProtocolName": "func_run-04_task-alignvideo_acq-ap-mb8",
      "RepetitionTime": 460.0,
      "Rows": 656,
      "SAR": 0.09977106087627,
      "SamplesPerPixel": 1,
      "ScanOptions": "FS",
      "ScanningSequence": "EP",
      "SequenceName": "epfid2d1_82",
      "SequenceVariant": [
        "SK",
        "SS"
],
      "SeriesDescription": "func_run-04_task-alignvideo_acq-ap-mb8",
      "SeriesNumber": 36,
      "SeriesTime": "143245.525000",
      "SliceLocation": -85.873265360026,
      "SliceThickness": 2.7000000476837,
      "SmallestImagePixelValue": 0,
      "SoftwareVersions": "syngo MR E11",
      "SpacingBetweenSlices": 2.6999999637644,
      "SpecificCharacterSet": "ISO_IR 100",
      "StudyID": "2",
      "StudyTime": "124203.241000",
      "TransmitCoilName": "Body",
      "VariableFlipAngleFlag": "N",
      "WindowCenterWidthExplanation": "Algo1"
    },
    "slices": {}
  },
  "time": {
    "samples": {
      "AcquisitionNumber": [1, 2, 3, 4, 5, 6, 7, 8, 9, 10, 11, 12, 13, 14, 15, 16, 17, 18, 19, 20, 21, 22, 23, 24, 25, 26, 27, 28, 29, 30, 31, 32, 33, 34, 35, 36, 37, 38, 39, 40, 41, 42, 43, 44, 45, 46, 47, 48, 49, 50, 51, 52, 53, 54, 55, 56, 57, 58, 59, 60, 61, 62, 63, 64, 65, 66, 67, 68, 69, 70, 71, 72, 73, 74, 75, 76, 77, 78, 79, 80, 81, 82, 83, 84, 85, 86, 87, 88, 89, 90, 91, 92, 93, 94, 95, 96, 97, 98, 99, 100, 101, 102, 103, 104, 105, 106, 107, 108, 109, 110, 111, 112, 113, 114, 115, 116, 117, 118, 119, 120, 121, 122, 123, 124, 125, 126, 127, 128, 129, 130, 131, 132, 133, 134, 135, 136, 137, 138, 139, 140, 141, 142, 143, 144, 145, 146, 147, 148, 149, 150, 151, 152, 153, 154, 155, 156, 157, 158, 159, 160, 161, 162, 163, 164, 165, 166, 167, 168, 169, 170, 171, 172, 173, 174, 175, 176, 177, 178, 179, 180, 181, 182, 183, 184, 185, 186, 187, 188, 189, 190, 191, 192, 193, 194, 195, 196, 197, 198, 199, 200, 201, 202, 203, 204, 205, 206, 207, 208, 209, 210, 211, 212, 213, 214, 215, 216, 217, 218, 219, 220, 221, 222, 223, 224, 225, 226, 227, 228, 229, 230, 231, 232, 233, 234, 235, 236, 237, 238, 239, 240, 241, 242, 243, 244, 245, 246, 247, 248, 249, 250, 251, 252, 253, 254, 255, 256, 257, 258, 259, 260, 261, 262, 263, 264, 265, 266, 267, 268, 269, 270, 271, 272, 273, 274, 275, 276, 277, 278, 279, 280, 281, 282, 283, 284, 285, 286, 287, 288, 289, 290, 291, 292, 293, 294, 295, 296, 297, 298, 299, 300, 301, 302, 303, 304, 305, 306, 307, 308, 309, 310, 311, 312, 313, 314, 315, 316, 317, 318, 319, 320, 321, 322, 323, 324, 325, 326, 327, 328, 329, 330, 331, 332, 333, 334, 335, 336, 337, 338, 339, 340, 341, 342, 343, 344, 345, 346, 347, 348, 349, 350, 351, 352, 353, 354, 355, 356, 357, 358, 359, 360, 361, 362, 363, 364, 365, 366, 367, 368, 369, 370, 371, 372, 373, 374, 375, 376, 377, 378, 379, 380, 381, 382, 383, 384, 385, 386, 387, 388, 389, 390, 391, 392, 393, 394, 395, 396, 397, 398, 399, 400, 401, 402, 403, 404, 405, 406, 407, 408, 409, 410, 411, 412, 413, 414, 415, 416, 417, 418, 419, 420, 421, 422, 423, 424, 425, 426, 427, 428, 429, 430, 431, 432, 433, 434, 435, 436, 437, 438, 439, 440, 441, 442, 443, 444, 445, 446, 447, 448, 449, 450, 451, 452, 453, 454, 455, 456, 457, 458, 459, 460, 461, 462, 463, 464, 465, 466, 467, 468, 469, 470, 471, 472, 473, 474, 475, 476, 477, 478, 479, 480, 481, 482, 483, 484, 485, 486, 487, 488, 489, 490, 491, 492, 493, 494, 495, 496, 497, 498, 499, 500, 501, 502, 503, 504, 505, 506, 507, 508, 509, 510, 511, 512, 513, 514, 515, 516, 517, 518, 519, 520, 521, 522, 523, 524, 525, 526, 527, 528, 529, 530, 531, 532, 533, 534, 535, 536, 537, 538, 539, 540, 541, 542, 543, 544, 545, 546, 547, 548, 549, 550, 551, 552, 553, 554, 555, 556, 557, 558, 559, 560, 561, 562, 563, 564, 565, 566, 567, 568, 569, 570, 571, 572, 573, 574, 575, 576, 577, 578, 579, 580, 581, 582, 583, 584, 585, 586, 587, 588, 589, 590, 591, 592, 593, 594, 595, 596, 597, 598, 599, 600, 601, 602, 603, 604, 605, 606, 607, 608, 609, 610, 611, 612, 613, 614, 615, 616, 617, 618, 619, 620, 621, 622, 623, 624, 625, 626, 627, 628, 629, 630, 631, 632, 633, 634, 635, 636, 637, 638, 639, 640, 641, 642, 643, 644, 645, 646, 647, 648, 649, 650, 651, 652, 653, 654, 655, 656, 657, 658, 659, 660, 661, 662, 663, 664, 665, 666, 667, 668, 669, 670, 671, 672, 673, 674, 675, 676, 677, 678, 679, 680, 681, 682, 683, 684, 685, 686, 687, 688, 689, 690, 691, 692, 693, 694, 695, 696, 697, 698, 699, 700, 701, 702, 703, 704, 705, 706, 707, 708, 709, 710, 711, 712, 713, 714, 715, 716, 717, 718, 719, 720, 721, 722, 723, 724, 725, 726, 727, 728, 729, 730, 731, 732, 733, 734, 735, 736, 737, 738, 739, 740, 741, 742, 743, 744, 745, 746, 747, 748, 749, 750, 751, 752, 753, 754, 755, 756, 757, 758, 759, 760, 761, 762, 763, 764, 765, 766, 767, 768, 769, 770, 771, 772, 773, 774, 775, 776, 777, 778, 779, 780, 781, 782, 783, 784, 785, 786, 787, 788, 789, 790, 791, 792, 793, 794, 795, 796, 797, 798, 799, 800, 801, 802, 803, 804, 805, 806, 807, 808, 809, 810, 811, 812, 813, 814, 815, 816, 817, 818, 819, 820, 821, 822, 823, 824, 825, 826, 827, 828, 829, 830, 831, 832, 833, 834, 835, 836, 837, 838, 839, 840, 841, 842, 843, 844, 845, 846, 847, 848, 849, 850, 851, 852, 853, 854, 855, 856, 857, 858, 859, 860, 861, 862, 863, 864, 865, 866, 867, 868, 869, 870, 871, 872, 873, 874, 875, 876, 877, 878, 879, 880, 881, 882, 883, 884, 885, 886, 887, 888, 889, 890, 891, 892, 893, 894, 895, 896, 897, 898, 899, 900, 901, 902, 903, 904, 905, 906, 907, 908, 909, 910, 911, 912, 913, 914],
      "AcquisitionTime": ["143229.562500", "143230.022500", "143230.482500", "143230.942500", "143231.402500", "143231.862500", "143232.322500", "143232.782500", "143233.242500", "143233.702500", "143234.162500", "143234.622500", "143235.082500", "143235.542500", "143236.002500", "143236.462500", "143236.922500", "143237.382500", "143237.842500", "143238.302500", "143238.762500", "143239.222500", "143239.682500", "143240.142500", "143240.602500", "143241.062500", "143241.522500", "143241.982500", "143242.442500", "143242.902500", "143243.362500", "143243.822500", "143244.282500", "143244.742500", "143245.202500", "143245.662500", "143246.122500", "143246.582500", "143247.042500", "143247.502500", "143247.962500", "143248.422500", "143248.882500", "143249.342500", "143249.802500", "143250.262500", "143250.722500", "143251.182500", "143251.642500", "143252.102500", "143252.562500", "143253.022500", "143253.482500", "143253.942500", "143254.402500", "143254.862500", "143255.322500", "143255.782500", "143256.242500", "143256.702500", "143257.162500", "143257.622500", "143258.082500", "143258.542500", "143259.002500", "143259.462500", "143259.922500", "143300.382500", "143300.842500", "143301.302500", "143301.762500", "143302.222500", "143302.682500", "143303.142500", "143303.602500", "143304.062500", "143304.522500", "143304.982500", "143305.442500", "143305.902500", "143306.362500", "143306.822500", "143307.282500", "143307.742500", "143308.202500", "143308.662500", "143309.122500", "143309.582500", "143310.042500", "143310.502500", "143310.962500", "143311.422500", "143311.882500", "143312.342500", "143312.802500", "143313.262500", "143313.722500", "143314.182500", "143314.642500", "143315.102500", "143315.562500", "143316.022500", "143316.482500", "143316.942500", "143317.402500", "143317.862500", "143318.322500", "143318.782500", "143319.242500", "143319.702500", "143320.162500", "143320.622500", "143321.082500", "143321.542500", "143322.002500", "143322.462500", "143322.922500", "143323.382500", "143323.842500", "143324.302500", "143324.762500", "143325.222500", "143325.682500", "143326.142500", "143326.602500", "143327.062500", "143327.522500", "143327.982500", "143328.442500", "143328.902500", "143329.362500", "143329.822500", "143330.282500", "143330.742500", "143331.202500", "143331.662500", "143332.122500", "143332.582500", "143333.042500", "143333.502500", "143333.962500", "143334.422500", "143334.882500", "143335.342500", "143335.802500", "143336.262500", "143336.722500", "143337.182500", "143337.642500", "143338.102500", "143338.562500", "143339.022500", "143339.482500", "143339.942500", "143340.402500", "143340.862500", "143341.322500", "143341.782500", "143342.242500", "143342.702500", "143343.162500", "143343.622500", "143344.082500", "143344.542500", "143345.002500", "143345.462500", "143345.922500", "143346.382500", "143346.842500", "143347.302500", "143347.762500", "143348.222500", "143348.682500", "143349.142500", "143349.602500", "143350.062500", "143350.522500", "143350.982500", "143351.442500", "143351.902500", "143352.362500", "143352.822500", "143353.282500", "143353.742500", "143354.202500", "143354.662500", "143355.122500", "143355.582500", "143356.042500", "143356.502500", "143356.962500", "143357.422500", "143357.882500", "143358.342500", "143358.802500", "143359.262500", "143359.722500", "143400.182500", "143400.642500", "143401.102500", "143401.562500", "143402.022500", "143402.482500", "143402.942500", "143403.402500", "143403.862500", "143404.322500", "143404.782500", "143405.242500", "143405.702500", "143406.162500", "143406.622500", "143407.082500", "143407.542500", "143408.002500", "143408.462500", "143408.922500", "143409.382500", "143409.842500", "143410.302500", "143410.762500", "143411.222500", "143411.682500", "143412.142500", "143412.602500", "143413.062500", "143413.522500", "143413.982500", "143414.442500", "143414.902500", "143415.362500", "143415.822500", "143416.282500", "143416.742500", "143417.202500", "143417.662500", "143418.122500", "143418.582500", "143419.042500", "143419.502500", "143419.962500", "143420.422500", "143420.882500", "143421.342500", "143421.802500", "143422.262500", "143422.722500", "143423.182500", "143423.642500", "143424.102500", "143424.562500", "143425.022500", "143425.482500", "143425.942500", "143426.402500", "143426.862500", "143427.322500", "143427.782500", "143428.242500", "143428.702500", "143429.162500", "143429.622500", "143430.082500", "143430.542500", "143431.002500", "143431.462500", "143431.922500", "143432.382500", "143432.842500", "143433.302500", "143433.762500", "143434.222500", "143434.682500", "143435.142500", "143435.602500", "143436.062500", "143436.522500", "143436.982500", "143437.442500", "143437.902500", "143438.362500", "143438.822500", "143439.282500", "143439.742500", "143440.202500", "143440.662500", "143441.122500", "143441.582500", "143442.042500", "143442.502500", "143442.962500", "143443.422500", "143443.882500", "143444.342500", "143444.802500", "143445.262500", "143445.722500", "143446.182500", "143446.642500", "143447.102500", "143447.562500", "143448.022500", "143448.482500", "143448.942500", "143449.402500", "143449.862500", "143450.322500", "143450.782500", "143451.242500", "143451.702500", "143452.162500", "143452.622500", "143453.082500", "143453.542500", "143454.002500", "143454.462500", "143454.922500", "143455.382500", "143455.842500", "143456.302500", "143456.762500", "143457.222500", "143457.682500", "143458.142500", "143458.602500", "143459.062500", "143459.522500", "143459.982500", "143500.442500", "143500.902500", "143501.362500", "143501.822500", "143502.282500", "143502.742500", "143503.202500", "143503.662500", "143504.122500", "143504.582500", "143505.042500", "143505.502500", "143505.962500", "143506.422500", "143506.882500", "143507.342500", "143507.802500", "143508.262500", "143508.722500", "143509.182500", "143509.642500", "143510.102500", "143510.562500", "143511.022500", "143511.482500", "143511.942500", "143512.402500", "143512.862500", "143513.322500", "143513.782500", "143514.242500", "143514.702500", "143515.162500", "143515.622500", "143516.082500", "143516.542500", "143517.002500", "143517.462500", "143517.922500", "143518.382500", "143518.842500", "143519.302500", "143519.762500", "143520.222500", "143520.682500", "143521.142500", "143521.602500", "143522.062500", "143522.522500", "143522.982500", "143523.442500", "143523.902500", "143524.362500", "143524.822500", "143525.282500", "143525.742500", "143526.202500", "143526.662500", "143527.122500", "143527.582500", "143528.042500", "143528.502500", "143528.962500", "143529.422500", "143529.882500", "143530.342500", "143530.802500", "143531.262500", "143531.722500", "143532.182500", "143532.642500", "143533.102500", "143533.562500", "143534.022500", "143534.482500", "143534.942500", "143535.402500", "143535.862500", "143536.322500", "143536.782500", "143537.242500", "143537.702500", "143538.162500", "143538.622500", "143539.082500", "143539.542500", "143540.002500", "143540.462500", "143540.922500", "143541.382500", "143541.842500", "143542.302500", "143542.762500", "143543.222500", "143543.682500", "143544.142500", "143544.602500", "143545.062500", "143545.522500", "143545.982500", "143546.442500", "143546.902500", "143547.362500", "143547.822500", "143548.282500", "143548.742500", "143549.202500", "143549.662500", "143550.122500", "143550.582500", "143551.042500", "143551.502500", "143551.962500", "143552.422500", "143552.882500", "143553.342500", "143553.802500", "143554.262500", "143554.722500", "143555.182500", "143555.642500", "143556.102500", "143556.562500", "143557.022500", "143557.482500", "143557.942500", "143558.402500", "143558.862500", "143559.322500", "143559.782500", "143600.242500", "143600.702500", "143601.162500", "143601.622500", "143602.082500", "143602.542500", "143603.002500", "143603.462500", "143603.922500", "143604.382500", "143604.842500", "143605.302500", "143605.762500", "143606.222500", "143606.682500", "143607.142500", "143607.602500", "143608.062500", "143608.522500", "143608.982500", "143609.442500", "143609.902500", "143610.362500", "143610.822500", "143611.282500", "143611.742500", "143612.202500", "143612.662500", "143613.122500", "143613.582500", "143614.042500", "143614.502500", "143614.962500", "143615.422500", "143615.882500", "143616.342500", "143616.802500", "143617.262500", "143617.722500", "143618.182500", "143618.642500", "143619.102500", "143619.562500", "143620.022500", "143620.482500", "143620.942500", "143621.402500", "143621.862500", "143622.322500", "143622.782500", "143623.242500", "143623.702500", "143624.162500", "143624.622500", "143625.082500", "143625.542500", "143626.002500", "143626.462500", "143626.922500", "143627.382500", "143627.842500", "143628.302500", "143628.762500", "143629.222500", "143629.682500", "143630.142500", "143630.602500", "143631.062500", "143631.522500", "143631.982500", "143632.442500", "143632.902500", "143633.362500", "143633.822500", "143634.282500", "143634.742500", "143635.202500", "143635.662500", "143636.122500", "143636.582500", "143637.042500", "143637.502500", "143637.962500", "143638.422500", "143638.882500", "143639.342500", "143639.802500", "143640.262500", "143640.722500", "143641.182500", "143641.642500", "143642.102500", "143642.562500", "143643.022500", "143643.482500", "143643.942500", "143644.402500", "143644.862500", "143645.322500", "143645.782500", "143646.242500", "143646.702500", "143647.162500", "143647.622500", "143648.082500", "143648.542500", "143649.002500", "143649.462500", "143649.922500", "143650.382500", "143650.842500", "143651.302500", "143651.762500", "143652.222500", "143652.682500", "143653.142500", "143653.602500", "143654.062500", "143654.522500", "143654.982500", "143655.442500", "143655.902500", "143656.362500", "143656.822500", "143657.282500", "143657.742500", "143658.202500", "143658.662500", "143659.122500", "143659.582500", "143700.042500", "143700.502500", "143700.962500", "143701.422500", "143701.882500", "143702.342500", "143702.802500", "143703.262500", "143703.722500", "143704.182500", "143704.642500", "143705.102500", "143705.562500", "143706.022500", "143706.482500", "143706.942500", "143707.402500", "143707.862500", "143708.322500", "143708.782500", "143709.242500", "143709.702500", "143710.162500", "143710.622500", "143711.082500", "143711.542500", "143712.002500", "143712.462500", "143712.922500", "143713.382500", "143713.842500", "143714.302500", "143714.762500", "143715.222500", "143715.682500", "143716.142500", "143716.602500", "143717.062500", "143717.522500", "143717.982500", "143718.442500", "143718.902500", "143719.362500", "143719.822500", "143720.282500", "143720.742500", "143721.202500", "143721.662500", "143722.122500", "143722.582500", "143723.042500", "143723.502500", "143723.962500", "143724.422500", "143724.882500", "143725.342500", "143725.802500", "143726.262500", "143726.722500", "143727.182500", "143727.642500", "143728.102500", "143728.562500", "143729.022500", "143729.482500", "143729.942500", "143730.402500", "143730.862500", "143731.322500", "143731.782500", "143732.242500", "143732.702500", "143733.162500", "143733.622500", "143734.082500", "143734.542500", "143735.002500", "143735.462500", "143735.922500", "143736.382500", "143736.842500", "143737.302500", "143737.762500", "143738.222500", "143738.682500", "143739.142500", "143739.602500", "143740.062500", "143740.522500", "143740.982500", "143741.442500", "143741.902500", "143742.362500", "143742.822500", "143743.282500", "143743.742500", "143744.202500", "143744.662500", "143745.122500", "143745.582500", "143746.042500", "143746.502500", "143746.962500", "143747.422500", "143747.882500", "143748.342500", "143748.802500", "143749.262500", "143749.722500", "143750.182500", "143750.642500", "143751.102500", "143751.562500", "143752.022500", "143752.482500", "143752.942500", "143753.402500", "143753.862500", "143754.322500", "143754.782500", "143755.242500", "143755.702500", "143756.162500", "143756.622500", "143757.082500", "143757.542500", "143758.002500", "143758.462500", "143758.922500", "143759.382500", "143759.842500", "143800.302500", "143800.762500", "143801.222500", "143801.682500", "143802.142500", "143802.602500", "143803.062500", "143803.522500", "143803.982500", "143804.442500", "143804.902500", "143805.362500", "143805.822500", "143806.282500", "143806.742500", "143807.202500", "143807.662500", "143808.122500", "143808.582500", "143809.042500", "143809.502500", "143809.962500", "143810.422500", "143810.882500", "143811.342500", "143811.802500", "143812.262500", "143812.722500", "143813.182500", "143813.642500", "143814.102500", "143814.562500", "143815.022500", "143815.482500", "143815.942500", "143816.402500", "143816.862500", "143817.322500", "143817.782500", "143818.242500", "143818.702500", "143819.162500", "143819.622500", "143820.082500", "143820.542500", "143821.002500", "143821.462500", "143821.922500", "143822.382500", "143822.842500", "143823.302500", "143823.762500", "143824.222500", "143824.682500", "143825.142500", "143825.602500", "143826.062500", "143826.522500", "143826.982500", "143827.442500", "143827.902500", "143828.362500", "143828.822500", "143829.282500", "143829.742500", "143830.202500", "143830.662500", "143831.122500", "143831.582500", "143832.042500", "143832.502500", "143832.962500", "143833.422500", "143833.882500", "143834.342500", "143834.802500", "143835.262500", "143835.722500", "143836.182500", "143836.642500", "143837.102500", "143837.562500", "143838.022500", "143838.482500", "143838.942500", "143839.402500", "143839.862500", "143840.322500", "143840.782500", "143841.242500", "143841.702500", "143842.162500", "143842.622500", "143843.082500", "143843.542500", "143844.002500", "143844.462500", "143844.922500", "143845.382500", "143845.842500", "143846.302500", "143846.762500", "143847.222500", "143847.682500", "143848.142500", "143848.602500", "143849.062500", "143849.522500", "143849.982500", "143850.442500", "143850.902500", "143851.362500", "143851.822500", "143852.282500", "143852.742500", "143853.202500", "143853.662500", "143854.122500", "143854.582500", "143855.042500", "143855.502500", "143855.962500", "143856.422500", "143856.882500", "143857.342500", "143857.802500", "143858.262500", "143858.722500", "143859.182500", "143859.642500", "143900.102500", "143900.562500", "143901.022500", "143901.482500", "143901.942500", "143902.402500", "143902.862500", "143903.322500", "143903.782500", "143904.242500", "143904.702500", "143905.162500", "143905.622500", "143906.082500", "143906.542500", "143907.002500", "143907.462500", "143907.922500", "143908.382500", "143908.842500", "143909.302500", "143909.762500", "143910.222500", "143910.682500", "143911.142500", "143911.602500", "143912.062500", "143912.522500", "143912.982500", "143913.442500", "143913.902500", "143914.362500", "143914.822500", "143915.282500", "143915.742500", "143916.202500", "143916.662500", "143917.122500", "143917.582500", "143918.042500", "143918.502500", "143918.962500", "143919.422500", "143919.882500", "143920.342500", "143920.802500", "143921.262500", "143921.722500", "143922.182500", "143922.642500", "143923.102500", "143923.562500", "143924.022500", "143924.482500", "143924.942500", "143925.402500", "143925.862500", "143926.322500", "143926.782500", "143927.242500", "143927.702500", "143928.162500", "143928.622500", "143929.082500", "143929.542500"],
