{
  "AcquisitionMatrixPE": 82,
  "AcquisitionNumber": 1,
  "AcquisitionTime": "13:52:2.850000",
  "BandwidthPerPixelPhaseEncode": 24.888,
  "BaseResolution": 82,
  "BodyPartExamined": "BRAIN",
  "ConsistencyInfo": "N4_VE11E_LATEST_20181129",
  "ConversionSoftware": "dcm2niix",
  "ConversionSoftwareVersion": "v1.0.20201102",
  "DerivedVendorReportedEchoSpacing": 0.00049,
  "DeviceSerialNumber": "66112",
  "DwellTime": 2e-06,
  "EchoTime": 0.0272,
  "EchoTrainLength": 82,
  "EffectiveEchoSpacing": 0.00049,
  "FlipAngle": 44,
  "ImageComments": "Unaliased MB8/PE3",
  "ImageOrientationPatientDICOM": [0.997067, -0.0535357, 0.0546863, 0.056443, 0.996994, -0.0530793],
  "ImageType": [
    "ORIGINAL",
    "PRIMARY",
    "M",
    "MB",
    "ND",
    "NORM",
    "MOSAIC"
],
  "ImagingFrequency": 123.252,
  "InPlanePhaseEncodingDirectionDICOM": "COL",
  "InstitutionAddress": "Maynard 3,Hanover,NH,US,03755",
  "InstitutionName": "Dartmouth College - PBS",
  "InstitutionalDepartmentName": "Department",
  "MRAcquisitionType": "2D",
  "MagneticFieldStrength": 3,
  "Manufacturer": "Siemens",
  "ManufacturersModelName": "Prisma",
  "Modality": "MR",
  "MultibandAccelerationFactor": 8,
  "PartialFourier": 1,
  "PatientPosition": "HFS",
  "PercentPhaseFOV": 100,
  "PercentSampling": 100,
  "PhaseEncodingDirection": "j-",
  "PhaseEncodingSteps": 82,
  "PhaseResolution": 1,
  "PixelBandwidth": 3050,
  "ProcedureStepDescription": "Wager_Wager^1076_spacetop",
  "ProtocolName": "func_run-03_task-faces_acq-ap-mb8",
  "PulseSequenceDetails": "%CustomerSeq%\\cmrr_mbep2d_bold",
  "ReceiveCoilActiveElements": "HEA;HEP",
  "ReceiveCoilName": "Head_32",
  "ReconMatrixPE": 82,
  "RepetitionTime": 0.46,
  "SAR": 0.0997711,
  "ScanOptions": "FS",
  "ScanningSequence": "EP",
  "SequenceName": "epfid2d1_82",
  "SequenceVariant": "SK\\SS",
  "SeriesDescription": "func_run-03_task-faces_acq-ap-mb8",
  "SeriesNumber": 22,
  "ShimSetting": [4172, -7758, -7285, 616, 77, -455, 93, 48],
  "SliceThickness": 2.7,
  "SliceTiming": [0, 0.25, 0.0625, 0.315, 0.125, 0.3775, 0.1875, 0, 0.25, 0.0625, 0.315, 0.125, 0.3775, 0.1875, 0, 0.25, 0.0625, 0.315, 0.125, 0.3775, 0.1875, 0, 0.25, 0.0625, 0.315, 0.125, 0.3775, 0.1875, 0, 0.25, 0.0625, 0.315, 0.125, 0.3775, 0.1875, 0, 0.25, 0.0625, 0.315, 0.125, 0.3775, 0.1875, 0, 0.25, 0.0625, 0.315, 0.125, 0.3775, 0.1875, 0, 0.25, 0.0625, 0.315, 0.125, 0.3775, 0.1875],
  "SoftwareVersions": "syngo MR E11",
  "SpacingBetweenSlices": 2.7,
  "StationName": "AWP66112",
  "TaskName": "faces",
  "TotalReadoutTime": 0.03969,
  "TxRefAmp": 236.868,
  "WipMemBlock": "8bdff366-62dc-413c-b56a-3addd26e001b||Sequence: R016 ve11e/master r/434b28f1; Aug  7 2019 18:53:46 by eja",
  "dcmmeta_affine": [
    [-2.6750588417053223, 0.15143248438835144, 0.1395367980003357, 102.39361572265625],
    [0.14363239705562592, 2.6748616695404053, -0.15122778713703156, -98.73583221435547],
    [0.14671941101551056, 0.1424078643321991, 2.692147731781006, -92.37532806396484],
    [0.0, 0.0, 0.0, 1.0]
],
  "dcmmeta_reorient_transform": [
    [0.0, -1.0, 0.0, 81.0],
    [1.0, 0.0, 0.0, 0.0],
    [0.0, 0.0, 1.0, 0.0],
    [0.0, 0.0, 0.0, 1.0]
],
  "dcmmeta_shape": [82, 82, 56, 914],
  "dcmmeta_slice_dim": 2,
  "dcmmeta_version": 0.6,
  "global": {
    "const": {
      "AccessionNumber": "A004107",
      "AcquisitionMatrix": [82, 0, 0, 82],
      "AngioFlag": "N",
      "BitsAllocated": 16,
      "BitsStored": 16,
      "BodyPartExamined": "BRAIN",
      "Columns": 656,
      "EchoNumbers": 1,
      "EchoTime": 27.2,
      "EchoTrainLength": 82,
      "FlipAngle": 44.0,
      "HighBit": 15,
      "ImageOrientationPatient": [0.99706736658224, -0.0535357116357, 0.05468632440035, 0.05644301439761, 0.99699386895854, -0.0530792933713],
      "ImagePositionPatient": [-925.86266317271, -844.39075835825, -82.077708152281],
      "ImageType": [
        "ORIGINAL",
        "PRIMARY",
        "M",
        "MB",
        "ND",
        "NORM",
        "MOSAIC"
],
      "ImagedNucleus": "1H",
      "ImagingFrequency": 123.25224,
      "InPlanePhaseEncodingDirection": "COL",
      "MRAcquisitionType": "2D",
      "MagneticFieldStrength": 3.0,
      "Manufacturer": "SIEMENS",
      "ManufacturerModelName": "Prisma",
      "Modality": "MR",
      "NumberOfAverages": 1.0,
      "NumberOfPhaseEncodingSteps": 82,
      "PercentPhaseFieldOfView": 100.0,
      "PercentSampling": 100.0,
      "PerformedProcedureStepStartTime": "124203.350000",
      "PhotometricInterpretation": "MONOCHROME2",
      "PixelBandwidth": 3050.0,
      "PixelRepresentation": 0,
      "PixelSpacing": [2.6829268932343, 2.6829268932343],
      "ProtocolName": "func_run-03_task-faces_acq-ap-mb8",
      "RepetitionTime": 460.0,
      "Rows": 656,
      "SAR": 0.09977106087627,
      "SamplesPerPixel": 1,
      "ScanOptions": "FS",
      "ScanningSequence": "EP",
      "SequenceName": "epfid2d1_82",
      "SequenceVariant": [
        "SK",
        "SS"
],
      "SeriesDescription": "func_run-03_task-faces_acq-ap-mb8",
      "SeriesNumber": 22,
      "SeriesTime": "135225.444000",
      "SliceLocation": -81.284727165421,
      "SliceThickness": 2.7000000476837,
      "SmallestImagePixelValue": 0,
      "SoftwareVersions": "syngo MR E11",
      "SpacingBetweenSlices": 2.7000000525682,
      "SpecificCharacterSet": "ISO_IR 100",
      "StudyID": "2",
      "StudyTime": "124203.241000",
      "TransmitCoilName": "Body",
      "VariableFlipAngleFlag": "N",
      "WindowCenterWidthExplanation": "Algo1"
    },
    "slices": {}
  },
  "time": {
    "samples": {
      "AcquisitionNumber": [1, 2, 3, 4, 5, 6, 7, 8, 9, 10, 11, 12, 13, 14, 15, 16, 17, 18, 19, 20, 21, 22, 23, 24, 25, 26, 27, 28, 29, 30, 31, 32, 33, 34, 35, 36, 37, 38, 39, 40, 41, 42, 43, 44, 45, 46, 47, 48, 49, 50, 51, 52, 53, 54, 55, 56, 57, 58, 59, 60, 61, 62, 63, 64, 65, 66, 67, 68, 69, 70, 71, 72, 73, 74, 75, 76, 77, 78, 79, 80, 81, 82, 83, 84, 85, 86, 87, 88, 89, 90, 91, 92, 93, 94, 95, 96, 97, 98, 99, 100, 101, 102, 103, 104, 105, 106, 107, 108, 109, 110, 111, 112, 113, 114, 115, 116, 117, 118, 119, 120, 121, 122, 123, 124, 125, 126, 127, 128, 129, 130, 131, 132, 133, 134, 135, 136, 137, 138, 139, 140, 141, 142, 143, 144, 145, 146, 147, 148, 149, 150, 151, 152, 153, 154, 155, 156, 157, 158, 159, 160, 161, 162, 163, 164, 165, 166, 167, 168, 169, 170, 171, 172, 173, 174, 175, 176, 177, 178, 179, 180, 181, 182, 183, 184, 185, 186, 187, 188, 189, 190, 191, 192, 193, 194, 195, 196, 197, 198, 199, 200, 201, 202, 203, 204, 205, 206, 207, 208, 209, 210, 211, 212, 213, 214, 215, 216, 217, 218, 219, 220, 221, 222, 223, 224, 225, 226, 227, 228, 229, 230, 231, 232, 233, 234, 235, 236, 237, 238, 239, 240, 241, 242, 243, 244, 245, 246, 247, 248, 249, 250, 251, 252, 253, 254, 255, 256, 257, 258, 259, 260, 261, 262, 263, 264, 265, 266, 267, 268, 269, 270, 271, 272, 273, 274, 275, 276, 277, 278, 279, 280, 281, 282, 283, 284, 285, 286, 287, 288, 289, 290, 291, 292, 293, 294, 295, 296, 297, 298, 299, 300, 301, 302, 303, 304, 305, 306, 307, 308, 309, 310, 311, 312, 313, 314, 315, 316, 317, 318, 319, 320, 321, 322, 323, 324, 325, 326, 327, 328, 329, 330, 331, 332, 333, 334, 335, 336, 337, 338, 339, 340, 341, 342, 343, 344, 345, 346, 347, 348, 349, 350, 351, 352, 353, 354, 355, 356, 357, 358, 359, 360, 361, 362, 363, 364, 365, 366, 367, 368, 369, 370, 371, 372, 373, 374, 375, 376, 377, 378, 379, 380, 381, 382, 383, 384, 385, 386, 387, 388, 389, 390, 391, 392, 393, 394, 395, 396, 397, 398, 399, 400, 401, 402, 403, 404, 405, 406, 407, 408, 409, 410, 411, 412, 413, 414, 415, 416, 417, 418, 419, 420, 421, 422, 423, 424, 425, 426, 427, 428, 429, 430, 431, 432, 433, 434, 435, 436, 437, 438, 439, 440, 441, 442, 443, 444, 445, 446, 447, 448, 449, 450, 451, 452, 453, 454, 455, 456, 457, 458, 459, 460, 461, 462, 463, 464, 465, 466, 467, 468, 469, 470, 471, 472, 473, 474, 475, 476, 477, 478, 479, 480, 481, 482, 483, 484, 485, 486, 487, 488, 489, 490, 491, 492, 493, 494, 495, 496, 497, 498, 499, 500, 501, 502, 503, 504, 505, 506, 507, 508, 509, 510, 511, 512, 513, 514, 515, 516, 517, 518, 519, 520, 521, 522, 523, 524, 525, 526, 527, 528, 529, 530, 531, 532, 533, 534, 535, 536, 537, 538, 539, 540, 541, 542, 543, 544, 545, 546, 547, 548, 549, 550, 551, 552, 553, 554, 555, 556, 557, 558, 559, 560, 561, 562, 563, 564, 565, 566, 567, 568, 569, 570, 571, 572, 573, 574, 575, 576, 577, 578, 579, 580, 581, 582, 583, 584, 585, 586, 587, 588, 589, 590, 591, 592, 593, 594, 595, 596, 597, 598, 599, 600, 601, 602, 603, 604, 605, 606, 607, 608, 609, 610, 611, 612, 613, 614, 615, 616, 617, 618, 619, 620, 621, 622, 623, 624, 625, 626, 627, 628, 629, 630, 631, 632, 633, 634, 635, 636, 637, 638, 639, 640, 641, 642, 643, 644, 645, 646, 647, 648, 649, 650, 651, 652, 653, 654, 655, 656, 657, 658, 659, 660, 661, 662, 663, 664, 665, 666, 667, 668, 669, 670, 671, 672, 673, 674, 675, 676, 677, 678, 679, 680, 681, 682, 683, 684, 685, 686, 687, 688, 689, 690, 691, 692, 693, 694, 695, 696, 697, 698, 699, 700, 701, 702, 703, 704, 705, 706, 707, 708, 709, 710, 711, 712, 713, 714, 715, 716, 717, 718, 719, 720, 721, 722, 723, 724, 725, 726, 727, 728, 729, 730, 731, 732, 733, 734, 735, 736, 737, 738, 739, 740, 741, 742, 743, 744, 745, 746, 747, 748, 749, 750, 751, 752, 753, 754, 755, 756, 757, 758, 759, 760, 761, 762, 763, 764, 765, 766, 767, 768, 769, 770, 771, 772, 773, 774, 775, 776, 777, 778, 779, 780, 781, 782, 783, 784, 785, 786, 787, 788, 789, 790, 791, 792, 793, 794, 795, 796, 797, 798, 799, 800, 801, 802, 803, 804, 805, 806, 807, 808, 809, 810, 811, 812, 813, 814, 815, 816, 817, 818, 819, 820, 821, 822, 823, 824, 825, 826, 827, 828, 829, 830, 831, 832, 833, 834, 835, 836, 837, 838, 839, 840, 841, 842, 843, 844, 845, 846, 847, 848, 849, 850, 851, 852, 853, 854, 855, 856, 857, 858, 859, 860, 861, 862, 863, 864, 865, 866, 867, 868, 869, 870, 871, 872, 873, 874, 875, 876, 877, 878, 879, 880, 881, 882, 883, 884, 885, 886, 887, 888, 889, 890, 891, 892, 893, 894, 895, 896, 897, 898, 899, 900, 901, 902, 903, 904, 905, 906, 907, 908, 909, 910, 911, 912, 913, 914],
      "AcquisitionTime": ["135202.850000", "135203.310000", "135203.770000", "135204.230000", "135204.690000", "135205.150000", "135205.610000", "135206.070000", "135206.530000", "135206.990000", "135207.450000", "135207.910000", "135208.370000", "135208.830000", "135209.290000", "135209.750000", "135210.210000", "135210.670000", "135211.130000", "135211.590000", "135212.050000", "135212.510000", "135212.970000", "135213.430000", "135213.890000", "135214.350000", "135214.810000", "135215.270000", "135215.730000", "135216.190000", "135216.650000", "135217.110000", "135217.570000", "135218.030000", "135218.490000", "135218.950000", "135219.410000", "135219.870000", "135220.330000", "135220.790000", "135221.250000", "135221.710000", "135222.170000", "135222.630000", "135223.090000", "135223.550000", "135224.010000", "135224.470000", "135224.930000", "135225.390000", "135225.850000", "135226.310000", "135226.770000", "135227.230000", "135227.690000", "135228.150000", "135228.610000", "135229.070000", "135229.530000", "135229.990000", "135230.450000", "135230.910000", "135231.370000", "135231.830000", "135232.290000", "135232.750000", "135233.210000", "135233.670000", "135234.130000", "135234.590000", "135235.050000", "135235.510000", "135235.970000", "135236.430000", "135236.890000", "135237.350000", "135237.810000", "135238.270000", "135238.730000", "135239.190000", "135239.650000", "135240.110000", "135240.570000", "135241.030000", "135241.490000", "135241.950000", "135242.410000", "135242.870000", "135243.330000", "135243.790000", "135244.250000", "135244.710000", "135245.170000", "135245.630000", "135246.090000", "135246.550000", "135247.010000", "135247.470000", "135247.930000", "135248.390000", "135248.850000", "135249.310000", "135249.770000", "135250.230000", "135250.690000", "135251.150000", "135251.610000", "135252.070000", "135252.530000", "135252.990000", "135253.450000", "135253.910000", "135254.370000", "135254.830000", "135255.290000", "135255.750000", "135256.210000", "135256.670000", "135257.130000", "135257.590000", "135258.050000", "135258.510000", "135258.970000", "135259.430000", "135259.890000", "135300.350000", "135300.810000", "135301.270000", "135301.730000", "135302.190000", "135302.650000", "135303.110000", "135303.570000", "135304.030000", "135304.490000", "135304.950000", "135305.410000", "135305.870000", "135306.330000", "135306.790000", "135307.250000", "135307.710000", "135308.170000", "135308.630000", "135309.090000", "135309.550000", "135310.010000", "135310.470000", "135310.930000", "135311.390000", "135311.850000", "135312.310000", "135312.770000", "135313.230000", "135313.690000", "135314.150000", "135314.610000", "135315.070000", "135315.530000", "135315.990000", "135316.450000", "135316.910000", "135317.370000", "135317.830000", "135318.290000", "135318.750000", "135319.210000", "135319.670000", "135320.130000", "135320.590000", "135321.050000", "135321.510000", "135321.970000", "135322.430000", "135322.890000", "135323.350000", "135323.810000", "135324.270000", "135324.730000", "135325.190000", "135325.650000", "135326.110000", "135326.570000", "135327.030000", "135327.490000", "135327.950000", "135328.410000", "135328.870000", "135329.330000", "135329.790000", "135330.250000", "135330.710000", "135331.170000", "135331.630000", "135332.090000", "135332.550000", "135333.010000", "135333.470000", "135333.930000", "135334.390000", "135334.850000", "135335.310000", "135335.770000", "135336.230000", "135336.690000", "135337.150000", "135337.610000", "135338.070000", "135338.530000", "135338.990000", "135339.450000", "135339.910000", "135340.370000", "135340.830000", "135341.290000", "135341.750000", "135342.210000", "135342.670000", "135343.130000", "135343.590000", "135344.050000", "135344.510000", "135344.970000", "135345.430000", "135345.890000", "135346.350000", "135346.810000", "135347.270000", "135347.730000", "135348.190000", "135348.650000", "135349.110000", "135349.570000", "135350.030000", "135350.490000", "135350.950000", "135351.410000", "135351.870000", "135352.330000", "135352.790000", "135353.250000", "135353.710000", "135354.170000", "135354.630000", "135355.090000", "135355.550000", "135356.010000", "135356.470000", "135356.930000", "135357.390000", "135357.850000", "135358.310000", "135358.770000", "135359.230000", "135359.690000", "135400.150000", "135400.610000", "135401.070000", "135401.530000", "135401.990000", "135402.450000", "135402.910000", "135403.370000", "135403.830000", "135404.290000", "135404.750000", "135405.210000", "135405.670000", "135406.130000", "135406.590000", "135407.050000", "135407.510000", "135407.970000", "135408.430000", "135408.890000", "135409.350000", "135409.810000", "135410.270000", "135410.730000", "135411.190000", "135411.650000", "135412.110000", "135412.570000", "135413.030000", "135413.490000", "135413.950000", "135414.410000", "135414.870000", "135415.330000", "135415.790000", "135416.250000", "135416.710000", "135417.170000", "135417.630000", "135418.090000", "135418.550000", "135419.010000", "135419.470000", "135419.930000", "135420.390000", "135420.850000", "135421.310000", "135421.770000", "135422.230000", "135422.690000", "135423.150000", "135423.610000", "135424.070000", "135424.530000", "135424.990000", "135425.450000", "135425.910000", "135426.370000", "135426.830000", "135427.290000", "135427.750000", "135428.210000", "135428.670000", "135429.130000", "135429.590000", "135430.050000", "135430.510000", "135430.970000", "135431.430000", "135431.890000", "135432.350000", "135432.810000", "135433.270000", "135433.730000", "135434.190000", "135434.650000", "135435.110000", "135435.570000", "135436.030000", "135436.490000", "135436.950000", "135437.410000", "135437.870000", "135438.330000", "135438.790000", "135439.250000", "135439.710000", "135440.170000", "135440.630000", "135441.090000", "135441.550000", "135442.010000", "135442.470000", "135442.930000", "135443.390000", "135443.850000", "135444.310000", "135444.770000", "135445.230000", "135445.690000", "135446.150000", "135446.610000", "135447.070000", "135447.530000", "135447.990000", "135448.450000", "135448.910000", "135449.370000", "135449.830000", "135450.290000", "135450.750000", "135451.210000", "135451.670000", "135452.130000", "135452.590000", "135453.050000", "135453.510000", "135453.970000", "135454.430000", "135454.890000", "135455.350000", "135455.810000", "135456.270000", "135456.730000", "135457.190000", "135457.650000", "135458.110000", "135458.570000", "135459.030000", "135459.490000", "135459.950000", "135500.410000", "135500.870000", "135501.330000", "135501.790000", "135502.250000", "135502.710000", "135503.170000", "135503.630000", "135504.090000", "135504.550000", "135505.010000", "135505.470000", "135505.930000", "135506.390000", "135506.850000", "135507.310000", "135507.770000", "135508.230000", "135508.690000", "135509.150000", "135509.610000", "135510.070000", "135510.530000", "135510.990000", "135511.450000", "135511.910000", "135512.370000", "135512.830000", "135513.290000", "135513.750000", "135514.210000", "135514.670000", "135515.130000", "135515.590000", "135516.050000", "135516.510000", "135516.970000", "135517.430000", "135517.890000", "135518.350000", "135518.810000", "135519.270000", "135519.730000", "135520.190000", "135520.650000", "135521.110000", "135521.570000", "135522.030000", "135522.490000", "135522.950000", "135523.410000", "135523.870000", "135524.330000", "135524.790000", "135525.250000", "135525.710000", "135526.170000", "135526.630000", "135527.090000", "135527.550000", "135528.010000", "135528.470000", "135528.930000", "135529.390000", "135529.850000", "135530.310000", "135530.770000", "135531.230000", "135531.690000", "135532.150000", "135532.610000", "135533.070000", "135533.530000", "135533.990000", "135534.450000", "135534.910000", "135535.370000", "135535.830000", "135536.290000", "135536.750000", "135537.210000", "135537.670000", "135538.130000", "135538.590000", "135539.050000", "135539.510000", "135539.970000", "135540.430000", "135540.890000", "135541.350000", "135541.810000", "135542.270000", "135542.730000", "135543.190000", "135543.650000", "135544.110000", "135544.570000", "135545.030000", "135545.490000", "135545.950000", "135546.410000", "135546.870000", "135547.330000", "135547.790000", "135548.250000", "135548.710000", "135549.170000", "135549.630000", "135550.090000", "135550.550000", "135551.010000", "135551.470000", "135551.930000", "135552.390000", "135552.850000", "135553.310000", "135553.770000", "135554.230000", "135554.690000", "135555.150000", "135555.610000", "135556.070000", "135556.530000", "135556.990000", "135557.450000", "135557.910000", "135558.370000", "135558.830000", "135559.290000", "135559.750000", "135600.210000", "135600.670000", "135601.130000", "135601.590000", "135602.050000", "135602.510000", "135602.970000", "135603.430000", "135603.890000", "135604.350000", "135604.810000", "135605.270000", "135605.730000", "135606.190000", "135606.650000", "135607.110000", "135607.570000", "135608.030000", "135608.490000", "135608.950000", "135609.410000", "135609.870000", "135610.330000", "135610.790000", "135611.250000", "135611.710000", "135612.170000", "135612.630000", "135613.090000", "135613.550000", "135614.010000", "135614.470000", "135614.930000", "135615.390000", "135615.850000", "135616.310000", "135616.770000", "135617.230000", "135617.690000", "135618.150000", "135618.610000", "135619.070000", "135619.530000", "135619.990000", "135620.450000", "135620.910000", "135621.370000", "135621.830000", "135622.290000", "135622.750000", "135623.210000", "135623.670000", "135624.130000", "135624.590000", "135625.050000", "135625.510000", "135625.970000", "135626.430000", "135626.890000", "135627.350000", "135627.810000", "135628.270000", "135628.730000", "135629.190000", "135629.650000", "135630.110000", "135630.570000", "135631.030000", "135631.490000", "135631.950000", "135632.410000", "135632.870000", "135633.330000", "135633.790000", "135634.250000", "135634.710000", "135635.170000", "135635.630000", "135636.090000", "135636.550000", "135637.010000", "135637.470000", "135637.930000", "135638.390000", "135638.850000", "135639.310000", "135639.770000", "135640.230000", "135640.690000", "135641.150000", "135641.610000", "135642.070000", "135642.530000", "135642.990000", "135643.450000", "135643.910000", "135644.370000", "135644.830000", "135645.290000", "135645.750000", "135646.210000", "135646.670000", "135647.130000", "135647.590000", "135648.050000", "135648.510000", "135648.970000", "135649.430000", "135649.890000", "135650.350000", "135650.810000", "135651.270000", "135651.730000", "135652.190000", "135652.650000", "135653.110000", "135653.570000", "135654.030000", "135654.490000", "135654.950000", "135655.410000", "135655.870000", "135656.330000", "135656.790000", "135657.250000", "135657.710000", "135658.170000", "135658.630000", "135659.090000", "135659.550000", "135700.010000", "135700.470000", "135700.930000", "135701.390000", "135701.850000", "135702.310000", "135702.770000", "135703.230000", "135703.690000", "135704.150000", "135704.610000", "135705.070000", "135705.530000", "135705.990000", "135706.450000", "135706.910000", "135707.370000", "135707.830000", "135708.290000", "135708.750000", "135709.210000", "135709.670000", "135710.130000", "135710.590000", "135711.050000", "135711.510000", "135711.970000", "135712.430000", "135712.890000", "135713.350000", "135713.810000", "135714.270000", "135714.730000", "135715.190000", "135715.650000", "135716.110000", "135716.570000", "135717.030000", "135717.490000", "135717.950000", "135718.410000", "135718.870000", "135719.330000", "135719.790000", "135720.250000", "135720.710000", "135721.170000", "135721.630000", "135722.090000", "135722.550000", "135723.010000", "135723.470000", "135723.930000", "135724.390000", "135724.850000", "135725.310000", "135725.770000", "135726.230000", "135726.690000", "135727.150000", "135727.610000", "135728.070000", "135728.530000", "135728.990000", "135729.450000", "135729.910000", "135730.370000", "135730.830000", "135731.290000", "135731.750000", "135732.210000", "135732.670000", "135733.130000", "135733.590000", "135734.050000", "135734.510000", "135734.970000", "135735.430000", "135735.890000", "135736.350000", "135736.810000", "135737.270000", "135737.730000", "135738.190000", "135738.650000", "135739.110000", "135739.570000", "135740.030000", "135740.490000", "135740.950000", "135741.410000", "135741.870000", "135742.330000", "135742.790000", "135743.250000", "135743.710000", "135744.170000", "135744.630000", "135745.090000", "135745.550000", "135746.010000", "135746.470000", "135746.930000", "135747.390000", "135747.850000", "135748.310000", "135748.770000", "135749.230000", "135749.690000", "135750.150000", "135750.610000", "135751.070000", "135751.530000", "135751.990000", "135752.450000", "135752.910000", "135753.370000", "135753.830000", "135754.290000", "135754.750000", "135755.210000", "135755.670000", "135756.130000", "135756.590000", "135757.050000", "135757.510000", "135757.970000", "135758.430000", "135758.890000", "135759.350000", "135759.810000", "135800.270000", "135800.730000", "135801.190000", "135801.650000", "135802.110000", "135802.570000", "135803.030000", "135803.490000", "135803.950000", "135804.410000", "135804.870000", "135805.330000", "135805.790000", "135806.250000", "135806.710000", "135807.170000", "135807.630000", "135808.090000", "135808.550000", "135809.010000", "135809.470000", "135809.930000", "135810.390000", "135810.850000", "135811.310000", "135811.770000", "135812.230000", "135812.690000", "135813.150000", "135813.610000", "135814.070000", "135814.530000", "135814.990000", "135815.450000", "135815.910000", "135816.370000", "135816.830000", "135817.290000", "135817.750000", "135818.210000", "135818.670000", "135819.130000", "135819.590000", "135820.050000", "135820.510000", "135820.970000", "135821.430000", "135821.890000", "135822.350000", "135822.810000", "135823.270000", "135823.730000", "135824.190000", "135824.650000", "135825.110000", "135825.570000", "135826.030000", "135826.490000", "135826.950000", "135827.410000", "135827.870000", "135828.330000", "135828.790000", "135829.250000", "135829.710000", "135830.170000", "135830.630000", "135831.090000", "135831.550000", "135832.010000", "135832.470000", "135832.930000", "135833.390000", "135833.850000", "135834.310000", "135834.770000", "135835.230000", "135835.690000", "135836.150000", "135836.610000", "135837.070000", "135837.530000", "135837.990000", "135838.450000", "135838.910000", "135839.370000", "135839.830000", "135840.290000", "135840.750000", "135841.210000", "135841.670000", "135842.130000", "135842.590000", "135843.050000", "135843.510000", "135843.970000", "135844.430000", "135844.890000", "135845.350000", "135845.810000", "135846.270000", "135846.730000", "135847.190000", "135847.650000", "135848.110000", "135848.570000", "135849.030000", "135849.490000", "135849.950000", "135850.410000", "135850.870000", "135851.330000", "135851.790000", "135852.250000", "135852.710000", "135853.170000", "135853.630000", "135854.090000", "135854.550000", "135855.010000", "135855.470000", "135855.930000", "135856.390000", "135856.850000", "135857.310000", "135857.770000", "135858.230000", "135858.690000", "135859.150000", "135859.610000", "135900.070000", "135900.530000", "135900.990000", "135901.450000", "135901.910000", "135902.370000", "135902.830000"],
