{
  "AcquisitionMatrixPE": 82,
  "AcquisitionNumber": 1,
  "AcquisitionTime": "13:36:48.222500",
  "BandwidthPerPixelPhaseEncode": 24.888,
  "BaseResolution": 82,
  "BodyPartExamined": "BRAIN",
  "ConsistencyInfo": "N4_VE11E_LATEST_20181129",
  "ConversionSoftware": "dcm2niix",
  "ConversionSoftwareVersion": "v1.0.20201102",
  "DerivedVendorReportedEchoSpacing": 0.00049,
  "DeviceSerialNumber": "66112",
  "DwellTime": 2e-06,
  "EchoTime": 0.0272,
  "EchoTrainLength": 82,
  "EffectiveEchoSpacing": 0.00049,
  "FlipAngle": 44,
  "ImageComments": "Unaliased MB8/PE3",
  "ImageOrientationPatientDICOM": [0.997067, -0.0535357, 0.0546863, 0.056443, 0.996994, -0.0530793],
  "ImageType": [
    "ORIGINAL",
    "PRIMARY",
    "M",
    "MB",
    "ND",
    "NORM",
    "MOSAIC"
],
  "ImagingFrequency": 123.252,
  "InPlanePhaseEncodingDirectionDICOM": "COL",
  "InstitutionAddress": "Maynard 3,Hanover,NH,US,03755",
  "InstitutionName": "Dartmouth College - PBS",
  "InstitutionalDepartmentName": "Department",
  "MRAcquisitionType": "2D",
  "MagneticFieldStrength": 3,
  "Manufacturer": "Siemens",
  "ManufacturersModelName": "Prisma",
  "Modality": "MR",
  "MultibandAccelerationFactor": 8,
  "PartialFourier": 1,
  "PatientPosition": "HFS",
  "PercentPhaseFOV": 100,
  "PercentSampling": 100,
  "PhaseEncodingDirection": "j-",
  "PhaseEncodingSteps": 82,
  "PhaseResolution": 1,
  "PixelBandwidth": 3050,
  "ProcedureStepDescription": "Wager_Wager^1076_spacetop",
  "ProtocolName": "func_run-01_task-faces_acq-ap-mb8",
  "PulseSequenceDetails": "%CustomerSeq%\\cmrr_mbep2d_bold",
  "ReceiveCoilActiveElements": "HEA;HEP",
  "ReceiveCoilName": "Head_32",
  "ReconMatrixPE": 82,
  "RepetitionTime": 0.46,
  "SAR": 0.0997711,
  "ScanOptions": "FS",
  "ScanningSequence": "EP",
  "SequenceName": "epfid2d1_82",
  "SequenceVariant": "SK\\SS",
  "SeriesDescription": "func_run-01_task-faces_acq-ap-mb8",
  "SeriesNumber": 18,
  "ShimSetting": [4172, -7758, -7285, 616, 77, -455, 93, 48],
  "SliceThickness": 2.7,
  "SliceTiming": [0, 0.25, 0.0625, 0.3125, 0.125, 0.3775, 0.1875, 0, 0.25, 0.0625, 0.3125, 0.125, 0.3775, 0.1875, 0, 0.25, 0.0625, 0.3125, 0.125, 0.3775, 0.1875, 0, 0.25, 0.0625, 0.3125, 0.125, 0.3775, 0.1875, 0, 0.25, 0.0625, 0.3125, 0.125, 0.3775, 0.1875, 0, 0.25, 0.0625, 0.3125, 0.125, 0.3775, 0.1875, 0, 0.25, 0.0625, 0.3125, 0.125, 0.3775, 0.1875, 0, 0.25, 0.0625, 0.3125, 0.125, 0.3775, 0.1875],
  "SoftwareVersions": "syngo MR E11",
  "SpacingBetweenSlices": 2.7,
  "StationName": "AWP66112",
  "TaskName": "faces",
  "TotalReadoutTime": 0.03969,
  "TxRefAmp": 236.868,
  "WipMemBlock": "2800e670-eb55-4e30-a7b1-fb96b0bc4942||Sequence: R016 ve11e/master r/434b28f1; Aug  7 2019 18:53:46 by eja",
  "dcmmeta_affine": [
    [-2.6750588417053223, 0.15143248438835144, 0.1395367980003357, 102.39361572265625],
    [0.14363239705562592, 2.6748616695404053, -0.15122778713703156, -98.73583221435547],
    [0.14671941101551056, 0.1424078643321991, 2.692147731781006, -92.37532806396484],
    [0.0, 0.0, 0.0, 1.0]
],
  "dcmmeta_reorient_transform": [
    [0.0, -1.0, 0.0, 81.0],
    [1.0, 0.0, 0.0, 0.0],
    [0.0, 0.0, 1.0, 0.0],
    [0.0, 0.0, 0.0, 1.0]
],
  "dcmmeta_shape": [82, 82, 56, 914],
  "dcmmeta_slice_dim": 2,
  "dcmmeta_version": 0.6,
  "global": {
    "const": {
      "AccessionNumber": "A004107",
      "AcquisitionMatrix": [82, 0, 0, 82],
      "AngioFlag": "N",
      "BitsAllocated": 16,
      "BitsStored": 16,
      "BodyPartExamined": "BRAIN",
      "Columns": 656,
      "EchoNumbers": 1,
      "EchoTime": 27.2,
      "EchoTrainLength": 82,
      "FlipAngle": 44.0,
      "HighBit": 15,
      "ImageOrientationPatient": [0.99706736658224, -0.0535357116357, 0.05468632440035, 0.05644301439761, 0.99699386895854, -0.0530792933713],
      "ImagePositionPatient": [-925.86266317271, -844.39075835825, -82.077708152281],
      "ImageType": [
        "ORIGINAL",
        "PRIMARY",
        "M",
        "MB",
        "ND",
        "NORM",
        "MOSAIC"
],
      "ImagedNucleus": "1H",
      "ImagingFrequency": 123.252231,
      "InPlanePhaseEncodingDirection": "COL",
      "MRAcquisitionType": "2D",
      "MagneticFieldStrength": 3.0,
      "Manufacturer": "SIEMENS",
      "ManufacturerModelName": "Prisma",
      "Modality": "MR",
      "NumberOfAverages": 1.0,
      "NumberOfPhaseEncodingSteps": 82,
      "PercentPhaseFieldOfView": 100.0,
      "PercentSampling": 100.0,
      "PerformedProcedureStepStartTime": "124203.350000",
      "PhotometricInterpretation": "MONOCHROME2",
      "PixelBandwidth": 3050.0,
      "PixelRepresentation": 0,
      "PixelSpacing": [2.6829268932343, 2.6829268932343],
      "ProtocolName": "func_run-01_task-faces_acq-ap-mb8",
      "RepetitionTime": 460.0,
      "Rows": 656,
      "SAR": 0.09977106087627,
      "SamplesPerPixel": 1,
      "ScanOptions": "FS",
      "ScanningSequence": "EP",
      "SequenceName": "epfid2d1_82",
      "SequenceVariant": [
        "SK",
        "SS"
],
      "SeriesDescription": "func_run-01_task-faces_acq-ap-mb8",
      "SeriesNumber": 18,
      "SeriesTime": "133705.535000",
      "SliceLocation": -81.284727165421,
      "SliceThickness": 2.7000000476837,
      "SmallestImagePixelValue": 0,
      "SoftwareVersions": "syngo MR E11",
      "SpacingBetweenSlices": 2.7000000525682,
      "SpecificCharacterSet": "ISO_IR 100",
      "StudyID": "2",
      "StudyTime": "124203.241000",
      "TransmitCoilName": "Body",
      "VariableFlipAngleFlag": "N",
      "WindowCenterWidthExplanation": "Algo1"
    },
    "slices": {}
  },
  "time": {
    "samples": {
      "AcquisitionNumber": [1, 2, 3, 4, 5, 6, 7, 8, 9, 10, 11, 12, 13, 14, 15, 16, 17, 18, 19, 20, 21, 22, 23, 24, 25, 26, 27, 28, 29, 30, 31, 32, 33, 34, 35, 36, 37, 38, 39, 40, 41, 42, 43, 44, 45, 46, 47, 48, 49, 50, 51, 52, 53, 54, 55, 56, 57, 58, 59, 60, 61, 62, 63, 64, 65, 66, 67, 68, 69, 70, 71, 72, 73, 74, 75, 76, 77, 78, 79, 80, 81, 82, 83, 84, 85, 86, 87, 88, 89, 90, 91, 92, 93, 94, 95, 96, 97, 98, 99, 100, 101, 102, 103, 104, 105, 106, 107, 108, 109, 110, 111, 112, 113, 114, 115, 116, 117, 118, 119, 120, 121, 122, 123, 124, 125, 126, 127, 128, 129, 130, 131, 132, 133, 134, 135, 136, 137, 138, 139, 140, 141, 142, 143, 144, 145, 146, 147, 148, 149, 150, 151, 152, 153, 154, 155, 156, 157, 158, 159, 160, 161, 162, 163, 164, 165, 166, 167, 168, 169, 170, 171, 172, 173, 174, 175, 176, 177, 178, 179, 180, 181, 182, 183, 184, 185, 186, 187, 188, 189, 190, 191, 192, 193, 194, 195, 196, 197, 198, 199, 200, 201, 202, 203, 204, 205, 206, 207, 208, 209, 210, 211, 212, 213, 214, 215, 216, 217, 218, 219, 220, 221, 222, 223, 224, 225, 226, 227, 228, 229, 230, 231, 232, 233, 234, 235, 236, 237, 238, 239, 240, 241, 242, 243, 244, 245, 246, 247, 248, 249, 250, 251, 252, 253, 254, 255, 256, 257, 258, 259, 260, 261, 262, 263, 264, 265, 266, 267, 268, 269, 270, 271, 272, 273, 274, 275, 276, 277, 278, 279, 280, 281, 282, 283, 284, 285, 286, 287, 288, 289, 290, 291, 292, 293, 294, 295, 296, 297, 298, 299, 300, 301, 302, 303, 304, 305, 306, 307, 308, 309, 310, 311, 312, 313, 314, 315, 316, 317, 318, 319, 320, 321, 322, 323, 324, 325, 326, 327, 328, 329, 330, 331, 332, 333, 334, 335, 336, 337, 338, 339, 340, 341, 342, 343, 344, 345, 346, 347, 348, 349, 350, 351, 352, 353, 354, 355, 356, 357, 358, 359, 360, 361, 362, 363, 364, 365, 366, 367, 368, 369, 370, 371, 372, 373, 374, 375, 376, 377, 378, 379, 380, 381, 382, 383, 384, 385, 386, 387, 388, 389, 390, 391, 392, 393, 394, 395, 396, 397, 398, 399, 400, 401, 402, 403, 404, 405, 406, 407, 408, 409, 410, 411, 412, 413, 414, 415, 416, 417, 418, 419, 420, 421, 422, 423, 424, 425, 426, 427, 428, 429, 430, 431, 432, 433, 434, 435, 436, 437, 438, 439, 440, 441, 442, 443, 444, 445, 446, 447, 448, 449, 450, 451, 452, 453, 454, 455, 456, 457, 458, 459, 460, 461, 462, 463, 464, 465, 466, 467, 468, 469, 470, 471, 472, 473, 474, 475, 476, 477, 478, 479, 480, 481, 482, 483, 484, 485, 486, 487, 488, 489, 490, 491, 492, 493, 494, 495, 496, 497, 498, 499, 500, 501, 502, 503, 504, 505, 506, 507, 508, 509, 510, 511, 512, 513, 514, 515, 516, 517, 518, 519, 520, 521, 522, 523, 524, 525, 526, 527, 528, 529, 530, 531, 532, 533, 534, 535, 536, 537, 538, 539, 540, 541, 542, 543, 544, 545, 546, 547, 548, 549, 550, 551, 552, 553, 554, 555, 556, 557, 558, 559, 560, 561, 562, 563, 564, 565, 566, 567, 568, 569, 570, 571, 572, 573, 574, 575, 576, 577, 578, 579, 580, 581, 582, 583, 584, 585, 586, 587, 588, 589, 590, 591, 592, 593, 594, 595, 596, 597, 598, 599, 600, 601, 602, 603, 604, 605, 606, 607, 608, 609, 610, 611, 612, 613, 614, 615, 616, 617, 618, 619, 620, 621, 622, 623, 624, 625, 626, 627, 628, 629, 630, 631, 632, 633, 634, 635, 636, 637, 638, 639, 640, 641, 642, 643, 644, 645, 646, 647, 648, 649, 650, 651, 652, 653, 654, 655, 656, 657, 658, 659, 660, 661, 662, 663, 664, 665, 666, 667, 668, 669, 670, 671, 672, 673, 674, 675, 676, 677, 678, 679, 680, 681, 682, 683, 684, 685, 686, 687, 688, 689, 690, 691, 692, 693, 694, 695, 696, 697, 698, 699, 700, 701, 702, 703, 704, 705, 706, 707, 708, 709, 710, 711, 712, 713, 714, 715, 716, 717, 718, 719, 720, 721, 722, 723, 724, 725, 726, 727, 728, 729, 730, 731, 732, 733, 734, 735, 736, 737, 738, 739, 740, 741, 742, 743, 744, 745, 746, 747, 748, 749, 750, 751, 752, 753, 754, 755, 756, 757, 758, 759, 760, 761, 762, 763, 764, 765, 766, 767, 768, 769, 770, 771, 772, 773, 774, 775, 776, 777, 778, 779, 780, 781, 782, 783, 784, 785, 786, 787, 788, 789, 790, 791, 792, 793, 794, 795, 796, 797, 798, 799, 800, 801, 802, 803, 804, 805, 806, 807, 808, 809, 810, 811, 812, 813, 814, 815, 816, 817, 818, 819, 820, 821, 822, 823, 824, 825, 826, 827, 828, 829, 830, 831, 832, 833, 834, 835, 836, 837, 838, 839, 840, 841, 842, 843, 844, 845, 846, 847, 848, 849, 850, 851, 852, 853, 854, 855, 856, 857, 858, 859, 860, 861, 862, 863, 864, 865, 866, 867, 868, 869, 870, 871, 872, 873, 874, 875, 876, 877, 878, 879, 880, 881, 882, 883, 884, 885, 886, 887, 888, 889, 890, 891, 892, 893, 894, 895, 896, 897, 898, 899, 900, 901, 902, 903, 904, 905, 906, 907, 908, 909, 910, 911, 912, 913, 914],
      "AcquisitionTime": ["133648.222500", "133648.682500", "133649.142500", "133649.602500", "133650.062500", "133650.522500", "133650.982500", "133651.442500", "133651.902500", "133652.362500", "133652.822500", "133653.282500", "133653.742500", "133654.202500", "133654.662500", "133655.122500", "133655.582500", "133656.042500", "133656.502500", "133656.962500", "133657.422500", "133657.882500", "133658.342500", "133658.802500", "133659.262500", "133659.722500", "133700.182500", "133700.642500", "133701.102500", "133701.562500", "133702.022500", "133702.482500", "133702.942500", "133703.402500", "133703.862500", "133704.322500", "133704.782500", "133705.242500", "133705.702500", "133706.162500", "133706.622500", "133707.082500", "133707.542500", "133708.002500", "133708.462500", "133708.922500", "133709.382500", "133709.842500", "133710.302500", "133710.762500", "133711.222500", "133711.682500", "133712.142500", "133712.602500", "133713.062500", "133713.522500", "133713.982500", "133714.442500", "133714.902500", "133715.362500", "133715.822500", "133716.282500", "133716.742500", "133717.202500", "133717.662500", "133718.122500", "133718.582500", "133719.042500", "133719.502500", "133719.962500", "133720.422500", "133720.882500", "133721.342500", "133721.802500", "133722.262500", "133722.722500", "133723.182500", "133723.642500", "133724.102500", "133724.562500", "133725.022500", "133725.482500", "133725.942500", "133726.402500", "133726.862500", "133727.322500", "133727.782500", "133728.242500", "133728.702500", "133729.162500", "133729.622500", "133730.082500", "133730.542500", "133731.002500", "133731.462500", "133731.922500", "133732.382500", "133732.842500", "133733.302500", "133733.762500", "133734.222500", "133734.682500", "133735.142500", "133735.602500", "133736.062500", "133736.522500", "133736.982500", "133737.442500", "133737.902500", "133738.362500", "133738.822500", "133739.282500", "133739.742500", "133740.202500", "133740.662500", "133741.122500", "133741.582500", "133742.042500", "133742.502500", "133742.962500", "133743.422500", "133743.882500", "133744.342500", "133744.802500", "133745.262500", "133745.722500", "133746.182500", "133746.642500", "133747.102500", "133747.562500", "133748.022500", "133748.482500", "133748.942500", "133749.402500", "133749.862500", "133750.322500", "133750.782500", "133751.242500", "133751.702500", "133752.162500", "133752.622500", "133753.082500", "133753.542500", "133754.002500", "133754.462500", "133754.922500", "133755.382500", "133755.842500", "133756.302500", "133756.762500", "133757.222500", "133757.682500", "133758.142500", "133758.602500", "133759.062500", "133759.522500", "133759.982500", "133800.442500", "133800.902500", "133801.362500", "133801.822500", "133802.282500", "133802.742500", "133803.202500", "133803.662500", "133804.122500", "133804.582500", "133805.042500", "133805.502500", "133805.962500", "133806.422500", "133806.882500", "133807.342500", "133807.802500", "133808.262500", "133808.722500", "133809.182500", "133809.642500", "133810.102500", "133810.562500", "133811.022500", "133811.482500", "133811.942500", "133812.402500", "133812.862500", "133813.322500", "133813.782500", "133814.242500", "133814.702500", "133815.162500", "133815.622500", "133816.082500", "133816.542500", "133817.002500", "133817.462500", "133817.922500", "133818.382500", "133818.842500", "133819.302500", "133819.762500", "133820.222500", "133820.682500", "133821.142500", "133821.602500", "133822.062500", "133822.522500", "133822.982500", "133823.442500", "133823.902500", "133824.362500", "133824.822500", "133825.282500", "133825.742500", "133826.202500", "133826.662500", "133827.122500", "133827.582500", "133828.042500", "133828.502500", "133828.962500", "133829.422500", "133829.882500", "133830.342500", "133830.802500", "133831.262500", "133831.722500", "133832.182500", "133832.642500", "133833.102500", "133833.562500", "133834.022500", "133834.482500", "133834.942500", "133835.402500", "133835.862500", "133836.322500", "133836.782500", "133837.242500", "133837.702500", "133838.162500", "133838.622500", "133839.082500", "133839.542500", "133840.002500", "133840.462500", "133840.922500", "133841.382500", "133841.842500", "133842.302500", "133842.762500", "133843.222500", "133843.682500", "133844.142500", "133844.602500", "133845.062500", "133845.522500", "133845.982500", "133846.442500", "133846.902500", "133847.362500", "133847.822500", "133848.282500", "133848.742500", "133849.202500", "133849.662500", "133850.122500", "133850.582500", "133851.042500", "133851.502500", "133851.962500", "133852.422500", "133852.882500", "133853.342500", "133853.802500", "133854.262500", "133854.722500", "133855.182500", "133855.642500", "133856.102500", "133856.562500", "133857.022500", "133857.482500", "133857.942500", "133858.402500", "133858.862500", "133859.322500", "133859.782500", "133900.242500", "133900.702500", "133901.162500", "133901.622500", "133902.082500", "133902.542500", "133903.002500", "133903.462500", "133903.922500", "133904.382500", "133904.842500", "133905.302500", "133905.762500", "133906.222500", "133906.682500", "133907.142500", "133907.602500", "133908.062500", "133908.522500", "133908.982500", "133909.442500", "133909.902500", "133910.362500", "133910.822500", "133911.282500", "133911.742500", "133912.202500", "133912.662500", "133913.122500", "133913.582500", "133914.042500", "133914.502500", "133914.962500", "133915.422500", "133915.882500", "133916.342500", "133916.802500", "133917.262500", "133917.722500", "133918.182500", "133918.642500", "133919.102500", "133919.562500", "133920.022500", "133920.482500", "133920.942500", "133921.402500", "133921.862500", "133922.322500", "133922.782500", "133923.242500", "133923.702500", "133924.162500", "133924.622500", "133925.082500", "133925.542500", "133926.002500", "133926.462500", "133926.922500", "133927.382500", "133927.842500", "133928.302500", "133928.762500", "133929.222500", "133929.682500", "133930.142500", "133930.602500", "133931.062500", "133931.522500", "133931.982500", "133932.442500", "133932.902500", "133933.362500", "133933.822500", "133934.282500", "133934.742500", "133935.202500", "133935.662500", "133936.122500", "133936.582500", "133937.042500", "133937.502500", "133937.962500", "133938.422500", "133938.882500", "133939.342500", "133939.802500", "133940.262500", "133940.722500", "133941.182500", "133941.642500", "133942.102500", "133942.562500", "133943.022500", "133943.482500", "133943.942500", "133944.402500", "133944.862500", "133945.322500", "133945.782500", "133946.242500", "133946.702500", "133947.162500", "133947.622500", "133948.082500", "133948.542500", "133949.002500", "133949.462500", "133949.922500", "133950.382500", "133950.842500", "133951.302500", "133951.762500", "133952.222500", "133952.682500", "133953.142500", "133953.602500", "133954.062500", "133954.522500", "133954.982500", "133955.442500", "133955.902500", "133956.362500", "133956.822500", "133957.282500", "133957.742500", "133958.202500", "133958.662500", "133959.122500", "133959.582500", "134000.042500", "134000.502500", "134000.962500", "134001.422500", "134001.882500", "134002.342500", "134002.802500", "134003.262500", "134003.722500", "134004.182500", "134004.642500", "134005.102500", "134005.562500", "134006.022500", "134006.482500", "134006.942500", "134007.402500", "134007.862500", "134008.322500", "134008.782500", "134009.242500", "134009.702500", "134010.162500", "134010.622500", "134011.082500", "134011.542500", "134012.002500", "134012.462500", "134012.922500", "134013.382500", "134013.842500", "134014.302500", "134014.762500", "134015.222500", "134015.682500", "134016.142500", "134016.602500", "134017.062500", "134017.522500", "134017.982500", "134018.442500", "134018.902500", "134019.362500", "134019.822500", "134020.282500", "134020.742500", "134021.202500", "134021.662500", "134022.122500", "134022.582500", "134023.042500", "134023.502500", "134023.962500", "134024.422500", "134024.882500", "134025.342500", "134025.802500", "134026.262500", "134026.722500", "134027.182500", "134027.642500", "134028.102500", "134028.562500", "134029.022500", "134029.482500", "134029.942500", "134030.402500", "134030.862500", "134031.322500", "134031.782500", "134032.242500", "134032.702500", "134033.162500", "134033.622500", "134034.082500", "134034.542500", "134035.002500", "134035.462500", "134035.922500", "134036.382500", "134036.842500", "134037.302500", "134037.762500", "134038.222500", "134038.682500", "134039.142500", "134039.602500", "134040.062500", "134040.522500", "134040.982500", "134041.442500", "134041.902500", "134042.362500", "134042.822500", "134043.282500", "134043.742500", "134044.202500", "134044.662500", "134045.122500", "134045.582500", "134046.042500", "134046.502500", "134046.962500", "134047.422500", "134047.882500", "134048.342500", "134048.802500", "134049.262500", "134049.722500", "134050.182500", "134050.642500", "134051.102500", "134051.562500", "134052.022500", "134052.482500", "134052.942500", "134053.402500", "134053.862500", "134054.322500", "134054.782500", "134055.242500", "134055.702500", "134056.162500", "134056.622500", "134057.082500", "134057.542500", "134058.002500", "134058.462500", "134058.922500", "134059.382500", "134059.842500", "134100.302500", "134100.762500", "134101.222500", "134101.682500", "134102.142500", "134102.602500", "134103.062500", "134103.522500", "134103.982500", "134104.442500", "134104.902500", "134105.362500", "134105.822500", "134106.282500", "134106.742500", "134107.202500", "134107.662500", "134108.122500", "134108.582500", "134109.042500", "134109.502500", "134109.962500", "134110.422500", "134110.882500", "134111.342500", "134111.802500", "134112.262500", "134112.722500", "134113.182500", "134113.642500", "134114.102500", "134114.562500", "134115.022500", "134115.482500", "134115.942500", "134116.402500", "134116.862500", "134117.322500", "134117.782500", "134118.242500", "134118.702500", "134119.162500", "134119.622500", "134120.082500", "134120.542500", "134121.002500", "134121.462500", "134121.922500", "134122.382500", "134122.842500", "134123.302500", "134123.762500", "134124.222500", "134124.682500", "134125.142500", "134125.602500", "134126.062500", "134126.522500", "134126.982500", "134127.442500", "134127.902500", "134128.362500", "134128.822500", "134129.282500", "134129.742500", "134130.202500", "134130.662500", "134131.122500", "134131.582500", "134132.042500", "134132.502500", "134132.962500", "134133.422500", "134133.882500", "134134.342500", "134134.802500", "134135.262500", "134135.722500", "134136.182500", "134136.642500", "134137.102500", "134137.562500", "134138.022500", "134138.482500", "134138.942500", "134139.402500", "134139.862500", "134140.322500", "134140.782500", "134141.242500", "134141.702500", "134142.162500", "134142.622500", "134143.082500", "134143.542500", "134144.002500", "134144.462500", "134144.922500", "134145.382500", "134145.842500", "134146.302500", "134146.762500", "134147.222500", "134147.682500", "134148.142500", "134148.602500", "134149.062500", "134149.522500", "134149.982500", "134150.442500", "134150.902500", "134151.362500", "134151.822500", "134152.282500", "134152.742500", "134153.202500", "134153.662500", "134154.122500", "134154.582500", "134155.042500", "134155.502500", "134155.962500", "134156.422500", "134156.882500", "134157.342500", "134157.802500", "134158.262500", "134158.722500", "134159.182500", "134159.642500", "134200.102500", "134200.562500", "134201.022500", "134201.482500", "134201.942500", "134202.402500", "134202.862500", "134203.322500", "134203.782500", "134204.242500", "134204.702500", "134205.162500", "134205.622500", "134206.082500", "134206.542500", "134207.002500", "134207.462500", "134207.922500", "134208.382500", "134208.842500", "134209.302500", "134209.762500", "134210.222500", "134210.682500", "134211.142500", "134211.602500", "134212.062500", "134212.522500", "134212.982500", "134213.442500", "134213.902500", "134214.362500", "134214.822500", "134215.282500", "134215.742500", "134216.202500", "134216.662500", "134217.122500", "134217.582500", "134218.042500", "134218.502500", "134218.962500", "134219.422500", "134219.882500", "134220.342500", "134220.802500", "134221.262500", "134221.722500", "134222.182500", "134222.642500", "134223.102500", "134223.562500", "134224.022500", "134224.482500", "134224.942500", "134225.402500", "134225.862500", "134226.322500", "134226.782500", "134227.242500", "134227.702500", "134228.162500", "134228.622500", "134229.082500", "134229.542500", "134230.002500", "134230.462500", "134230.922500", "134231.382500", "134231.842500", "134232.302500", "134232.762500", "134233.222500", "134233.682500", "134234.142500", "134234.602500", "134235.062500", "134235.522500", "134235.982500", "134236.442500", "134236.902500", "134237.362500", "134237.822500", "134238.282500", "134238.742500", "134239.202500", "134239.662500", "134240.122500", "134240.582500", "134241.042500", "134241.502500", "134241.962500", "134242.422500", "134242.882500", "134243.342500", "134243.802500", "134244.262500", "134244.722500", "134245.182500", "134245.642500", "134246.102500", "134246.562500", "134247.022500", "134247.482500", "134247.942500", "134248.402500", "134248.862500", "134249.322500", "134249.782500", "134250.242500", "134250.702500", "134251.162500", "134251.622500", "134252.082500", "134252.542500", "134253.002500", "134253.462500", "134253.922500", "134254.382500", "134254.842500", "134255.302500", "134255.762500", "134256.222500", "134256.682500", "134257.142500", "134257.602500", "134258.062500", "134258.522500", "134258.982500", "134259.442500", "134259.902500", "134300.362500", "134300.822500", "134301.282500", "134301.742500", "134302.202500", "134302.662500", "134303.122500", "134303.582500", "134304.042500", "134304.502500", "134304.962500", "134305.422500", "134305.882500", "134306.342500", "134306.802500", "134307.262500", "134307.722500", "134308.182500", "134308.642500", "134309.102500", "134309.562500", "134310.022500", "134310.482500", "134310.942500", "134311.402500", "134311.862500", "134312.322500", "134312.782500", "134313.242500", "134313.702500", "134314.162500", "134314.622500", "134315.082500", "134315.542500", "134316.002500", "134316.462500", "134316.922500", "134317.382500", "134317.842500", "134318.302500", "134318.762500", "134319.222500", "134319.682500", "134320.142500", "134320.602500", "134321.062500", "134321.522500", "134321.982500", "134322.442500", "134322.902500", "134323.362500", "134323.822500", "134324.282500", "134324.742500", "134325.202500", "134325.662500", "134326.122500", "134326.582500", "134327.042500", "134327.502500", "134327.962500", "134328.422500", "134328.882500", "134329.342500", "134329.802500", "134330.262500", "134330.722500", "134331.182500", "134331.642500", "134332.102500", "134332.562500", "134333.022500", "134333.482500", "134333.942500", "134334.402500", "134334.862500", "134335.322500", "134335.782500", "134336.242500", "134336.702500", "134337.162500", "134337.622500", "134338.082500", "134338.542500", "134339.002500", "134339.462500", "134339.922500", "134340.382500", "134340.842500", "134341.302500", "134341.762500", "134342.222500", "134342.682500", "134343.142500", "134343.602500", "134344.062500", "134344.522500", "134344.982500", "134345.442500", "134345.902500", "134346.362500", "134346.822500", "134347.282500", "134347.742500", "134348.202500"],
