{
  "AcquisitionMatrixPE": 82,
  "AcquisitionNumber": 1,
  "AcquisitionTime": "16:57:14.065000",
  "BandwidthPerPixelPhaseEncode": 24.888,
  "BaseResolution": 82,
  "BodyPartExamined": "BRAIN",
  "ConsistencyInfo": "N4_VE11E_LATEST_20181129",
  "ConversionSoftware": "dcm2niix",
  "ConversionSoftwareVersion": "v1.0.20201102",
  "DerivedVendorReportedEchoSpacing": 0.00049,
  "DeviceSerialNumber": "66112",
  "DwellTime": 2e-06,
  "EchoTime": 0.0272,
  "EchoTrainLength": 82,
  "EffectiveEchoSpacing": 0.00049,
  "FlipAngle": 44,
  "ImageComments": "Unaliased MB8/PE3",
  "ImageOrientationPatientDICOM": [0.997216, 0.0151016, 0.0730226, -0.00678791, 0.993596, -0.112785],
  "ImageType": [
    "ORIGINAL",
    "PRIMARY",
    "M",
    "MB",
    "ND",
    "NORM",
    "MOSAIC"
],
  "ImagingFrequency": 123.259,
  "InPlanePhaseEncodingDirectionDICOM": "COL",
  "InstitutionAddress": "Maynard 3,Hanover,NH,US,03755",
  "InstitutionName": "Dartmouth College - PBS",
  "InstitutionalDepartmentName": "Department",
  "MRAcquisitionType": "2D",
  "MagneticFieldStrength": 3,
  "Manufacturer": "Siemens",
  "ManufacturersModelName": "Prisma",
  "Modality": "MR",
  "MultibandAccelerationFactor": 8,
  "PartialFourier": 1,
  "PatientPosition": "HFS",
  "PercentPhaseFOV": 100,
  "PercentSampling": 100,
  "PhaseEncodingDirection": "j-",
  "PhaseEncodingSteps": 82,
  "PhaseResolution": 1,
  "PixelBandwidth": 3050,
  "ProcedureStepDescription": "Wager_Wager^1076_spacetop",
  "ProtocolName": "func_run-01_task-social_acq-ap-mb8",
  "PulseSequenceDetails": "%CustomerSeq%\\cmrr_mbep2d_bold",
  "ReceiveCoilActiveElements": "HEA;HEP",
  "ReceiveCoilName": "Head_32",
  "ReconMatrixPE": 82,
  "RepetitionTime": 0.46,
  "SAR": 0.102242,
  "ScanOptions": "FS",
  "ScanningSequence": "EP",
  "SequenceName": "epfid2d1_82",
  "SequenceVariant": "SK\\SS",
  "SeriesDescription": "func_run-01_task-social_acq-ap-mb8",
  "SeriesNumber": 12,
  "ShimSetting": [4215, -7782, -7153, 449, -149, -108, 69, 54],
  "SliceThickness": 2.7,
  "SliceTiming": [0, 0.2525, 0.065, 0.315, 0.1275, 0.3775, 0.19, 0, 0.2525, 0.065, 0.315, 0.1275, 0.3775, 0.19, 0, 0.2525, 0.065, 0.315, 0.1275, 0.3775, 0.19, 0, 0.2525, 0.065, 0.315, 0.1275, 0.3775, 0.19, 0, 0.2525, 0.065, 0.315, 0.1275, 0.3775, 0.19, 0, 0.2525, 0.065, 0.315, 0.1275, 0.3775, 0.19, 0, 0.2525, 0.065, 0.315, 0.1275, 0.3775, 0.19, 0, 0.2525, 0.065, 0.315, 0.1275, 0.3775, 0.19],
  "SoftwareVersions": "syngo MR E11",
  "SpacingBetweenSlices": 2.7,
  "StationName": "AWP66112",
  "TaskName": "social",
  "TotalReadoutTime": 0.03969,
  "TxRefAmp": 249.882,
  "WipMemBlock": "c7e9af86-d4c8-43ec-8ab5-5a1734fc757a||Sequence: R016 ve11e/master r/434b28f1; Aug  7 2019 18:53:46 by eja",
  "dcmmeta_affine": [
    [-2.67545747756958, -0.01821145787835121, 0.2004970908164978, 107.6607437133789],
    [-0.040516484528779984, 2.665745973587036, -0.3023345470428467, -92.9205551147461],
    [0.19591420888900757, 0.3025950491428375, 2.6755177974700928, -72.20914459228516],
    [0.0, 0.0, 0.0, 1.0]
],
  "dcmmeta_reorient_transform": [
    [0.0, -1.0, 0.0, 81.0],
    [1.0, 0.0, 0.0, 0.0],
    [0.0, 0.0, 1.0, 0.0],
    [0.0, 0.0, 0.0, 1.0]
],
  "dcmmeta_shape": [82, 82, 56, 872],
  "dcmmeta_slice_dim": 2,
  "dcmmeta_version": 0.6,
  "global": {
    "const": {
      "AccessionNumber": "A004796",
      "AcquisitionMatrix": [82, 0, 0, 82],
      "AngioFlag": "N",
      "BitsAllocated": 16,
      "BitsStored": 16,
      "BodyPartExamined": "BRAIN",
      "Columns": 656,
      "EchoNumbers": 1,
      "EchoTime": 27.2,
      "EchoTrainLength": 82,
      "FlipAngle": 44.0,
      "HighBit": 15,
      "ImageOrientationPatient": [0.99721594793471, 0.0151015980035, 0.07302256447442, -0.0067879066469, 0.99359618108884, -0.1127854301274],
      "ImagePositionPatient": [-868.81522274234, -899.7021739118, -17.081538108912],
      "ImageType": [
        "ORIGINAL",
        "PRIMARY",
        "M",
        "MB",
        "ND",
        "NORM",
        "MOSAIC"
],
      "ImagedNucleus": "1H",
      "ImagingFrequency": 123.259034,
      "InPlanePhaseEncodingDirection": "COL",
      "MRAcquisitionType": "2D",
      "MagneticFieldStrength": 3.0,
      "Manufacturer": "SIEMENS",
      "ManufacturerModelName": "Prisma",
      "Modality": "MR",
      "NumberOfAverages": 1.0,
      "NumberOfPhaseEncodingSteps": 82,
      "PercentPhaseFieldOfView": 100.0,
      "PercentSampling": 100.0,
      "PerformedProcedureStepStartTime": "161103.935000",
      "PhotometricInterpretation": "MONOCHROME2",
      "PixelBandwidth": 3050.0,
      "PixelRepresentation": 0,
      "PixelSpacing": [2.6829268932343, 2.6829268932343],
      "ProtocolName": "func_run-01_task-social_acq-ap-mb8",
      "RepetitionTime": 460.0,
      "Rows": 656,
      "SAR": 0.10224149822654,
      "SamplesPerPixel": 1,
      "ScanOptions": "FS",
      "ScanningSequence": "EP",
      "SequenceName": "epfid2d1_82",
      "SequenceVariant": [
        "SK",
        "SS"
],
      "SeriesDescription": "func_run-01_task-social_acq-ap-mb8",
      "SeriesNumber": 12,
      "SeriesTime": "165738.830000",
      "SliceLocation": -53.15484628406,
      "SliceThickness": 2.7000000476837,
      "SmallestImagePixelValue": 0,
      "SoftwareVersions": "syngo MR E11",
      "SpacingBetweenSlices": 2.7000000321925,
      "SpecificCharacterSet": "ISO_IR 100",
      "StudyID": "1",
      "StudyTime": "161103.865000",
      "TransmitCoilName": "Body",
      "VariableFlipAngleFlag": "N",
      "WindowCenterWidthExplanation": "Algo1"
    },
    "slices": {}
  },
  "time": {
    "samples": {
      "AcquisitionNumber": [1, 2, 3, 4, 5, 6, 7, 8, 9, 10, 11, 12, 13, 14, 15, 16, 17, 18, 19, 20, 21, 22, 23, 24, 25, 26, 27, 28, 29, 30, 31, 32, 33, 34, 35, 36, 37, 38, 39, 40, 41, 42, 43, 44, 45, 46, 47, 48, 49, 50, 51, 52, 53, 54, 55, 56, 57, 58, 59, 60, 61, 62, 63, 64, 65, 66, 67, 68, 69, 70, 71, 72, 73, 74, 75, 76, 77, 78, 79, 80, 81, 82, 83, 84, 85, 86, 87, 88, 89, 90, 91, 92, 93, 94, 95, 96, 97, 98, 99, 100, 101, 102, 103, 104, 105, 106, 107, 108, 109, 110, 111, 112, 113, 114, 115, 116, 117, 118, 119, 120, 121, 122, 123, 124, 125, 126, 127, 128, 129, 130, 131, 132, 133, 134, 135, 136, 137, 138, 139, 140, 141, 142, 143, 144, 145, 146, 147, 148, 149, 150, 151, 152, 153, 154, 155, 156, 157, 158, 159, 160, 161, 162, 163, 164, 165, 166, 167, 168, 169, 170, 171, 172, 173, 174, 175, 176, 177, 178, 179, 180, 181, 182, 183, 184, 185, 186, 187, 188, 189, 190, 191, 192, 193, 194, 195, 196, 197, 198, 199, 200, 201, 202, 203, 204, 205, 206, 207, 208, 209, 210, 211, 212, 213, 214, 215, 216, 217, 218, 219, 220, 221, 222, 223, 224, 225, 226, 227, 228, 229, 230, 231, 232, 233, 234, 235, 236, 237, 238, 239, 240, 241, 242, 243, 244, 245, 246, 247, 248, 249, 250, 251, 252, 253, 254, 255, 256, 257, 258, 259, 260, 261, 262, 263, 264, 265, 266, 267, 268, 269, 270, 271, 272, 273, 274, 275, 276, 277, 278, 279, 280, 281, 282, 283, 284, 285, 286, 287, 288, 289, 290, 291, 292, 293, 294, 295, 296, 297, 298, 299, 300, 301, 302, 303, 304, 305, 306, 307, 308, 309, 310, 311, 312, 313, 314, 315, 316, 317, 318, 319, 320, 321, 322, 323, 324, 325, 326, 327, 328, 329, 330, 331, 332, 333, 334, 335, 336, 337, 338, 339, 340, 341, 342, 343, 344, 345, 346, 347, 348, 349, 350, 351, 352, 353, 354, 355, 356, 357, 358, 359, 360, 361, 362, 363, 364, 365, 366, 367, 368, 369, 370, 371, 372, 373, 374, 375, 376, 377, 378, 379, 380, 381, 382, 383, 384, 385, 386, 387, 388, 389, 390, 391, 392, 393, 394, 395, 396, 397, 398, 399, 400, 401, 402, 403, 404, 405, 406, 407, 408, 409, 410, 411, 412, 413, 414, 415, 416, 417, 418, 419, 420, 421, 422, 423, 424, 425, 426, 427, 428, 429, 430, 431, 432, 433, 434, 435, 436, 437, 438, 439, 440, 441, 442, 443, 444, 445, 446, 447, 448, 449, 450, 451, 452, 453, 454, 455, 456, 457, 458, 459, 460, 461, 462, 463, 464, 465, 466, 467, 468, 469, 470, 471, 472, 473, 474, 475, 476, 477, 478, 479, 480, 481, 482, 483, 484, 485, 486, 487, 488, 489, 490, 491, 492, 493, 494, 495, 496, 497, 498, 499, 500, 501, 502, 503, 504, 505, 506, 507, 508, 509, 510, 511, 512, 513, 514, 515, 516, 517, 518, 519, 520, 521, 522, 523, 524, 525, 526, 527, 528, 529, 530, 531, 532, 533, 534, 535, 536, 537, 538, 539, 540, 541, 542, 543, 544, 545, 546, 547, 548, 549, 550, 551, 552, 553, 554, 555, 556, 557, 558, 559, 560, 561, 562, 563, 564, 565, 566, 567, 568, 569, 570, 571, 572, 573, 574, 575, 576, 577, 578, 579, 580, 581, 582, 583, 584, 585, 586, 587, 588, 589, 590, 591, 592, 593, 594, 595, 596, 597, 598, 599, 600, 601, 602, 603, 604, 605, 606, 607, 608, 609, 610, 611, 612, 613, 614, 615, 616, 617, 618, 619, 620, 621, 622, 623, 624, 625, 626, 627, 628, 629, 630, 631, 632, 633, 634, 635, 636, 637, 638, 639, 640, 641, 642, 643, 644, 645, 646, 647, 648, 649, 650, 651, 652, 653, 654, 655, 656, 657, 658, 659, 660, 661, 662, 663, 664, 665, 666, 667, 668, 669, 670, 671, 672, 673, 674, 675, 676, 677, 678, 679, 680, 681, 682, 683, 684, 685, 686, 687, 688, 689, 690, 691, 692, 693, 694, 695, 696, 697, 698, 699, 700, 701, 702, 703, 704, 705, 706, 707, 708, 709, 710, 711, 712, 713, 714, 715, 716, 717, 718, 719, 720, 721, 722, 723, 724, 725, 726, 727, 728, 729, 730, 731, 732, 733, 734, 735, 736, 737, 738, 739, 740, 741, 742, 743, 744, 745, 746, 747, 748, 749, 750, 751, 752, 753, 754, 755, 756, 757, 758, 759, 760, 761, 762, 763, 764, 765, 766, 767, 768, 769, 770, 771, 772, 773, 774, 775, 776, 777, 778, 779, 780, 781, 782, 783, 784, 785, 786, 787, 788, 789, 790, 791, 792, 793, 794, 795, 796, 797, 798, 799, 800, 801, 802, 803, 804, 805, 806, 807, 808, 809, 810, 811, 812, 813, 814, 815, 816, 817, 818, 819, 820, 821, 822, 823, 824, 825, 826, 827, 828, 829, 830, 831, 832, 833, 834, 835, 836, 837, 838, 839, 840, 841, 842, 843, 844, 845, 846, 847, 848, 849, 850, 851, 852, 853, 854, 855, 856, 857, 858, 859, 860, 861, 862, 863, 864, 865, 866, 867, 868, 869, 870, 871, 872],
      "AcquisitionTime": ["165714.065000", "165714.525000", "165714.985000", "165715.445000", "165715.905000", "165716.365000", "165716.825000", "165717.285000", "165717.745000", "165718.205000", "165718.665000", "165719.125000", "165719.585000", "165720.045000", "165720.505000", "165720.965000", "165721.425000", "165721.885000", "165722.345000", "165722.805000", "165723.265000", "165723.725000", "165724.185000", "165724.645000", "165725.105000", "165725.565000", "165726.025000", "165726.485000", "165726.945000", "165727.405000", "165727.865000", "165728.325000", "165728.785000", "165729.245000", "165729.705000", "165730.165000", "165730.625000", "165731.085000", "165731.545000", "165732.005000", "165732.465000", "165732.925000", "165733.385000", "165733.845000", "165734.305000", "165734.765000", "165735.225000", "165735.685000", "165736.145000", "165736.605000", "165737.065000", "165737.525000", "165737.985000", "165738.445000", "165738.905000", "165739.365000", "165739.825000", "165740.285000", "165740.745000", "165741.205000", "165741.665000", "165742.125000", "165742.585000", "165743.045000", "165743.505000", "165743.965000", "165744.425000", "165744.885000", "165745.345000", "165745.805000", "165746.265000", "165746.725000", "165747.185000", "165747.645000", "165748.105000", "165748.565000", "165749.025000", "165749.485000", "165749.945000", "165750.405000", "165750.865000", "165751.325000", "165751.785000", "165752.245000", "165752.705000", "165753.165000", "165753.625000", "165754.085000", "165754.545000", "165755.005000", "165755.465000", "165755.925000", "165756.385000", "165756.845000", "165757.305000", "165757.765000", "165758.225000", "165758.685000", "165759.145000", "165759.605000", "165800.065000", "165800.525000", "165800.985000", "165801.445000", "165801.905000", "165802.365000", "165802.825000", "165803.285000", "165803.745000", "165804.205000", "165804.665000", "165805.125000", "165805.585000", "165806.045000", "165806.505000", "165806.965000", "165807.425000", "165807.885000", "165808.345000", "165808.805000", "165809.265000", "165809.725000", "165810.185000", "165810.645000", "165811.105000", "165811.565000", "165812.025000", "165812.485000", "165812.945000", "165813.405000", "165813.865000", "165814.325000", "165814.785000", "165815.245000", "165815.705000", "165816.165000", "165816.625000", "165817.085000", "165817.545000", "165818.005000", "165818.465000", "165818.925000", "165819.385000", "165819.845000", "165820.305000", "165820.765000", "165821.225000", "165821.685000", "165822.145000", "165822.605000", "165823.065000", "165823.525000", "165823.985000", "165824.445000", "165824.905000", "165825.365000", "165825.825000", "165826.285000", "165826.745000", "165827.205000", "165827.665000", "165828.125000", "165828.585000", "165829.045000", "165829.505000", "165829.965000", "165830.425000", "165830.885000", "165831.345000", "165831.805000", "165832.265000", "165832.725000", "165833.185000", "165833.645000", "165834.105000", "165834.565000", "165835.025000", "165835.485000", "165835.945000", "165836.405000", "165836.865000", "165837.325000", "165837.785000", "165838.245000", "165838.705000", "165839.165000", "165839.625000", "165840.085000", "165840.545000", "165841.005000", "165841.465000", "165841.925000", "165842.385000", "165842.845000", "165843.305000", "165843.765000", "165844.225000", "165844.685000", "165845.145000", "165845.605000", "165846.065000", "165846.525000", "165846.985000", "165847.445000", "165847.905000", "165848.365000", "165848.825000", "165849.285000", "165849.745000", "165850.205000", "165850.665000", "165851.125000", "165851.585000", "165852.045000", "165852.505000", "165852.965000", "165853.425000", "165853.885000", "165854.345000", "165854.805000", "165855.265000", "165855.725000", "165856.185000", "165856.645000", "165857.105000", "165857.565000", "165858.025000", "165858.485000", "165858.945000", "165859.405000", "165859.865000", "165900.325000", "165900.785000", "165901.245000", "165901.705000", "165902.165000", "165902.625000", "165903.085000", "165903.545000", "165904.005000", "165904.465000", "165904.925000", "165905.385000", "165905.845000", "165906.305000", "165906.765000", "165907.225000", "165907.685000", "165908.145000", "165908.605000", "165909.065000", "165909.525000", "165909.985000", "165910.445000", "165910.905000", "165911.365000", "165911.825000", "165912.285000", "165912.745000", "165913.205000", "165913.665000", "165914.125000", "165914.585000", "165915.045000", "165915.505000", "165915.965000", "165916.425000", "165916.885000", "165917.345000", "165917.805000", "165918.265000", "165918.725000", "165919.185000", "165919.645000", "165920.105000", "165920.565000", "165921.025000", "165921.485000", "165921.945000", "165922.405000", "165922.865000", "165923.325000", "165923.785000", "165924.245000", "165924.705000", "165925.165000", "165925.625000", "165926.085000", "165926.545000", "165927.005000", "165927.465000", "165927.925000", "165928.385000", "165928.845000", "165929.305000", "165929.765000", "165930.225000", "165930.685000", "165931.145000", "165931.605000", "165932.065000", "165932.525000", "165932.985000", "165933.445000", "165933.905000", "165934.365000", "165934.825000", "165935.285000", "165935.745000", "165936.205000", "165936.665000", "165937.125000", "165937.585000", "165938.045000", "165938.505000", "165938.965000", "165939.425000", "165939.885000", "165940.345000", "165940.805000", "165941.265000", "165941.725000", "165942.185000", "165942.645000", "165943.105000", "165943.565000", "165944.025000", "165944.485000", "165944.945000", "165945.405000", "165945.865000", "165946.325000", "165946.785000", "165947.245000", "165947.705000", "165948.165000", "165948.625000", "165949.085000", "165949.545000", "165950.005000", "165950.465000", "165950.925000", "165951.385000", "165951.845000", "165952.305000", "165952.765000", "165953.225000", "165953.685000", "165954.145000", "165954.605000", "165955.065000", "165955.525000", "165955.985000", "165956.445000", "165956.905000", "165957.365000", "165957.825000", "165958.285000", "165958.745000", "165959.205000", "165959.665000", "170000.125000", "170000.585000", "170001.045000", "170001.505000", "170001.965000", "170002.425000", "170002.885000", "170003.345000", "170003.805000", "170004.265000", "170004.725000", "170005.185000", "170005.645000", "170006.105000", "170006.565000", "170007.025000", "170007.485000", "170007.945000", "170008.405000", "170008.865000", "170009.325000", "170009.785000", "170010.245000", "170010.705000", "170011.165000", "170011.625000", "170012.085000", "170012.545000", "170013.005000", "170013.465000", "170013.925000", "170014.385000", "170014.845000", "170015.305000", "170015.765000", "170016.225000", "170016.685000", "170017.145000", "170017.605000", "170018.065000", "170018.525000", "170018.985000", "170019.445000", "170019.905000", "170020.365000", "170020.825000", "170021.285000", "170021.745000", "170022.205000", "170022.665000", "170023.125000", "170023.585000", "170024.045000", "170024.505000", "170024.965000", "170025.425000", "170025.885000", "170026.345000", "170026.805000", "170027.265000", "170027.725000", "170028.185000", "170028.645000", "170029.105000", "170029.565000", "170030.025000", "170030.485000", "170030.945000", "170031.405000", "170031.865000", "170032.325000", "170032.785000", "170033.245000", "170033.705000", "170034.165000", "170034.625000", "170035.085000", "170035.545000", "170036.005000", "170036.465000", "170036.925000", "170037.385000", "170037.845000", "170038.305000", "170038.765000", "170039.225000", "170039.685000", "170040.145000", "170040.605000", "170041.065000", "170041.525000", "170041.985000", "170042.445000", "170042.905000", "170043.365000", "170043.825000", "170044.285000", "170044.745000", "170045.205000", "170045.665000", "170046.125000", "170046.585000", "170047.045000", "170047.505000", "170047.965000", "170048.425000", "170048.885000", "170049.345000", "170049.805000", "170050.265000", "170050.725000", "170051.185000", "170051.645000", "170052.105000", "170052.565000", "170053.025000", "170053.485000", "170053.945000", "170054.405000", "170054.865000", "170055.325000", "170055.785000", "170056.245000", "170056.705000", "170057.165000", "170057.625000", "170058.085000", "170058.545000", "170059.005000", "170059.465000", "170059.925000", "170100.385000", "170100.845000", "170101.305000", "170101.765000", "170102.225000", "170102.685000", "170103.145000", "170103.605000", "170104.065000", "170104.525000", "170104.985000", "170105.445000", "170105.905000", "170106.365000", "170106.825000", "170107.285000", "170107.745000", "170108.205000", "170108.665000", "170109.125000", "170109.585000", "170110.045000", "170110.505000", "170110.965000", "170111.425000", "170111.885000", "170112.345000", "170112.805000", "170113.265000", "170113.725000", "170114.185000", "170114.645000", "170115.105000", "170115.565000", "170116.025000", "170116.485000", "170116.945000", "170117.405000", "170117.865000", "170118.325000", "170118.785000", "170119.245000", "170119.705000", "170120.165000", "170120.625000", "170121.085000", "170121.545000", "170122.005000", "170122.465000", "170122.925000", "170123.385000", "170123.845000", "170124.305000", "170124.765000", "170125.225000", "170125.685000", "170126.145000", "170126.605000", "170127.065000", "170127.525000", "170127.985000", "170128.445000", "170128.905000", "170129.365000", "170129.825000", "170130.285000", "170130.745000", "170131.205000", "170131.665000", "170132.125000", "170132.585000", "170133.045000", "170133.505000", "170133.965000", "170134.425000", "170134.885000", "170135.345000", "170135.805000", "170136.265000", "170136.725000", "170137.185000", "170137.645000", "170138.105000", "170138.565000", "170139.025000", "170139.485000", "170139.945000", "170140.405000", "170140.865000", "170141.325000", "170141.785000", "170142.245000", "170142.705000", "170143.165000", "170143.625000", "170144.085000", "170144.545000", "170145.005000", "170145.465000", "170145.925000", "170146.385000", "170146.845000", "170147.305000", "170147.765000", "170148.225000", "170148.685000", "170149.145000", "170149.605000", "170150.065000", "170150.525000", "170150.985000", "170151.445000", "170151.905000", "170152.365000", "170152.825000", "170153.285000", "170153.745000", "170154.205000", "170154.665000", "170155.125000", "170155.585000", "170156.045000", "170156.505000", "170156.965000", "170157.425000", "170157.885000", "170158.345000", "170158.805000", "170159.265000", "170159.725000", "170200.185000", "170200.645000", "170201.105000", "170201.565000", "170202.025000", "170202.485000", "170202.945000", "170203.405000", "170203.865000", "170204.325000", "170204.785000", "170205.245000", "170205.705000", "170206.165000", "170206.625000", "170207.085000", "170207.545000", "170208.005000", "170208.465000", "170208.925000", "170209.385000", "170209.845000", "170210.305000", "170210.765000", "170211.225000", "170211.685000", "170212.145000", "170212.605000", "170213.065000", "170213.525000", "170213.985000", "170214.445000", "170214.905000", "170215.365000", "170215.825000", "170216.285000", "170216.745000", "170217.205000", "170217.665000", "170218.125000", "170218.585000", "170219.045000", "170219.505000", "170219.965000", "170220.425000", "170220.885000", "170221.345000", "170221.805000", "170222.265000", "170222.725000", "170223.185000", "170223.645000", "170224.105000", "170224.565000", "170225.025000", "170225.485000", "170225.945000", "170226.405000", "170226.865000", "170227.325000", "170227.785000", "170228.245000", "170228.705000", "170229.165000", "170229.625000", "170230.085000", "170230.545000", "170231.005000", "170231.465000", "170231.925000", "170232.385000", "170232.845000", "170233.305000", "170233.765000", "170234.225000", "170234.685000", "170235.145000", "170235.605000", "170236.065000", "170236.525000", "170236.985000", "170237.445000", "170237.905000", "170238.365000", "170238.825000", "170239.285000", "170239.745000", "170240.205000", "170240.665000", "170241.125000", "170241.585000", "170242.045000", "170242.505000", "170242.965000", "170243.425000", "170243.885000", "170244.345000", "170244.805000", "170245.265000", "170245.725000", "170246.185000", "170246.645000", "170247.105000", "170247.565000", "170248.025000", "170248.485000", "170248.945000", "170249.405000", "170249.865000", "170250.325000", "170250.785000", "170251.245000", "170251.705000", "170252.165000", "170252.625000", "170253.085000", "170253.545000", "170254.005000", "170254.465000", "170254.925000", "170255.385000", "170255.845000", "170256.305000", "170256.765000", "170257.225000", "170257.685000", "170258.145000", "170258.605000", "170259.065000", "170259.525000", "170259.985000", "170300.445000", "170300.905000", "170301.365000", "170301.825000", "170302.285000", "170302.745000", "170303.205000", "170303.665000", "170304.125000", "170304.585000", "170305.045000", "170305.505000", "170305.965000", "170306.425000", "170306.885000", "170307.345000", "170307.805000", "170308.265000", "170308.725000", "170309.185000", "170309.645000", "170310.105000", "170310.565000", "170311.025000", "170311.485000", "170311.945000", "170312.405000", "170312.865000", "170313.325000", "170313.785000", "170314.245000", "170314.705000", "170315.165000", "170315.625000", "170316.085000", "170316.545000", "170317.005000", "170317.465000", "170317.925000", "170318.385000", "170318.845000", "170319.305000", "170319.765000", "170320.225000", "170320.685000", "170321.145000", "170321.605000", "170322.065000", "170322.525000", "170322.985000", "170323.445000", "170323.905000", "170324.365000", "170324.825000", "170325.285000", "170325.745000", "170326.205000", "170326.665000", "170327.125000", "170327.585000", "170328.045000", "170328.505000", "170328.965000", "170329.425000", "170329.885000", "170330.345000", "170330.805000", "170331.265000", "170331.725000", "170332.185000", "170332.645000", "170333.105000", "170333.565000", "170334.025000", "170334.485000", "170334.945000", "170335.405000", "170335.865000", "170336.325000", "170336.785000", "170337.245000", "170337.705000", "170338.165000", "170338.625000", "170339.085000", "170339.545000", "170340.005000", "170340.465000", "170340.925000", "170341.385000", "170341.845000", "170342.305000", "170342.765000", "170343.225000", "170343.685000", "170344.145000", "170344.605000", "170345.065000", "170345.525000", "170345.985000", "170346.445000", "170346.905000", "170347.365000", "170347.825000", "170348.285000", "170348.745000", "170349.205000", "170349.665000", "170350.125000", "170350.585000", "170351.045000", "170351.505000", "170351.965000", "170352.425000", "170352.885000", "170353.345000", "170353.805000", "170354.265000", "170354.725000"],
