{
  "AcquisitionMatrixPE": 82,
  "AcquisitionNumber": 1,
  "AcquisitionTime": "17:20:44.580000",
  "BandwidthPerPixelPhaseEncode": 24.888,
  "BaseResolution": 82,
  "BodyPartExamined": "BRAIN",
  "ConsistencyInfo": "N4_VE11E_LATEST_20181129",
  "ConversionSoftware": "dcm2niix",
  "ConversionSoftwareVersion": "v1.0.20201102",
  "DerivedVendorReportedEchoSpacing": 0.00049,
  "DeviceSerialNumber": "66112",
  "DwellTime": 2e-06,
  "EchoTime": 0.0272,
  "EchoTrainLength": 82,
  "EffectiveEchoSpacing": 0.00049,
  "FlipAngle": 44,
  "ImageComments": "Unaliased MB8/PE3",
  "ImageOrientationPatientDICOM": [0.997216, 0.0151016, 0.0730226, -0.00678791, 0.993596, -0.112785],
  "ImageType": [
    "ORIGINAL",
    "PRIMARY",
    "M",
    "MB",
    "ND",
    "NORM",
    "MOSAIC"
],
  "ImagingFrequency": 123.259,
  "InPlanePhaseEncodingDirectionDICOM": "COL",
  "InstitutionAddress": "Maynard 3,Hanover,NH,US,03755",
  "InstitutionName": "Dartmouth College - PBS",
  "InstitutionalDepartmentName": "Department",
  "MRAcquisitionType": "2D",
  "MagneticFieldStrength": 3,
  "Manufacturer": "Siemens",
  "ManufacturersModelName": "Prisma",
  "Modality": "MR",
  "MultibandAccelerationFactor": 8,
  "PartialFourier": 1,
  "PatientPosition": "HFS",
  "PercentPhaseFOV": 100,
  "PercentSampling": 100,
  "PhaseEncodingDirection": "j-",
  "PhaseEncodingSteps": 82,
  "PhaseResolution": 1,
  "PixelBandwidth": 3050,
  "ProcedureStepDescription": "Wager_Wager^1076_spacetop",
  "ProtocolName": "func_run-04_task-social_acq-ap-mb8",
  "PulseSequenceDetails": "%CustomerSeq%\\cmrr_mbep2d_bold",
  "ReceiveCoilActiveElements": "HEA;HEP",
  "ReceiveCoilName": "Head_32",
  "ReconMatrixPE": 82,
  "RepetitionTime": 0.46,
  "SAR": 0.102242,
  "ScanOptions": "FS",
  "ScanningSequence": "EP",
  "SequenceName": "epfid2d1_82",
  "SequenceVariant": "SK\\SS",
  "SeriesDescription": "func_run-04_task-social_acq-ap-mb8",
  "SeriesNumber": 18,
  "ShimSetting": [4215, -7782, -7153, 449, -149, -108, 69, 54],
  "SliceThickness": 2.7,
  "SliceTiming": [0, 0.25, 0.0625, 0.3125, 0.125, 0.3775, 0.1875, 0, 0.25, 0.0625, 0.3125, 0.125, 0.3775, 0.1875, 0, 0.25, 0.0625, 0.3125, 0.125, 0.3775, 0.1875, 0, 0.25, 0.0625, 0.3125, 0.125, 0.3775, 0.1875, 0, 0.25, 0.0625, 0.3125, 0.125, 0.3775, 0.1875, 0, 0.25, 0.0625, 0.3125, 0.125, 0.3775, 0.1875, 0, 0.25, 0.0625, 0.3125, 0.125, 0.3775, 0.1875, 0, 0.25, 0.0625, 0.3125, 0.125, 0.3775, 0.1875],
  "SoftwareVersions": "syngo MR E11",
  "SpacingBetweenSlices": 2.7,
  "StationName": "AWP66112",
  "TaskName": "social",
  "TotalReadoutTime": 0.03969,
  "TxRefAmp": 249.882,
  "WipMemBlock": "9acde7ad-991e-4416-87b9-0d7e586e722b||Sequence: R016 ve11e/master r/434b28f1; Aug  7 2019 18:53:46 by eja",
  "dcmmeta_affine": [
    [-2.67545747756958, -0.01821145787835121, 0.2004970908164978, 107.6607437133789],
    [-0.040516484528779984, 2.665745973587036, -0.3023345470428467, -92.9205551147461],
    [0.19591420888900757, 0.3025950491428375, 2.6755177974700928, -72.20914459228516],
    [0.0, 0.0, 0.0, 1.0]
],
  "dcmmeta_reorient_transform": [
    [0.0, -1.0, 0.0, 81.0],
    [1.0, 0.0, 0.0, 0.0],
    [0.0, 0.0, 1.0, 0.0],
    [0.0, 0.0, 0.0, 1.0]
],
  "dcmmeta_shape": [82, 82, 56, 872],
  "dcmmeta_slice_dim": 2,
  "dcmmeta_version": 0.6,
  "global": {
    "const": {
      "AccessionNumber": "A004796",
      "AcquisitionMatrix": [82, 0, 0, 82],
      "AngioFlag": "N",
      "BitsAllocated": 16,
      "BitsStored": 16,
      "BodyPartExamined": "BRAIN",
      "Columns": 656,
      "EchoNumbers": 1,
      "EchoTime": 27.2,
      "EchoTrainLength": 82,
      "FlipAngle": 44.0,
      "HighBit": 15,
      "ImageOrientationPatient": [0.99721594793471, 0.0151015980035, 0.07302256447442, -0.0067879066469, 0.99359618108884, -0.1127854301274],
      "ImagePositionPatient": [-868.81522274234, -899.7021739118, -17.081538108912],
      "ImageType": [
        "ORIGINAL",
        "PRIMARY",
        "M",
        "MB",
        "ND",
        "NORM",
        "MOSAIC"
],
      "ImagedNucleus": "1H",
      "ImagingFrequency": 123.259048,
      "InPlanePhaseEncodingDirection": "COL",
      "MRAcquisitionType": "2D",
      "MagneticFieldStrength": 3.0,
      "Manufacturer": "SIEMENS",
      "ManufacturerModelName": "Prisma",
      "Modality": "MR",
      "NumberOfAverages": 1.0,
      "NumberOfPhaseEncodingSteps": 82,
      "PercentPhaseFieldOfView": 100.0,
      "PercentSampling": 100.0,
      "PerformedProcedureStepStartTime": "161103.935000",
      "PhotometricInterpretation": "MONOCHROME2",
      "PixelBandwidth": 3050.0,
      "PixelRepresentation": 0,
      "PixelSpacing": [2.6829268932343, 2.6829268932343],
      "ProtocolName": "func_run-04_task-social_acq-ap-mb8",
      "RepetitionTime": 460.0,
      "Rows": 656,
      "SAR": 0.10224149822654,
      "SamplesPerPixel": 1,
      "ScanOptions": "FS",
      "ScanningSequence": "EP",
      "SequenceName": "epfid2d1_82",
      "SequenceVariant": [
        "SK",
        "SS"
],
      "SeriesDescription": "func_run-04_task-social_acq-ap-mb8",
      "SeriesNumber": 18,
      "SeriesTime": "172058.828000",
      "SliceLocation": -53.15484628406,
      "SliceThickness": 2.7000000476837,
      "SmallestImagePixelValue": 0,
      "SoftwareVersions": "syngo MR E11",
      "SpacingBetweenSlices": 2.7000000321925,
      "SpecificCharacterSet": "ISO_IR 100",
      "StudyID": "1",
      "StudyTime": "161103.865000",
      "TransmitCoilName": "Body",
      "VariableFlipAngleFlag": "N",
      "WindowCenterWidthExplanation": "Algo1"
    },
    "slices": {}
  },
  "time": {
    "samples": {
      "AcquisitionNumber": [1, 2, 3, 4, 5, 6, 7, 8, 9, 10, 11, 12, 13, 14, 15, 16, 17, 18, 19, 20, 21, 22, 23, 24, 25, 26, 27, 28, 29, 30, 31, 32, 33, 34, 35, 36, 37, 38, 39, 40, 41, 42, 43, 44, 45, 46, 47, 48, 49, 50, 51, 52, 53, 54, 55, 56, 57, 58, 59, 60, 61, 62, 63, 64, 65, 66, 67, 68, 69, 70, 71, 72, 73, 74, 75, 76, 77, 78, 79, 80, 81, 82, 83, 84, 85, 86, 87, 88, 89, 90, 91, 92, 93, 94, 95, 96, 97, 98, 99, 100, 101, 102, 103, 104, 105, 106, 107, 108, 109, 110, 111, 112, 113, 114, 115, 116, 117, 118, 119, 120, 121, 122, 123, 124, 125, 126, 127, 128, 129, 130, 131, 132, 133, 134, 135, 136, 137, 138, 139, 140, 141, 142, 143, 144, 145, 146, 147, 148, 149, 150, 151, 152, 153, 154, 155, 156, 157, 158, 159, 160, 161, 162, 163, 164, 165, 166, 167, 168, 169, 170, 171, 172, 173, 174, 175, 176, 177, 178, 179, 180, 181, 182, 183, 184, 185, 186, 187, 188, 189, 190, 191, 192, 193, 194, 195, 196, 197, 198, 199, 200, 201, 202, 203, 204, 205, 206, 207, 208, 209, 210, 211, 212, 213, 214, 215, 216, 217, 218, 219, 220, 221, 222, 223, 224, 225, 226, 227, 228, 229, 230, 231, 232, 233, 234, 235, 236, 237, 238, 239, 240, 241, 242, 243, 244, 245, 246, 247, 248, 249, 250, 251, 252, 253, 254, 255, 256, 257, 258, 259, 260, 261, 262, 263, 264, 265, 266, 267, 268, 269, 270, 271, 272, 273, 274, 275, 276, 277, 278, 279, 280, 281, 282, 283, 284, 285, 286, 287, 288, 289, 290, 291, 292, 293, 294, 295, 296, 297, 298, 299, 300, 301, 302, 303, 304, 305, 306, 307, 308, 309, 310, 311, 312, 313, 314, 315, 316, 317, 318, 319, 320, 321, 322, 323, 324, 325, 326, 327, 328, 329, 330, 331, 332, 333, 334, 335, 336, 337, 338, 339, 340, 341, 342, 343, 344, 345, 346, 347, 348, 349, 350, 351, 352, 353, 354, 355, 356, 357, 358, 359, 360, 361, 362, 363, 364, 365, 366, 367, 368, 369, 370, 371, 372, 373, 374, 375, 376, 377, 378, 379, 380, 381, 382, 383, 384, 385, 386, 387, 388, 389, 390, 391, 392, 393, 394, 395, 396, 397, 398, 399, 400, 401, 402, 403, 404, 405, 406, 407, 408, 409, 410, 411, 412, 413, 414, 415, 416, 417, 418, 419, 420, 421, 422, 423, 424, 425, 426, 427, 428, 429, 430, 431, 432, 433, 434, 435, 436, 437, 438, 439, 440, 441, 442, 443, 444, 445, 446, 447, 448, 449, 450, 451, 452, 453, 454, 455, 456, 457, 458, 459, 460, 461, 462, 463, 464, 465, 466, 467, 468, 469, 470, 471, 472, 473, 474, 475, 476, 477, 478, 479, 480, 481, 482, 483, 484, 485, 486, 487, 488, 489, 490, 491, 492, 493, 494, 495, 496, 497, 498, 499, 500, 501, 502, 503, 504, 505, 506, 507, 508, 509, 510, 511, 512, 513, 514, 515, 516, 517, 518, 519, 520, 521, 522, 523, 524, 525, 526, 527, 528, 529, 530, 531, 532, 533, 534, 535, 536, 537, 538, 539, 540, 541, 542, 543, 544, 545, 546, 547, 548, 549, 550, 551, 552, 553, 554, 555, 556, 557, 558, 559, 560, 561, 562, 563, 564, 565, 566, 567, 568, 569, 570, 571, 572, 573, 574, 575, 576, 577, 578, 579, 580, 581, 582, 583, 584, 585, 586, 587, 588, 589, 590, 591, 592, 593, 594, 595, 596, 597, 598, 599, 600, 601, 602, 603, 604, 605, 606, 607, 608, 609, 610, 611, 612, 613, 614, 615, 616, 617, 618, 619, 620, 621, 622, 623, 624, 625, 626, 627, 628, 629, 630, 631, 632, 633, 634, 635, 636, 637, 638, 639, 640, 641, 642, 643, 644, 645, 646, 647, 648, 649, 650, 651, 652, 653, 654, 655, 656, 657, 658, 659, 660, 661, 662, 663, 664, 665, 666, 667, 668, 669, 670, 671, 672, 673, 674, 675, 676, 677, 678, 679, 680, 681, 682, 683, 684, 685, 686, 687, 688, 689, 690, 691, 692, 693, 694, 695, 696, 697, 698, 699, 700, 701, 702, 703, 704, 705, 706, 707, 708, 709, 710, 711, 712, 713, 714, 715, 716, 717, 718, 719, 720, 721, 722, 723, 724, 725, 726, 727, 728, 729, 730, 731, 732, 733, 734, 735, 736, 737, 738, 739, 740, 741, 742, 743, 744, 745, 746, 747, 748, 749, 750, 751, 752, 753, 754, 755, 756, 757, 758, 759, 760, 761, 762, 763, 764, 765, 766, 767, 768, 769, 770, 771, 772, 773, 774, 775, 776, 777, 778, 779, 780, 781, 782, 783, 784, 785, 786, 787, 788, 789, 790, 791, 792, 793, 794, 795, 796, 797, 798, 799, 800, 801, 802, 803, 804, 805, 806, 807, 808, 809, 810, 811, 812, 813, 814, 815, 816, 817, 818, 819, 820, 821, 822, 823, 824, 825, 826, 827, 828, 829, 830, 831, 832, 833, 834, 835, 836, 837, 838, 839, 840, 841, 842, 843, 844, 845, 846, 847, 848, 849, 850, 851, 852, 853, 854, 855, 856, 857, 858, 859, 860, 861, 862, 863, 864, 865, 866, 867, 868, 869, 870, 871, 872],
      "AcquisitionTime": ["172044.580000", "172045.040000", "172045.500000", "172045.960000", "172046.420000", "172046.880000", "172047.340000", "172047.800000", "172048.260000", "172048.720000", "172049.180000", "172049.640000", "172050.100000", "172050.560000", "172051.020000", "172051.480000", "172051.940000", "172052.400000", "172052.860000", "172053.320000", "172053.780000", "172054.240000", "172054.700000", "172055.160000", "172055.620000", "172056.080000", "172056.540000", "172057.000000", "172057.460000", "172057.920000", "172058.380000", "172058.840000", "172059.300000", "172059.760000", "172100.220000", "172100.680000", "172101.140000", "172101.600000", "172102.060000", "172102.520000", "172102.980000", "172103.440000", "172103.900000", "172104.360000", "172104.820000", "172105.280000", "172105.740000", "172106.200000", "172106.660000", "172107.120000", "172107.580000", "172108.040000", "172108.500000", "172108.960000", "172109.420000", "172109.880000", "172110.340000", "172110.800000", "172111.260000", "172111.720000", "172112.180000", "172112.640000", "172113.100000", "172113.560000", "172114.020000", "172114.480000", "172114.940000", "172115.400000", "172115.860000", "172116.320000", "172116.780000", "172117.240000", "172117.700000", "172118.160000", "172118.620000", "172119.080000", "172119.540000", "172120.000000", "172120.460000", "172120.920000", "172121.380000", "172121.840000", "172122.300000", "172122.760000", "172123.220000", "172123.680000", "172124.140000", "172124.600000", "172125.060000", "172125.520000", "172125.980000", "172126.440000", "172126.900000", "172127.360000", "172127.820000", "172128.280000", "172128.740000", "172129.200000", "172129.660000", "172130.120000", "172130.580000", "172131.040000", "172131.500000", "172131.960000", "172132.420000", "172132.880000", "172133.340000", "172133.800000", "172134.260000", "172134.720000", "172135.180000", "172135.640000", "172136.100000", "172136.560000", "172137.020000", "172137.480000", "172137.940000", "172138.400000", "172138.860000", "172139.320000", "172139.780000", "172140.240000", "172140.700000", "172141.160000", "172141.620000", "172142.080000", "172142.540000", "172143.000000", "172143.460000", "172143.920000", "172144.380000", "172144.840000", "172145.300000", "172145.760000", "172146.220000", "172146.680000", "172147.140000", "172147.600000", "172148.060000", "172148.520000", "172148.980000", "172149.440000", "172149.900000", "172150.360000", "172150.820000", "172151.280000", "172151.740000", "172152.200000", "172152.660000", "172153.120000", "172153.580000", "172154.040000", "172154.500000", "172154.960000", "172155.420000", "172155.880000", "172156.340000", "172156.800000", "172157.260000", "172157.720000", "172158.180000", "172158.640000", "172159.100000", "172159.560000", "172200.020000", "172200.480000", "172200.940000", "172201.400000", "172201.860000", "172202.320000", "172202.780000", "172203.240000", "172203.700000", "172204.160000", "172204.620000", "172205.080000", "172205.540000", "172206.000000", "172206.460000", "172206.920000", "172207.380000", "172207.840000", "172208.300000", "172208.760000", "172209.220000", "172209.680000", "172210.140000", "172210.600000", "172211.060000", "172211.520000", "172211.980000", "172212.440000", "172212.900000", "172213.360000", "172213.820000", "172214.280000", "172214.740000", "172215.200000", "172215.660000", "172216.120000", "172216.580000", "172217.040000", "172217.500000", "172217.960000", "172218.420000", "172218.880000", "172219.340000", "172219.800000", "172220.260000", "172220.720000", "172221.180000", "172221.640000", "172222.100000", "172222.560000", "172223.020000", "172223.480000", "172223.940000", "172224.400000", "172224.860000", "172225.320000", "172225.780000", "172226.240000", "172226.700000", "172227.160000", "172227.620000", "172228.080000", "172228.540000", "172229.000000", "172229.460000", "172229.920000", "172230.380000", "172230.840000", "172231.300000", "172231.760000", "172232.220000", "172232.680000", "172233.140000", "172233.600000", "172234.060000", "172234.520000", "172234.980000", "172235.440000", "172235.900000", "172236.360000", "172236.820000", "172237.280000", "172237.740000", "172238.200000", "172238.660000", "172239.120000", "172239.580000", "172240.040000", "172240.500000", "172240.960000", "172241.420000", "172241.880000", "172242.340000", "172242.800000", "172243.260000", "172243.720000", "172244.180000", "172244.640000", "172245.100000", "172245.560000", "172246.020000", "172246.480000", "172246.940000", "172247.400000", "172247.860000", "172248.320000", "172248.780000", "172249.240000", "172249.700000", "172250.160000", "172250.620000", "172251.080000", "172251.540000", "172252.000000", "172252.460000", "172252.920000", "172253.380000", "172253.840000", "172254.300000", "172254.760000", "172255.220000", "172255.680000", "172256.140000", "172256.600000", "172257.060000", "172257.520000", "172257.980000", "172258.440000", "172258.900000", "172259.360000", "172259.820000", "172300.280000", "172300.740000", "172301.200000", "172301.660000", "172302.120000", "172302.580000", "172303.040000", "172303.500000", "172303.960000", "172304.420000", "172304.880000", "172305.340000", "172305.800000", "172306.260000", "172306.720000", "172307.180000", "172307.640000", "172308.100000", "172308.560000", "172309.020000", "172309.480000", "172309.940000", "172310.400000", "172310.860000", "172311.320000", "172311.780000", "172312.240000", "172312.700000", "172313.160000", "172313.620000", "172314.080000", "172314.540000", "172315.000000", "172315.460000", "172315.920000", "172316.380000", "172316.840000", "172317.300000", "172317.760000", "172318.220000", "172318.680000", "172319.140000", "172319.600000", "172320.060000", "172320.520000", "172320.980000", "172321.440000", "172321.900000", "172322.360000", "172322.820000", "172323.280000", "172323.740000", "172324.200000", "172324.660000", "172325.120000", "172325.580000", "172326.040000", "172326.500000", "172326.960000", "172327.420000", "172327.880000", "172328.340000", "172328.800000", "172329.260000", "172329.720000", "172330.180000", "172330.640000", "172331.100000", "172331.560000", "172332.020000", "172332.480000", "172332.940000", "172333.400000", "172333.860000", "172334.320000", "172334.780000", "172335.240000", "172335.700000", "172336.160000", "172336.620000", "172337.080000", "172337.540000", "172338.000000", "172338.460000", "172338.920000", "172339.380000", "172339.840000", "172340.300000", "172340.760000", "172341.220000", "172341.680000", "172342.140000", "172342.600000", "172343.060000", "172343.520000", "172343.980000", "172344.440000", "172344.900000", "172345.360000", "172345.820000", "172346.280000", "172346.740000", "172347.200000", "172347.660000", "172348.120000", "172348.580000", "172349.040000", "172349.500000", "172349.960000", "172350.420000", "172350.880000", "172351.340000", "172351.800000", "172352.260000", "172352.720000", "172353.180000", "172353.640000", "172354.100000", "172354.560000", "172355.020000", "172355.480000", "172355.940000", "172356.400000", "172356.860000", "172357.320000", "172357.780000", "172358.240000", "172358.700000", "172359.160000", "172359.620000", "172400.080000", "172400.540000", "172401.000000", "172401.460000", "172401.920000", "172402.380000", "172402.840000", "172403.300000", "172403.760000", "172404.220000", "172404.680000", "172405.140000", "172405.600000", "172406.060000", "172406.520000", "172406.980000", "172407.440000", "172407.900000", "172408.360000", "172408.820000", "172409.280000", "172409.740000", "172410.200000", "172410.660000", "172411.120000", "172411.580000", "172412.040000", "172412.500000", "172412.960000", "172413.420000", "172413.880000", "172414.340000", "172414.800000", "172415.260000", "172415.720000", "172416.180000", "172416.640000", "172417.100000", "172417.560000", "172418.020000", "172418.480000", "172418.940000", "172419.400000", "172419.860000", "172420.320000", "172420.780000", "172421.240000", "172421.700000", "172422.160000", "172422.620000", "172423.080000", "172423.540000", "172424.000000", "172424.460000", "172424.920000", "172425.380000", "172425.840000", "172426.300000", "172426.760000", "172427.220000", "172427.680000", "172428.140000", "172428.600000", "172429.060000", "172429.520000", "172429.980000", "172430.440000", "172430.900000", "172431.360000", "172431.820000", "172432.280000", "172432.740000", "172433.200000", "172433.660000", "172434.120000", "172434.580000", "172435.040000", "172435.500000", "172435.960000", "172436.420000", "172436.880000", "172437.340000", "172437.800000", "172438.260000", "172438.720000", "172439.180000", "172439.640000", "172440.100000", "172440.560000", "172441.020000", "172441.480000", "172441.940000", "172442.400000", "172442.860000", "172443.320000", "172443.780000", "172444.240000", "172444.700000", "172445.160000", "172445.620000", "172446.080000", "172446.540000", "172447.000000", "172447.460000", "172447.920000", "172448.380000", "172448.840000", "172449.300000", "172449.760000", "172450.220000", "172450.680000", "172451.140000", "172451.600000", "172452.060000", "172452.520000", "172452.980000", "172453.440000", "172453.900000", "172454.360000", "172454.820000", "172455.280000", "172455.740000", "172456.200000", "172456.660000", "172457.120000", "172457.580000", "172458.040000", "172458.500000", "172458.960000", "172459.420000", "172459.880000", "172500.340000", "172500.800000", "172501.260000", "172501.720000", "172502.180000", "172502.640000", "172503.100000", "172503.560000", "172504.020000", "172504.480000", "172504.940000", "172505.400000", "172505.860000", "172506.320000", "172506.780000", "172507.240000", "172507.700000", "172508.160000", "172508.620000", "172509.080000", "172509.540000", "172510.000000", "172510.460000", "172510.920000", "172511.380000", "172511.840000", "172512.300000", "172512.760000", "172513.220000", "172513.680000", "172514.140000", "172514.600000", "172515.060000", "172515.520000", "172515.980000", "172516.440000", "172516.900000", "172517.360000", "172517.820000", "172518.280000", "172518.740000", "172519.200000", "172519.660000", "172520.120000", "172520.580000", "172521.040000", "172521.500000", "172521.960000", "172522.420000", "172522.880000", "172523.340000", "172523.800000", "172524.260000", "172524.720000", "172525.180000", "172525.640000", "172526.100000", "172526.560000", "172527.020000", "172527.480000", "172527.940000", "172528.400000", "172528.860000", "172529.320000", "172529.780000", "172530.240000", "172530.700000", "172531.160000", "172531.620000", "172532.080000", "172532.540000", "172533.000000", "172533.460000", "172533.920000", "172534.380000", "172534.840000", "172535.300000", "172535.760000", "172536.220000", "172536.680000", "172537.140000", "172537.600000", "172538.060000", "172538.520000", "172538.980000", "172539.440000", "172539.900000", "172540.360000", "172540.820000", "172541.280000", "172541.740000", "172542.200000", "172542.660000", "172543.120000", "172543.580000", "172544.040000", "172544.500000", "172544.960000", "172545.420000", "172545.880000", "172546.340000", "172546.800000", "172547.260000", "172547.720000", "172548.180000", "172548.640000", "172549.100000", "172549.560000", "172550.020000", "172550.480000", "172550.940000", "172551.400000", "172551.860000", "172552.320000", "172552.780000", "172553.240000", "172553.700000", "172554.160000", "172554.620000", "172555.080000", "172555.540000", "172556.000000", "172556.460000", "172556.920000", "172557.380000", "172557.840000", "172558.300000", "172558.760000", "172559.220000", "172559.680000", "172600.140000", "172600.600000", "172601.060000", "172601.520000", "172601.980000", "172602.440000", "172602.900000", "172603.360000", "172603.820000", "172604.280000", "172604.740000", "172605.200000", "172605.660000", "172606.120000", "172606.580000", "172607.040000", "172607.500000", "172607.960000", "172608.420000", "172608.880000", "172609.340000", "172609.800000", "172610.260000", "172610.720000", "172611.180000", "172611.640000", "172612.100000", "172612.560000", "172613.020000", "172613.480000", "172613.940000", "172614.400000", "172614.860000", "172615.320000", "172615.780000", "172616.240000", "172616.700000", "172617.160000", "172617.620000", "172618.080000", "172618.540000", "172619.000000", "172619.460000", "172619.920000", "172620.380000", "172620.840000", "172621.300000", "172621.760000", "172622.220000", "172622.680000", "172623.140000", "172623.600000", "172624.060000", "172624.520000", "172624.980000", "172625.440000", "172625.900000", "172626.360000", "172626.820000", "172627.280000", "172627.740000", "172628.200000", "172628.660000", "172629.120000", "172629.580000", "172630.040000", "172630.500000", "172630.960000", "172631.420000", "172631.880000", "172632.340000", "172632.800000", "172633.260000", "172633.720000", "172634.180000", "172634.640000", "172635.100000", "172635.560000", "172636.020000", "172636.480000", "172636.940000", "172637.400000", "172637.860000", "172638.320000", "172638.780000", "172639.240000", "172639.700000", "172640.160000", "172640.620000", "172641.080000", "172641.540000", "172642.000000", "172642.460000", "172642.920000", "172643.380000", "172643.840000", "172644.300000", "172644.760000", "172645.220000", "172645.680000", "172646.140000", "172646.600000", "172647.060000", "172647.520000", "172647.980000", "172648.440000", "172648.900000", "172649.360000", "172649.820000", "172650.280000", "172650.740000", "172651.200000", "172651.660000", "172652.120000", "172652.580000", "172653.040000", "172653.500000", "172653.960000", "172654.420000", "172654.880000", "172655.340000", "172655.800000", "172656.260000", "172656.720000", "172657.180000", "172657.640000", "172658.100000", "172658.560000", "172659.020000", "172659.480000", "172659.940000", "172700.400000", "172700.860000", "172701.320000", "172701.780000", "172702.240000", "172702.700000", "172703.160000", "172703.620000", "172704.080000", "172704.540000", "172705.000000", "172705.460000", "172705.920000", "172706.380000", "172706.840000", "172707.300000", "172707.760000", "172708.220000", "172708.680000", "172709.140000", "172709.600000", "172710.060000", "172710.520000", "172710.980000", "172711.440000", "172711.900000", "172712.360000", "172712.820000", "172713.280000", "172713.740000", "172714.200000", "172714.660000", "172715.120000", "172715.580000", "172716.040000", "172716.500000", "172716.960000", "172717.420000", "172717.880000", "172718.340000", "172718.800000", "172719.260000", "172719.720000", "172720.180000", "172720.640000", "172721.100000", "172721.560000", "172722.020000", "172722.480000", "172722.940000", "172723.400000", "172723.860000", "172724.320000", "172724.780000", "172725.240000"],
