{
  "AcquisitionMatrixPE": 82,
  "AcquisitionNumber": 1,
  "AcquisitionTime": "17:28:23.565000",
  "BandwidthPerPixelPhaseEncode": 24.888,
  "BaseResolution": 82,
  "BodyPartExamined": "BRAIN",
  "ConsistencyInfo": "N4_VE11E_LATEST_20181129",
  "ConversionSoftware": "dcm2niix",
  "ConversionSoftwareVersion": "v1.0.20201102",
  "DerivedVendorReportedEchoSpacing": 0.00049,
  "DeviceSerialNumber": "66112",
  "DwellTime": 2e-06,
  "EchoTime": 0.0272,
  "EchoTrainLength": 82,
  "EffectiveEchoSpacing": 0.00049,
  "FlipAngle": 44,
  "ImageComments": "Unaliased MB8/PE3",
  "ImageOrientationPatientDICOM": [0.997216, 0.0151016, 0.0730226, -0.00678791, 0.993596, -0.112785],
  "ImageType": [
    "ORIGINAL",
    "PRIMARY",
    "M",
    "MB",
    "ND",
    "NORM",
    "MOSAIC"
],
  "ImagingFrequency": 123.259,
  "InPlanePhaseEncodingDirectionDICOM": "COL",
  "InstitutionAddress": "Maynard 3,Hanover,NH,US,03755",
  "InstitutionName": "Dartmouth College - PBS",
  "InstitutionalDepartmentName": "Department",
  "MRAcquisitionType": "2D",
  "MagneticFieldStrength": 3,
  "Manufacturer": "Siemens",
  "ManufacturersModelName": "Prisma",
  "Modality": "MR",
  "MultibandAccelerationFactor": 8,
  "PartialFourier": 1,
  "PatientPosition": "HFS",
  "PercentPhaseFOV": 100,
  "PercentSampling": 100,
  "PhaseEncodingDirection": "j-",
  "PhaseEncodingSteps": 82,
  "PhaseResolution": 1,
  "PixelBandwidth": 3050,
  "ProcedureStepDescription": "Wager_Wager^1076_spacetop",
  "ProtocolName": "func_run-05_task-social_acq-ap-mb8",
  "PulseSequenceDetails": "%CustomerSeq%\\cmrr_mbep2d_bold",
  "ReceiveCoilActiveElements": "HEA;HEP",
  "ReceiveCoilName": "Head_32",
  "ReconMatrixPE": 82,
  "RepetitionTime": 0.46,
  "SAR": 0.102242,
  "ScanOptions": "FS",
  "ScanningSequence": "EP",
  "SequenceName": "epfid2d1_82",
  "SequenceVariant": "SK\\SS",
  "SeriesDescription": "func_run-05_task-social_acq-ap-mb8",
  "SeriesNumber": 20,
  "ShimSetting": [4215, -7782, -7153, 449, -149, -108, 69, 54],
  "SliceThickness": 2.7,
  "SliceTiming": [0, 0.25, 0.0625, 0.315, 0.125, 0.3775, 0.1875, 0, 0.25, 0.0625, 0.315, 0.125, 0.3775, 0.1875, 0, 0.25, 0.0625, 0.315, 0.125, 0.3775, 0.1875, 0, 0.25, 0.0625, 0.315, 0.125, 0.3775, 0.1875, 0, 0.25, 0.0625, 0.315, 0.125, 0.3775, 0.1875, 0, 0.25, 0.0625, 0.315, 0.125, 0.3775, 0.1875, 0, 0.25, 0.0625, 0.315, 0.125, 0.3775, 0.1875, 0, 0.25, 0.0625, 0.315, 0.125, 0.3775, 0.1875],
  "SoftwareVersions": "syngo MR E11",
  "SpacingBetweenSlices": 2.7,
  "StationName": "AWP66112",
  "TaskName": "social",
  "TotalReadoutTime": 0.03969,
  "TxRefAmp": 249.882,
  "WipMemBlock": "965b21c2-c686-48a6-8dcf-e5512b1f817d||Sequence: R016 ve11e/master r/434b28f1; Aug  7 2019 18:53:46 by eja",
  "dcmmeta_affine": [
    [-2.67545747756958, -0.01821145787835121, 0.2004970908164978, 107.6607437133789],
    [-0.040516484528779984, 2.665745973587036, -0.3023345470428467, -92.9205551147461],
    [0.19591420888900757, 0.3025950491428375, 2.6755177974700928, -72.20914459228516],
    [0.0, 0.0, 0.0, 1.0]
],
  "dcmmeta_reorient_transform": [
    [0.0, -1.0, 0.0, 81.0],
    [1.0, 0.0, 0.0, 0.0],
    [0.0, 0.0, 1.0, 0.0],
    [0.0, 0.0, 0.0, 1.0]
],
  "dcmmeta_shape": [82, 82, 56, 872],
  "dcmmeta_slice_dim": 2,
  "dcmmeta_version": 0.6,
  "global": {
    "const": {
      "AccessionNumber": "A004796",
      "AcquisitionMatrix": [82, 0, 0, 82],
      "AngioFlag": "N",
      "BitsAllocated": 16,
      "BitsStored": 16,
      "BodyPartExamined": "BRAIN",
      "Columns": 656,
      "EchoNumbers": 1,
      "EchoTime": 27.2,
      "EchoTrainLength": 82,
      "FlipAngle": 44.0,
      "HighBit": 15,
      "ImageOrientationPatient": [0.99721594793471, 0.0151015980035, 0.07302256447442, -0.0067879066469, 0.99359618108884, -0.1127854301274],
      "ImagePositionPatient": [-868.81522274234, -899.7021739118, -17.081538108912],
      "ImageType": [
        "ORIGINAL",
        "PRIMARY",
        "M",
        "MB",
        "ND",
        "NORM",
        "MOSAIC"
],
      "ImagedNucleus": "1H",
      "ImagingFrequency": 123.259048,
      "InPlanePhaseEncodingDirection": "COL",
      "MRAcquisitionType": "2D",
      "MagneticFieldStrength": 3.0,
      "Manufacturer": "SIEMENS",
      "ManufacturerModelName": "Prisma",
      "Modality": "MR",
      "NumberOfAverages": 1.0,
      "NumberOfPhaseEncodingSteps": 82,
      "PercentPhaseFieldOfView": 100.0,
      "PercentSampling": 100.0,
      "PerformedProcedureStepStartTime": "161103.935000",
      "PhotometricInterpretation": "MONOCHROME2",
      "PixelBandwidth": 3050.0,
      "PixelRepresentation": 0,
      "PixelSpacing": [2.6829268932343, 2.6829268932343],
      "ProtocolName": "func_run-05_task-social_acq-ap-mb8",
      "RepetitionTime": 460.0,
      "Rows": 656,
      "SAR": 0.10224149822654,
      "SamplesPerPixel": 1,
      "ScanOptions": "FS",
      "ScanningSequence": "EP",
      "SequenceName": "epfid2d1_82",
      "SequenceVariant": [
        "SK",
        "SS"
],
      "SeriesDescription": "func_run-05_task-social_acq-ap-mb8",
      "SeriesNumber": 20,
      "SeriesTime": "172838.921000",
      "SliceLocation": -53.15484628406,
      "SliceThickness": 2.7000000476837,
      "SmallestImagePixelValue": 0,
      "SoftwareVersions": "syngo MR E11",
      "SpacingBetweenSlices": 2.7000000321925,
      "SpecificCharacterSet": "ISO_IR 100",
      "StudyID": "1",
      "StudyTime": "161103.865000",
      "TransmitCoilName": "Body",
      "VariableFlipAngleFlag": "N",
      "WindowCenterWidthExplanation": "Algo1"
    },
    "slices": {}
  },
  "time": {
    "samples": {
      "AcquisitionNumber": [1, 2, 3, 4, 5, 6, 7, 8, 9, 10, 11, 12, 13, 14, 15, 16, 17, 18, 19, 20, 21, 22, 23, 24, 25, 26, 27, 28, 29, 30, 31, 32, 33, 34, 35, 36, 37, 38, 39, 40, 41, 42, 43, 44, 45, 46, 47, 48, 49, 50, 51, 52, 53, 54, 55, 56, 57, 58, 59, 60, 61, 62, 63, 64, 65, 66, 67, 68, 69, 70, 71, 72, 73, 74, 75, 76, 77, 78, 79, 80, 81, 82, 83, 84, 85, 86, 87, 88, 89, 90, 91, 92, 93, 94, 95, 96, 97, 98, 99, 100, 101, 102, 103, 104, 105, 106, 107, 108, 109, 110, 111, 112, 113, 114, 115, 116, 117, 118, 119, 120, 121, 122, 123, 124, 125, 126, 127, 128, 129, 130, 131, 132, 133, 134, 135, 136, 137, 138, 139, 140, 141, 142, 143, 144, 145, 146, 147, 148, 149, 150, 151, 152, 153, 154, 155, 156, 157, 158, 159, 160, 161, 162, 163, 164, 165, 166, 167, 168, 169, 170, 171, 172, 173, 174, 175, 176, 177, 178, 179, 180, 181, 182, 183, 184, 185, 186, 187, 188, 189, 190, 191, 192, 193, 194, 195, 196, 197, 198, 199, 200, 201, 202, 203, 204, 205, 206, 207, 208, 209, 210, 211, 212, 213, 214, 215, 216, 217, 218, 219, 220, 221, 222, 223, 224, 225, 226, 227, 228, 229, 230, 231, 232, 233, 234, 235, 236, 237, 238, 239, 240, 241, 242, 243, 244, 245, 246, 247, 248, 249, 250, 251, 252, 253, 254, 255, 256, 257, 258, 259, 260, 261, 262, 263, 264, 265, 266, 267, 268, 269, 270, 271, 272, 273, 274, 275, 276, 277, 278, 279, 280, 281, 282, 283, 284, 285, 286, 287, 288, 289, 290, 291, 292, 293, 294, 295, 296, 297, 298, 299, 300, 301, 302, 303, 304, 305, 306, 307, 308, 309, 310, 311, 312, 313, 314, 315, 316, 317, 318, 319, 320, 321, 322, 323, 324, 325, 326, 327, 328, 329, 330, 331, 332, 333, 334, 335, 336, 337, 338, 339, 340, 341, 342, 343, 344, 345, 346, 347, 348, 349, 350, 351, 352, 353, 354, 355, 356, 357, 358, 359, 360, 361, 362, 363, 364, 365, 366, 367, 368, 369, 370, 371, 372, 373, 374, 375, 376, 377, 378, 379, 380, 381, 382, 383, 384, 385, 386, 387, 388, 389, 390, 391, 392, 393, 394, 395, 396, 397, 398, 399, 400, 401, 402, 403, 404, 405, 406, 407, 408, 409, 410, 411, 412, 413, 414, 415, 416, 417, 418, 419, 420, 421, 422, 423, 424, 425, 426, 427, 428, 429, 430, 431, 432, 433, 434, 435, 436, 437, 438, 439, 440, 441, 442, 443, 444, 445, 446, 447, 448, 449, 450, 451, 452, 453, 454, 455, 456, 457, 458, 459, 460, 461, 462, 463, 464, 465, 466, 467, 468, 469, 470, 471, 472, 473, 474, 475, 476, 477, 478, 479, 480, 481, 482, 483, 484, 485, 486, 487, 488, 489, 490, 491, 492, 493, 494, 495, 496, 497, 498, 499, 500, 501, 502, 503, 504, 505, 506, 507, 508, 509, 510, 511, 512, 513, 514, 515, 516, 517, 518, 519, 520, 521, 522, 523, 524, 525, 526, 527, 528, 529, 530, 531, 532, 533, 534, 535, 536, 537, 538, 539, 540, 541, 542, 543, 544, 545, 546, 547, 548, 549, 550, 551, 552, 553, 554, 555, 556, 557, 558, 559, 560, 561, 562, 563, 564, 565, 566, 567, 568, 569, 570, 571, 572, 573, 574, 575, 576, 577, 578, 579, 580, 581, 582, 583, 584, 585, 586, 587, 588, 589, 590, 591, 592, 593, 594, 595, 596, 597, 598, 599, 600, 601, 602, 603, 604, 605, 606, 607, 608, 609, 610, 611, 612, 613, 614, 615, 616, 617, 618, 619, 620, 621, 622, 623, 624, 625, 626, 627, 628, 629, 630, 631, 632, 633, 634, 635, 636, 637, 638, 639, 640, 641, 642, 643, 644, 645, 646, 647, 648, 649, 650, 651, 652, 653, 654, 655, 656, 657, 658, 659, 660, 661, 662, 663, 664, 665, 666, 667, 668, 669, 670, 671, 672, 673, 674, 675, 676, 677, 678, 679, 680, 681, 682, 683, 684, 685, 686, 687, 688, 689, 690, 691, 692, 693, 694, 695, 696, 697, 698, 699, 700, 701, 702, 703, 704, 705, 706, 707, 708, 709, 710, 711, 712, 713, 714, 715, 716, 717, 718, 719, 720, 721, 722, 723, 724, 725, 726, 727, 728, 729, 730, 731, 732, 733, 734, 735, 736, 737, 738, 739, 740, 741, 742, 743, 744, 745, 746, 747, 748, 749, 750, 751, 752, 753, 754, 755, 756, 757, 758, 759, 760, 761, 762, 763, 764, 765, 766, 767, 768, 769, 770, 771, 772, 773, 774, 775, 776, 777, 778, 779, 780, 781, 782, 783, 784, 785, 786, 787, 788, 789, 790, 791, 792, 793, 794, 795, 796, 797, 798, 799, 800, 801, 802, 803, 804, 805, 806, 807, 808, 809, 810, 811, 812, 813, 814, 815, 816, 817, 818, 819, 820, 821, 822, 823, 824, 825, 826, 827, 828, 829, 830, 831, 832, 833, 834, 835, 836, 837, 838, 839, 840, 841, 842, 843, 844, 845, 846, 847, 848, 849, 850, 851, 852, 853, 854, 855, 856, 857, 858, 859, 860, 861, 862, 863, 864, 865, 866, 867, 868, 869, 870, 871, 872],
      "AcquisitionTime": ["172823.565000", "172824.025000", "172824.485000", "172824.945000", "172825.405000", "172825.865000", "172826.325000", "172826.785000", "172827.245000", "172827.705000", "172828.165000", "172828.625000", "172829.085000", "172829.545000", "172830.005000", "172830.465000", "172830.925000", "172831.385000", "172831.845000", "172832.305000", "172832.765000", "172833.225000", "172833.685000", "172834.145000", "172834.605000", "172835.065000", "172835.525000", "172835.985000", "172836.445000", "172836.905000", "172837.365000", "172837.825000", "172838.285000", "172838.745000", "172839.205000", "172839.665000", "172840.125000", "172840.585000", "172841.045000", "172841.505000", "172841.965000", "172842.425000", "172842.885000", "172843.345000", "172843.805000", "172844.265000", "172844.725000", "172845.185000", "172845.645000", "172846.105000", "172846.565000", "172847.025000", "172847.485000", "172847.945000", "172848.405000", "172848.865000", "172849.325000", "172849.785000", "172850.245000", "172850.705000", "172851.165000", "172851.625000", "172852.085000", "172852.545000", "172853.005000", "172853.465000", "172853.925000", "172854.385000", "172854.845000", "172855.305000", "172855.765000", "172856.225000", "172856.685000", "172857.145000", "172857.605000", "172858.065000", "172858.525000", "172858.985000", "172859.445000", "172859.905000", "172900.365000", "172900.825000", "172901.285000", "172901.745000", "172902.205000", "172902.665000", "172903.125000", "172903.585000", "172904.045000", "172904.505000", "172904.965000", "172905.425000", "172905.885000", "172906.345000", "172906.805000", "172907.265000", "172907.725000", "172908.185000", "172908.645000", "172909.105000", "172909.565000", "172910.025000", "172910.485000", "172910.945000", "172911.405000", "172911.865000", "172912.325000", "172912.785000", "172913.245000", "172913.705000", "172914.165000", "172914.625000", "172915.085000", "172915.545000", "172916.005000", "172916.465000", "172916.925000", "172917.385000", "172917.845000", "172918.305000", "172918.765000", "172919.225000", "172919.685000", "172920.145000", "172920.605000", "172921.065000", "172921.525000", "172921.985000", "172922.445000", "172922.905000", "172923.365000", "172923.825000", "172924.285000", "172924.745000", "172925.205000", "172925.665000", "172926.125000", "172926.585000", "172927.045000", "172927.505000", "172927.965000", "172928.425000", "172928.885000", "172929.345000", "172929.805000", "172930.265000", "172930.725000", "172931.185000", "172931.645000", "172932.105000", "172932.565000", "172933.025000", "172933.485000", "172933.945000", "172934.405000", "172934.865000", "172935.325000", "172935.785000", "172936.245000", "172936.705000", "172937.165000", "172937.625000", "172938.085000", "172938.545000", "172939.005000", "172939.465000", "172939.925000", "172940.385000", "172940.845000", "172941.305000", "172941.765000", "172942.225000", "172942.685000", "172943.145000", "172943.605000", "172944.065000", "172944.525000", "172944.985000", "172945.445000", "172945.905000", "172946.365000", "172946.825000", "172947.285000", "172947.745000", "172948.205000", "172948.665000", "172949.125000", "172949.585000", "172950.045000", "172950.505000", "172950.965000", "172951.425000", "172951.885000", "172952.345000", "172952.805000", "172953.265000", "172953.725000", "172954.185000", "172954.645000", "172955.105000", "172955.565000", "172956.025000", "172956.485000", "172956.945000", "172957.405000", "172957.865000", "172958.325000", "172958.785000", "172959.245000", "172959.705000", "173000.165000", "173000.625000", "173001.085000", "173001.545000", "173002.005000", "173002.465000", "173002.925000", "173003.385000", "173003.845000", "173004.305000", "173004.765000", "173005.225000", "173005.685000", "173006.145000", "173006.605000", "173007.065000", "173007.525000", "173007.985000", "173008.445000", "173008.905000", "173009.365000", "173009.825000", "173010.285000", "173010.745000", "173011.205000", "173011.665000", "173012.125000", "173012.585000", "173013.045000", "173013.505000", "173013.965000", "173014.425000", "173014.885000", "173015.345000", "173015.805000", "173016.265000", "173016.725000", "173017.185000", "173017.645000", "173018.105000", "173018.565000", "173019.025000", "173019.485000", "173019.945000", "173020.405000", "173020.865000", "173021.325000", "173021.785000", "173022.245000", "173022.705000", "173023.165000", "173023.625000", "173024.085000", "173024.545000", "173025.005000", "173025.465000", "173025.925000", "173026.385000", "173026.845000", "173027.305000", "173027.765000", "173028.225000", "173028.685000", "173029.145000", "173029.605000", "173030.065000", "173030.525000", "173030.985000", "173031.445000", "173031.905000", "173032.365000", "173032.825000", "173033.285000", "173033.745000", "173034.205000", "173034.665000", "173035.125000", "173035.585000", "173036.045000", "173036.505000", "173036.965000", "173037.425000", "173037.885000", "173038.345000", "173038.805000", "173039.265000", "173039.725000", "173040.185000", "173040.645000", "173041.105000", "173041.565000", "173042.025000", "173042.485000", "173042.945000", "173043.405000", "173043.865000", "173044.325000", "173044.785000", "173045.245000", "173045.705000", "173046.165000", "173046.625000", "173047.085000", "173047.545000", "173048.005000", "173048.465000", "173048.925000", "173049.385000", "173049.845000", "173050.305000", "173050.765000", "173051.225000", "173051.685000", "173052.145000", "173052.605000", "173053.065000", "173053.525000", "173053.985000", "173054.445000", "173054.905000", "173055.365000", "173055.825000", "173056.285000", "173056.745000", "173057.205000", "173057.665000", "173058.125000", "173058.585000", "173059.045000", "173059.505000", "173059.965000", "173100.425000", "173100.885000", "173101.345000", "173101.805000", "173102.265000", "173102.725000", "173103.185000", "173103.645000", "173104.105000", "173104.565000", "173105.025000", "173105.485000", "173105.945000", "173106.405000", "173106.865000", "173107.325000", "173107.785000", "173108.245000", "173108.705000", "173109.165000", "173109.625000", "173110.085000", "173110.545000", "173111.005000", "173111.465000", "173111.925000", "173112.385000", "173112.845000", "173113.305000", "173113.765000", "173114.225000", "173114.685000", "173115.145000", "173115.605000", "173116.065000", "173116.525000", "173116.985000", "173117.445000", "173117.905000", "173118.365000", "173118.825000", "173119.285000", "173119.745000", "173120.205000", "173120.665000", "173121.125000", "173121.585000", "173122.045000", "173122.505000", "173122.965000", "173123.425000", "173123.885000", "173124.345000", "173124.805000", "173125.265000", "173125.725000", "173126.185000", "173126.645000", "173127.105000", "173127.565000", "173128.025000", "173128.485000", "173128.945000", "173129.405000", "173129.865000", "173130.325000", "173130.785000", "173131.245000", "173131.705000", "173132.165000", "173132.625000", "173133.085000", "173133.545000", "173134.005000", "173134.465000", "173134.925000", "173135.385000", "173135.845000", "173136.305000", "173136.765000", "173137.225000", "173137.685000", "173138.145000", "173138.605000", "173139.065000", "173139.525000", "173139.985000", "173140.445000", "173140.905000", "173141.365000", "173141.825000", "173142.285000", "173142.745000", "173143.205000", "173143.665000", "173144.125000", "173144.585000", "173145.045000", "173145.505000", "173145.965000", "173146.425000", "173146.885000", "173147.345000", "173147.805000", "173148.265000", "173148.725000", "173149.185000", "173149.645000", "173150.105000", "173150.565000", "173151.025000", "173151.485000", "173151.945000", "173152.405000", "173152.865000", "173153.325000", "173153.785000", "173154.245000", "173154.705000", "173155.165000", "173155.625000", "173156.085000", "173156.545000", "173157.005000", "173157.465000", "173157.925000", "173158.385000", "173158.845000", "173159.305000", "173159.765000", "173200.225000", "173200.685000", "173201.145000", "173201.605000", "173202.065000", "173202.525000", "173202.985000", "173203.445000", "173203.905000", "173204.365000", "173204.825000", "173205.285000", "173205.745000", "173206.205000", "173206.665000", "173207.125000", "173207.585000", "173208.045000", "173208.505000", "173208.965000", "173209.425000", "173209.885000", "173210.345000", "173210.805000", "173211.265000", "173211.725000", "173212.185000", "173212.645000", "173213.105000", "173213.565000", "173214.025000", "173214.485000", "173214.945000", "173215.405000", "173215.865000", "173216.325000", "173216.785000", "173217.245000", "173217.705000", "173218.165000", "173218.625000", "173219.085000", "173219.545000", "173220.005000", "173220.465000", "173220.925000", "173221.385000", "173221.845000", "173222.305000", "173222.765000", "173223.225000", "173223.685000", "173224.145000", "173224.605000", "173225.065000", "173225.525000", "173225.985000", "173226.445000", "173226.905000", "173227.365000", "173227.825000", "173228.285000", "173228.745000", "173229.205000", "173229.665000", "173230.125000", "173230.585000", "173231.045000", "173231.505000", "173231.965000", "173232.425000", "173232.885000", "173233.345000", "173233.805000", "173234.265000", "173234.725000", "173235.185000", "173235.645000", "173236.105000", "173236.565000", "173237.025000", "173237.485000", "173237.945000", "173238.405000", "173238.865000", "173239.325000", "173239.785000", "173240.245000", "173240.705000", "173241.165000", "173241.625000", "173242.085000", "173242.545000", "173243.005000", "173243.465000", "173243.925000", "173244.385000", "173244.845000", "173245.305000", "173245.765000", "173246.225000", "173246.685000", "173247.145000", "173247.605000", "173248.065000", "173248.525000", "173248.985000", "173249.445000", "173249.905000", "173250.365000", "173250.825000", "173251.285000", "173251.745000", "173252.205000", "173252.665000", "173253.125000", "173253.585000", "173254.045000", "173254.505000", "173254.965000", "173255.425000", "173255.885000", "173256.345000", "173256.805000", "173257.265000", "173257.725000", "173258.185000", "173258.645000", "173259.105000", "173259.565000", "173300.025000", "173300.485000", "173300.945000", "173301.405000", "173301.865000", "173302.325000", "173302.785000", "173303.245000", "173303.705000", "173304.165000", "173304.625000", "173305.085000", "173305.545000", "173306.005000", "173306.465000", "173306.925000", "173307.385000", "173307.845000", "173308.305000", "173308.765000", "173309.225000", "173309.685000", "173310.145000", "173310.605000", "173311.065000", "173311.525000", "173311.985000", "173312.445000", "173312.905000", "173313.365000", "173313.825000", "173314.285000", "173314.745000", "173315.205000", "173315.665000", "173316.125000", "173316.585000", "173317.045000", "173317.505000", "173317.965000", "173318.425000", "173318.885000", "173319.345000", "173319.805000", "173320.265000", "173320.725000", "173321.185000", "173321.645000", "173322.105000", "173322.565000", "173323.025000", "173323.485000", "173323.945000", "173324.405000", "173324.865000", "173325.325000", "173325.785000", "173326.245000", "173326.705000", "173327.165000", "173327.625000", "173328.085000", "173328.545000", "173329.005000", "173329.465000", "173329.925000", "173330.385000", "173330.845000", "173331.305000", "173331.765000", "173332.225000", "173332.685000", "173333.145000", "173333.605000", "173334.065000", "173334.525000", "173334.985000", "173335.445000", "173335.905000", "173336.365000", "173336.825000", "173337.285000", "173337.745000", "173338.205000", "173338.665000", "173339.125000", "173339.585000", "173340.045000", "173340.505000", "173340.965000", "173341.425000", "173341.885000", "173342.345000", "173342.805000", "173343.265000", "173343.725000", "173344.185000", "173344.645000", "173345.105000", "173345.565000", "173346.025000", "173346.485000", "173346.945000", "173347.405000", "173347.865000", "173348.325000", "173348.785000", "173349.245000", "173349.705000", "173350.165000", "173350.625000", "173351.085000", "173351.545000", "173352.005000", "173352.465000", "173352.925000", "173353.385000", "173353.845000", "173354.305000", "173354.765000", "173355.225000", "173355.685000", "173356.145000", "173356.605000", "173357.065000", "173357.525000", "173357.985000", "173358.445000", "173358.905000", "173359.365000", "173359.825000", "173400.285000", "173400.745000", "173401.205000", "173401.665000", "173402.125000", "173402.585000", "173403.045000", "173403.505000", "173403.965000", "173404.425000", "173404.885000", "173405.345000", "173405.805000", "173406.265000", "173406.725000", "173407.185000", "173407.645000", "173408.105000", "173408.565000", "173409.025000", "173409.485000", "173409.945000", "173410.405000", "173410.865000", "173411.325000", "173411.785000", "173412.245000", "173412.705000", "173413.165000", "173413.625000", "173414.085000", "173414.545000", "173415.005000", "173415.465000", "173415.925000", "173416.385000", "173416.845000", "173417.305000", "173417.765000", "173418.225000", "173418.685000", "173419.145000", "173419.605000", "173420.065000", "173420.525000", "173420.985000", "173421.445000", "173421.905000", "173422.365000", "173422.825000", "173423.285000", "173423.745000", "173424.205000", "173424.665000", "173425.125000", "173425.585000", "173426.045000", "173426.505000", "173426.965000", "173427.425000", "173427.885000", "173428.345000", "173428.805000", "173429.265000", "173429.725000", "173430.185000", "173430.645000", "173431.105000", "173431.565000", "173432.025000", "173432.485000", "173432.945000", "173433.405000", "173433.865000", "173434.325000", "173434.785000", "173435.245000", "173435.705000", "173436.165000", "173436.625000", "173437.085000", "173437.545000", "173438.005000", "173438.465000", "173438.925000", "173439.385000", "173439.845000", "173440.305000", "173440.765000", "173441.225000", "173441.685000", "173442.145000", "173442.605000", "173443.065000", "173443.525000", "173443.985000", "173444.445000", "173444.905000", "173445.365000", "173445.825000", "173446.285000", "173446.745000", "173447.205000", "173447.665000", "173448.125000", "173448.585000", "173449.045000", "173449.505000", "173449.965000", "173450.425000", "173450.885000", "173451.345000", "173451.805000", "173452.265000", "173452.725000", "173453.185000", "173453.645000", "173454.105000", "173454.565000", "173455.025000", "173455.485000", "173455.945000", "173456.405000", "173456.865000", "173457.325000", "173457.785000", "173458.245000", "173458.705000", "173459.165000", "173459.625000", "173500.085000", "173500.545000", "173501.005000", "173501.465000", "173501.925000", "173502.385000", "173502.845000", "173503.305000", "173503.765000", "173504.225000"],
