{
  "AcquisitionMatrixPE": 82,
  "AcquisitionNumber": 1,
  "AcquisitionTime": "22:14:32.027500",
  "BandwidthPerPixelPhaseEncode": 24.888,
  "BaseResolution": 82,
  "BodyPartExamined": "BRAIN",
  "ConsistencyInfo": "N4_VE11E_LATEST_20181129",
  "ConversionSoftware": "dcm2niix",
  "ConversionSoftwareVersion": "v1.0.20201102",
  "DerivedVendorReportedEchoSpacing": 0.00049,
  "DeviceSerialNumber": "66112",
  "DwellTime": 2e-06,
  "EchoTime": 0.0272,
  "EchoTrainLength": 82,
  "EffectiveEchoSpacing": 0.00049,
  "FlipAngle": 44,
  "ImageComments": "Unaliased MB8/PE3",
  "ImageOrientationPatientDICOM": [0.999738, 0.0218743, 0.00668161, -0.0218144, 0.999722, -0.00891911],
  "ImageType": [
    "ORIGINAL",
    "PRIMARY",
    "M",
    "MB",
    "ND",
    "NORM",
    "MOSAIC"
],
  "ImagingFrequency": 123.252,
  "InPlanePhaseEncodingDirectionDICOM": "COL",
  "InstitutionAddress": "Maynard 3,Hanover,NH,US,03755",
  "InstitutionName": "Dartmouth College - PBS",
  "InstitutionalDepartmentName": "Department",
  "MRAcquisitionType": "2D",
  "MagneticFieldStrength": 3,
  "Manufacturer": "Siemens",
  "ManufacturersModelName": "Prisma",
  "Modality": "MR",
  "MultibandAccelerationFactor": 8,
  "PartialFourier": 1,
  "PatientPosition": "HFS",
  "PercentPhaseFOV": 100,
  "PercentSampling": 100,
  "PhaseEncodingDirection": "j-",
  "PhaseEncodingSteps": 82,
  "PhaseResolution": 1,
  "PixelBandwidth": 3050,
  "ProcedureStepDescription": "Wager_Wager^1076_spacetop",
  "ProtocolName": "func_run-04_task-social_acq-ap-mb8",
  "PulseSequenceDetails": "%CustomerSeq%\\cmrr_mbep2d_bold",
  "ReceiveCoilActiveElements": "HEA;HEP",
  "ReceiveCoilName": "Head_32",
  "ReconMatrixPE": 82,
  "RepetitionTime": 0.46,
  "SAR": 0.0944853,
  "ScanOptions": "FS",
  "ScanningSequence": "EP",
  "SequenceName": "epfid2d1_82",
  "SequenceVariant": "SK\\SS",
  "SeriesDescription": "func_run-04_task-social_acq-ap-mb8",
  "SeriesNumber": 18,
  "ShimSetting": [4162, -7785, -7239, 580, -37, -11, 20, 62],
  "SliceThickness": 2.7,
  "SliceTiming": [0, 0.25, 0.0625, 0.315, 0.125, 0.3775, 0.1875, 0, 0.25, 0.0625, 0.315, 0.125, 0.3775, 0.1875, 0, 0.25, 0.0625, 0.315, 0.125, 0.3775, 0.1875, 0, 0.25, 0.0625, 0.315, 0.125, 0.3775, 0.1875, 0, 0.25, 0.0625, 0.315, 0.125, 0.3775, 0.1875, 0, 0.25, 0.0625, 0.315, 0.125, 0.3775, 0.1875, 0, 0.25, 0.0625, 0.315, 0.125, 0.3775, 0.1875, 0, 0.25, 0.0625, 0.315, 0.125, 0.3775, 0.1875],
  "SoftwareVersions": "syngo MR E11",
  "SpacingBetweenSlices": 2.7,
  "StationName": "AWP66112",
  "TaskName": "social",
  "TotalReadoutTime": 0.03969,
  "TxRefAmp": 253.67,
  "WipMemBlock": "3c2292fe-33e1-4672-b6cf-1c8dd0bb0e10||Sequence: R016 ve11e/master r/434b28f1; Aug  7 2019 18:53:46 by eja",
  "dcmmeta_affine": [
    [-2.682224988937378, -0.058526311069726944, 0.018562113866209984, 115.07896423339844],
    [-0.05868718773126602, 2.6821818351745605, -0.023681748658418655, -93.421142578125],
    [0.017926279455423355, 0.023929309099912643, 2.6998324394226074, -71.71964263916016],
    [0.0, 0.0, 0.0, 1.0]
],
  "dcmmeta_reorient_transform": [
    [0.0, -1.0, 0.0, 81.0],
    [1.0, 0.0, 0.0, 0.0],
    [0.0, 0.0, 1.0, 0.0],
    [0.0, 0.0, 0.0, 1.0]
],
  "dcmmeta_shape": [82, 82, 56, 872],
  "dcmmeta_slice_dim": 2,
  "dcmmeta_version": 0.6,
  "global": {
    "const": {
      "AccessionNumber": "A004111",
      "AcquisitionMatrix": [82, 0, 0, 82],
      "AngioFlag": "N",
      "BitsAllocated": 16,
      "BitsStored": 16,
      "BodyPartExamined": "BRAIN",
      "Columns": 656,
      "EchoNumbers": 1,
      "EchoTime": 27.2,
      "EchoTrainLength": 82,
      "FlipAngle": 44.0,
      "HighBit": 15,
      "ImageOrientationPatient": [0.99973840098591, 0.02187431459006, 0.00668161322921, -0.0218143516679, 0.99972225323541, -0.008919105741],
      "ImagePositionPatient": [-863.33986821123, -910.46495252112, -68.058502880588],
      "ImageType": [
        "ORIGINAL",
        "PRIMARY",
        "M",
        "MB",
        "ND",
        "NORM",
        "MOSAIC"
],
      "ImagedNucleus": "1H",
      "ImagingFrequency": 123.252207,
      "InPlanePhaseEncodingDirection": "COL",
      "MRAcquisitionType": "2D",
      "MagneticFieldStrength": 3.0,
      "Manufacturer": "SIEMENS",
      "ManufacturerModelName": "Prisma",
      "Modality": "MR",
      "NumberOfAverages": 1.0,
      "NumberOfPhaseEncodingSteps": 82,
      "PercentPhaseFieldOfView": 100.0,
      "PercentSampling": 100.0,
      "PerformedProcedureStepStartTime": "213212.058000",
      "PhotometricInterpretation": "MONOCHROME2",
      "PixelBandwidth": 3050.0,
      "PixelRepresentation": 0,
      "PixelSpacing": [2.6829268932343, 2.6829268932343],
      "ProtocolName": "func_run-04_task-social_acq-ap-mb8",
      "RepetitionTime": 460.0,
      "Rows": 656,
      "SAR": 0.09448533089734,
      "SamplesPerPixel": 1,
      "ScanOptions": "FS",
      "ScanningSequence": "EP",
      "SequenceName": "epfid2d1_82",
      "SequenceVariant": [
        "SK",
        "SS"
],
      "SeriesDescription": "func_run-04_task-social_acq-ap-mb8",
      "SeriesNumber": 18,
      "SeriesTime": "221445.451000",
      "SliceLocation": -70.104642566843,
      "SliceThickness": 2.7000000476837,
      "SmallestImagePixelValue": 0,
      "SoftwareVersions": "syngo MR E11",
      "SpacingBetweenSlices": 2.700000098374,
      "SpecificCharacterSet": "ISO_IR 100",
      "StudyID": "1",
      "StudyTime": "213211.994000",
      "TransmitCoilName": "Body",
      "VariableFlipAngleFlag": "N",
      "WindowCenterWidthExplanation": "Algo1"
    },
    "slices": {}
  },
  "time": {
    "samples": {
      "AcquisitionNumber": [1, 2, 3, 4, 5, 6, 7, 8, 9, 10, 11, 12, 13, 14, 15, 16, 17, 18, 19, 20, 21, 22, 23, 24, 25, 26, 27, 28, 29, 30, 31, 32, 33, 34, 35, 36, 37, 38, 39, 40, 41, 42, 43, 44, 45, 46, 47, 48, 49, 50, 51, 52, 53, 54, 55, 56, 57, 58, 59, 60, 61, 62, 63, 64, 65, 66, 67, 68, 69, 70, 71, 72, 73, 74, 75, 76, 77, 78, 79, 80, 81, 82, 83, 84, 85, 86, 87, 88, 89, 90, 91, 92, 93, 94, 95, 96, 97, 98, 99, 100, 101, 102, 103, 104, 105, 106, 107, 108, 109, 110, 111, 112, 113, 114, 115, 116, 117, 118, 119, 120, 121, 122, 123, 124, 125, 126, 127, 128, 129, 130, 131, 132, 133, 134, 135, 136, 137, 138, 139, 140, 141, 142, 143, 144, 145, 146, 147, 148, 149, 150, 151, 152, 153, 154, 155, 156, 157, 158, 159, 160, 161, 162, 163, 164, 165, 166, 167, 168, 169, 170, 171, 172, 173, 174, 175, 176, 177, 178, 179, 180, 181, 182, 183, 184, 185, 186, 187, 188, 189, 190, 191, 192, 193, 194, 195, 196, 197, 198, 199, 200, 201, 202, 203, 204, 205, 206, 207, 208, 209, 210, 211, 212, 213, 214, 215, 216, 217, 218, 219, 220, 221, 222, 223, 224, 225, 226, 227, 228, 229, 230, 231, 232, 233, 234, 235, 236, 237, 238, 239, 240, 241, 242, 243, 244, 245, 246, 247, 248, 249, 250, 251, 252, 253, 254, 255, 256, 257, 258, 259, 260, 261, 262, 263, 264, 265, 266, 267, 268, 269, 270, 271, 272, 273, 274, 275, 276, 277, 278, 279, 280, 281, 282, 283, 284, 285, 286, 287, 288, 289, 290, 291, 292, 293, 294, 295, 296, 297, 298, 299, 300, 301, 302, 303, 304, 305, 306, 307, 308, 309, 310, 311, 312, 313, 314, 315, 316, 317, 318, 319, 320, 321, 322, 323, 324, 325, 326, 327, 328, 329, 330, 331, 332, 333, 334, 335, 336, 337, 338, 339, 340, 341, 342, 343, 344, 345, 346, 347, 348, 349, 350, 351, 352, 353, 354, 355, 356, 357, 358, 359, 360, 361, 362, 363, 364, 365, 366, 367, 368, 369, 370, 371, 372, 373, 374, 375, 376, 377, 378, 379, 380, 381, 382, 383, 384, 385, 386, 387, 388, 389, 390, 391, 392, 393, 394, 395, 396, 397, 398, 399, 400, 401, 402, 403, 404, 405, 406, 407, 408, 409, 410, 411, 412, 413, 414, 415, 416, 417, 418, 419, 420, 421, 422, 423, 424, 425, 426, 427, 428, 429, 430, 431, 432, 433, 434, 435, 436, 437, 438, 439, 440, 441, 442, 443, 444, 445, 446, 447, 448, 449, 450, 451, 452, 453, 454, 455, 456, 457, 458, 459, 460, 461, 462, 463, 464, 465, 466, 467, 468, 469, 470, 471, 472, 473, 474, 475, 476, 477, 478, 479, 480, 481, 482, 483, 484, 485, 486, 487, 488, 489, 490, 491, 492, 493, 494, 495, 496, 497, 498, 499, 500, 501, 502, 503, 504, 505, 506, 507, 508, 509, 510, 511, 512, 513, 514, 515, 516, 517, 518, 519, 520, 521, 522, 523, 524, 525, 526, 527, 528, 529, 530, 531, 532, 533, 534, 535, 536, 537, 538, 539, 540, 541, 542, 543, 544, 545, 546, 547, 548, 549, 550, 551, 552, 553, 554, 555, 556, 557, 558, 559, 560, 561, 562, 563, 564, 565, 566, 567, 568, 569, 570, 571, 572, 573, 574, 575, 576, 577, 578, 579, 580, 581, 582, 583, 584, 585, 586, 587, 588, 589, 590, 591, 592, 593, 594, 595, 596, 597, 598, 599, 600, 601, 602, 603, 604, 605, 606, 607, 608, 609, 610, 611, 612, 613, 614, 615, 616, 617, 618, 619, 620, 621, 622, 623, 624, 625, 626, 627, 628, 629, 630, 631, 632, 633, 634, 635, 636, 637, 638, 639, 640, 641, 642, 643, 644, 645, 646, 647, 648, 649, 650, 651, 652, 653, 654, 655, 656, 657, 658, 659, 660, 661, 662, 663, 664, 665, 666, 667, 668, 669, 670, 671, 672, 673, 674, 675, 676, 677, 678, 679, 680, 681, 682, 683, 684, 685, 686, 687, 688, 689, 690, 691, 692, 693, 694, 695, 696, 697, 698, 699, 700, 701, 702, 703, 704, 705, 706, 707, 708, 709, 710, 711, 712, 713, 714, 715, 716, 717, 718, 719, 720, 721, 722, 723, 724, 725, 726, 727, 728, 729, 730, 731, 732, 733, 734, 735, 736, 737, 738, 739, 740, 741, 742, 743, 744, 745, 746, 747, 748, 749, 750, 751, 752, 753, 754, 755, 756, 757, 758, 759, 760, 761, 762, 763, 764, 765, 766, 767, 768, 769, 770, 771, 772, 773, 774, 775, 776, 777, 778, 779, 780, 781, 782, 783, 784, 785, 786, 787, 788, 789, 790, 791, 792, 793, 794, 795, 796, 797, 798, 799, 800, 801, 802, 803, 804, 805, 806, 807, 808, 809, 810, 811, 812, 813, 814, 815, 816, 817, 818, 819, 820, 821, 822, 823, 824, 825, 826, 827, 828, 829, 830, 831, 832, 833, 834, 835, 836, 837, 838, 839, 840, 841, 842, 843, 844, 845, 846, 847, 848, 849, 850, 851, 852, 853, 854, 855, 856, 857, 858, 859, 860, 861, 862, 863, 864, 865, 866, 867, 868, 869, 870, 871, 872],
      "AcquisitionTime": ["221432.027500", "221432.487500", "221432.947500", "221433.407500", "221433.867500", "221434.327500", "221434.787500", "221435.247500", "221435.707500", "221436.167500", "221436.627500", "221437.087500", "221437.547500", "221438.007500", "221438.467500", "221438.927500", "221439.387500", "221439.847500", "221440.307500", "221440.767500", "221441.227500", "221441.687500", "221442.147500", "221442.607500", "221443.067500", "221443.527500", "221443.987500", "221444.447500", "221444.907500", "221445.367500", "221445.827500", "221446.287500", "221446.747500", "221447.207500", "221447.667500", "221448.127500", "221448.587500", "221449.047500", "221449.507500", "221449.967500", "221450.427500", "221450.887500", "221451.347500", "221451.807500", "221452.267500", "221452.727500", "221453.187500", "221453.647500", "221454.107500", "221454.567500", "221455.027500", "221455.487500", "221455.947500", "221456.407500", "221456.867500", "221457.327500", "221457.787500", "221458.247500", "221458.707500", "221459.167500", "221459.627500", "221500.087500", "221500.547500", "221501.007500", "221501.467500", "221501.927500", "221502.387500", "221502.847500", "221503.307500", "221503.767500", "221504.227500", "221504.687500", "221505.147500", "221505.607500", "221506.067500", "221506.527500", "221506.987500", "221507.447500", "221507.907500", "221508.367500", "221508.827500", "221509.287500", "221509.747500", "221510.207500", "221510.667500", "221511.127500", "221511.587500", "221512.047500", "221512.507500", "221512.967500", "221513.427500", "221513.887500", "221514.347500", "221514.807500", "221515.267500", "221515.727500", "221516.187500", "221516.647500", "221517.107500", "221517.567500", "221518.027500", "221518.487500", "221518.947500", "221519.407500", "221519.867500", "221520.327500", "221520.787500", "221521.247500", "221521.707500", "221522.167500", "221522.627500", "221523.087500", "221523.547500", "221524.007500", "221524.467500", "221524.927500", "221525.387500", "221525.847500", "221526.307500", "221526.767500", "221527.227500", "221527.687500", "221528.147500", "221528.607500", "221529.067500", "221529.527500", "221529.987500", "221530.447500", "221530.907500", "221531.367500", "221531.827500", "221532.287500", "221532.747500", "221533.207500", "221533.667500", "221534.127500", "221534.587500", "221535.047500", "221535.507500", "221535.967500", "221536.427500", "221536.887500", "221537.347500", "221537.807500", "221538.267500", "221538.727500", "221539.187500", "221539.647500", "221540.107500", "221540.567500", "221541.027500", "221541.487500", "221541.947500", "221542.407500", "221542.867500", "221543.327500", "221543.787500", "221544.247500", "221544.707500", "221545.167500", "221545.627500", "221546.087500", "221546.547500", "221547.007500", "221547.467500", "221547.927500", "221548.387500", "221548.847500", "221549.307500", "221549.767500", "221550.227500", "221550.687500", "221551.147500", "221551.607500", "221552.067500", "221552.527500", "221552.987500", "221553.447500", "221553.907500", "221554.367500", "221554.827500", "221555.287500", "221555.747500", "221556.207500", "221556.667500", "221557.127500", "221557.587500", "221558.047500", "221558.507500", "221558.967500", "221559.427500", "221559.887500", "221600.347500", "221600.807500", "221601.267500", "221601.727500", "221602.187500", "221602.647500", "221603.107500", "221603.567500", "221604.027500", "221604.487500", "221604.947500", "221605.407500", "221605.867500", "221606.327500", "221606.787500", "221607.247500", "221607.707500", "221608.167500", "221608.627500", "221609.087500", "221609.547500", "221610.007500", "221610.467500", "221610.927500", "221611.387500", "221611.847500", "221612.307500", "221612.767500", "221613.227500", "221613.687500", "221614.147500", "221614.607500", "221615.067500", "221615.527500", "221615.987500", "221616.447500", "221616.907500", "221617.367500", "221617.827500", "221618.287500", "221618.747500", "221619.207500", "221619.667500", "221620.127500", "221620.587500", "221621.047500", "221621.507500", "221621.967500", "221622.427500", "221622.887500", "221623.347500", "221623.807500", "221624.267500", "221624.727500", "221625.187500", "221625.647500", "221626.107500", "221626.567500", "221627.027500", "221627.487500", "221627.947500", "221628.407500", "221628.867500", "221629.327500", "221629.787500", "221630.247500", "221630.707500", "221631.167500", "221631.627500", "221632.087500", "221632.547500", "221633.007500", "221633.467500", "221633.927500", "221634.387500", "221634.847500", "221635.307500", "221635.767500", "221636.227500", "221636.687500", "221637.147500", "221637.607500", "221638.067500", "221638.527500", "221638.987500", "221639.447500", "221639.907500", "221640.367500", "221640.827500", "221641.287500", "221641.747500", "221642.207500", "221642.667500", "221643.127500", "221643.587500", "221644.047500", "221644.507500", "221644.967500", "221645.427500", "221645.887500", "221646.347500", "221646.807500", "221647.267500", "221647.727500", "221648.187500", "221648.647500", "221649.107500", "221649.567500", "221650.027500", "221650.487500", "221650.947500", "221651.407500", "221651.867500", "221652.327500", "221652.787500", "221653.247500", "221653.707500", "221654.167500", "221654.627500", "221655.087500", "221655.547500", "221656.007500", "221656.467500", "221656.927500", "221657.387500", "221657.847500", "221658.307500", "221658.767500", "221659.227500", "221659.687500", "221700.147500", "221700.607500", "221701.067500", "221701.527500", "221701.987500", "221702.447500", "221702.907500", "221703.367500", "221703.827500", "221704.287500", "221704.747500", "221705.207500", "221705.667500", "221706.127500", "221706.587500", "221707.047500", "221707.507500", "221707.967500", "221708.427500", "221708.887500", "221709.347500", "221709.807500", "221710.267500", "221710.727500", "221711.187500", "221711.647500", "221712.107500", "221712.567500", "221713.027500", "221713.487500", "221713.947500", "221714.407500", "221714.867500", "221715.327500", "221715.787500", "221716.247500", "221716.707500", "221717.167500", "221717.627500", "221718.087500", "221718.547500", "221719.007500", "221719.467500", "221719.927500", "221720.387500", "221720.847500", "221721.307500", "221721.767500", "221722.227500", "221722.687500", "221723.147500", "221723.607500", "221724.067500", "221724.527500", "221724.987500", "221725.447500", "221725.907500", "221726.367500", "221726.827500", "221727.287500", "221727.747500", "221728.207500", "221728.667500", "221729.127500", "221729.587500", "221730.047500", "221730.507500", "221730.967500", "221731.427500", "221731.887500", "221732.347500", "221732.807500", "221733.267500", "221733.727500", "221734.187500", "221734.647500", "221735.107500", "221735.567500", "221736.027500", "221736.487500", "221736.947500", "221737.407500", "221737.867500", "221738.327500", "221738.787500", "221739.247500", "221739.707500", "221740.167500", "221740.627500", "221741.087500", "221741.547500", "221742.007500", "221742.467500", "221742.927500", "221743.387500", "221743.847500", "221744.307500", "221744.767500", "221745.227500", "221745.687500", "221746.147500", "221746.607500", "221747.067500", "221747.527500", "221747.987500", "221748.447500", "221748.907500", "221749.367500", "221749.827500", "221750.287500", "221750.747500", "221751.207500", "221751.667500", "221752.127500", "221752.587500", "221753.047500", "221753.507500", "221753.967500", "221754.427500", "221754.887500", "221755.347500", "221755.807500", "221756.267500", "221756.727500", "221757.187500", "221757.647500", "221758.107500", "221758.567500", "221759.027500", "221759.487500", "221759.947500", "221800.407500", "221800.867500", "221801.327500", "221801.787500", "221802.247500", "221802.707500", "221803.167500", "221803.627500", "221804.087500", "221804.547500", "221805.007500", "221805.467500", "221805.927500", "221806.387500", "221806.847500", "221807.307500", "221807.767500", "221808.227500", "221808.687500", "221809.147500", "221809.607500", "221810.067500", "221810.527500", "221810.987500", "221811.447500", "221811.907500", "221812.367500", "221812.827500", "221813.287500", "221813.747500", "221814.207500", "221814.667500", "221815.127500", "221815.587500", "221816.047500", "221816.507500", "221816.967500", "221817.427500", "221817.887500", "221818.347500", "221818.807500", "221819.267500", "221819.727500", "221820.187500", "221820.647500", "221821.107500", "221821.567500", "221822.027500", "221822.487500", "221822.947500", "221823.407500", "221823.867500", "221824.327500", "221824.787500", "221825.247500", "221825.707500", "221826.167500", "221826.627500", "221827.087500", "221827.547500", "221828.007500", "221828.467500", "221828.927500", "221829.387500", "221829.847500", "221830.307500", "221830.767500", "221831.227500", "221831.687500", "221832.147500", "221832.607500", "221833.067500", "221833.527500", "221833.987500", "221834.447500", "221834.907500", "221835.367500", "221835.827500", "221836.287500", "221836.747500", "221837.207500", "221837.667500", "221838.127500", "221838.587500", "221839.047500", "221839.507500", "221839.967500", "221840.427500", "221840.887500", "221841.347500", "221841.807500", "221842.267500", "221842.727500", "221843.187500", "221843.647500", "221844.107500", "221844.567500", "221845.027500", "221845.487500", "221845.947500", "221846.407500", "221846.867500", "221847.327500", "221847.787500", "221848.247500", "221848.707500", "221849.167500", "221849.627500", "221850.087500", "221850.547500", "221851.007500", "221851.467500", "221851.927500", "221852.387500", "221852.847500", "221853.307500", "221853.767500", "221854.227500", "221854.687500", "221855.147500", "221855.607500", "221856.067500", "221856.527500", "221856.987500", "221857.447500", "221857.907500", "221858.367500", "221858.827500", "221859.287500", "221859.747500", "221900.207500", "221900.667500", "221901.127500", "221901.587500", "221902.047500", "221902.507500", "221902.967500", "221903.427500", "221903.887500", "221904.347500", "221904.807500", "221905.267500", "221905.727500", "221906.187500", "221906.647500", "221907.107500", "221907.567500", "221908.027500", "221908.487500", "221908.947500", "221909.407500", "221909.867500", "221910.327500", "221910.787500", "221911.247500", "221911.707500", "221912.167500", "221912.627500", "221913.087500", "221913.547500", "221914.007500", "221914.467500", "221914.927500", "221915.387500", "221915.847500", "221916.307500", "221916.767500", "221917.227500", "221917.687500", "221918.147500", "221918.607500", "221919.067500", "221919.527500", "221919.987500", "221920.447500", "221920.907500", "221921.367500", "221921.827500", "221922.287500", "221922.747500", "221923.207500", "221923.667500", "221924.127500", "221924.587500", "221925.047500", "221925.507500", "221925.967500", "221926.427500", "221926.887500", "221927.347500", "221927.807500", "221928.267500", "221928.727500", "221929.187500", "221929.647500", "221930.107500", "221930.567500", "221931.027500", "221931.487500", "221931.947500", "221932.407500", "221932.867500", "221933.327500", "221933.787500", "221934.247500", "221934.707500", "221935.167500", "221935.627500", "221936.087500", "221936.547500", "221937.007500", "221937.467500", "221937.927500", "221938.387500", "221938.847500", "221939.307500", "221939.767500", "221940.227500", "221940.687500", "221941.147500", "221941.607500", "221942.067500", "221942.527500", "221942.987500", "221943.447500", "221943.907500", "221944.367500", "221944.827500", "221945.287500", "221945.747500", "221946.207500", "221946.667500", "221947.127500", "221947.587500", "221948.047500", "221948.507500", "221948.967500", "221949.427500", "221949.887500", "221950.347500", "221950.807500", "221951.267500", "221951.727500", "221952.187500", "221952.647500", "221953.107500", "221953.567500", "221954.027500", "221954.487500", "221954.947500", "221955.407500", "221955.867500", "221956.327500", "221956.787500", "221957.247500", "221957.707500", "221958.167500", "221958.627500", "221959.087500", "221959.547500", "222000.007500", "222000.467500", "222000.927500", "222001.387500", "222001.847500", "222002.307500", "222002.767500", "222003.227500", "222003.687500", "222004.147500", "222004.607500", "222005.067500", "222005.527500", "222005.987500", "222006.447500", "222006.907500", "222007.367500", "222007.827500", "222008.287500", "222008.747500", "222009.207500", "222009.667500", "222010.127500", "222010.587500", "222011.047500", "222011.507500", "222011.967500", "222012.427500", "222012.887500", "222013.347500", "222013.807500", "222014.267500", "222014.727500", "222015.187500", "222015.647500", "222016.107500", "222016.567500", "222017.027500", "222017.487500", "222017.947500", "222018.407500", "222018.867500", "222019.327500", "222019.787500", "222020.247500", "222020.707500", "222021.167500", "222021.627500", "222022.087500", "222022.547500", "222023.007500", "222023.467500", "222023.927500", "222024.387500", "222024.847500", "222025.307500", "222025.767500", "222026.227500", "222026.687500", "222027.147500", "222027.607500", "222028.067500", "222028.527500", "222028.987500", "222029.447500", "222029.907500", "222030.367500", "222030.827500", "222031.287500", "222031.747500", "222032.207500", "222032.667500", "222033.127500", "222033.587500", "222034.047500", "222034.507500", "222034.967500", "222035.427500", "222035.887500", "222036.347500", "222036.807500", "222037.267500", "222037.727500", "222038.187500", "222038.647500", "222039.107500", "222039.567500", "222040.027500", "222040.487500", "222040.947500", "222041.407500", "222041.867500", "222042.327500", "222042.787500", "222043.247500", "222043.707500", "222044.167500", "222044.627500", "222045.087500", "222045.547500", "222046.007500", "222046.467500", "222046.927500", "222047.387500", "222047.847500", "222048.307500", "222048.767500", "222049.227500", "222049.687500", "222050.147500", "222050.607500", "222051.067500", "222051.527500", "222051.987500", "222052.447500", "222052.907500", "222053.367500", "222053.827500", "222054.287500", "222054.747500", "222055.207500", "222055.667500", "222056.127500", "222056.587500", "222057.047500", "222057.507500", "222057.967500", "222058.427500", "222058.887500", "222059.347500", "222059.807500", "222100.267500", "222100.727500", "222101.187500", "222101.647500", "222102.107500", "222102.567500", "222103.027500", "222103.487500", "222103.947500", "222104.407500", "222104.867500", "222105.327500", "222105.787500", "222106.247500", "222106.707500", "222107.167500", "222107.627500", "222108.087500", "222108.547500", "222109.007500", "222109.467500", "222109.927500", "222110.387500", "222110.847500", "222111.307500", "222111.767500", "222112.227500", "222112.687500"],
