{
  "AcquisitionMatrixPE": 82,
  "AcquisitionNumber": 1,
  "AcquisitionTime": "22:41:15.602500",
  "BandwidthPerPixelPhaseEncode": 24.888,
  "BaseResolution": 82,
  "BodyPartExamined": "BRAIN",
  "ConsistencyInfo": "N4_VE11E_LATEST_20181129",
  "ConversionSoftware": "dcm2niix",
  "ConversionSoftwareVersion": "v1.0.20201102",
  "DerivedVendorReportedEchoSpacing": 0.00049,
  "DeviceSerialNumber": "66112",
  "DwellTime": 2e-06,
  "EchoTime": 0.0272,
  "EchoTrainLength": 82,
  "EffectiveEchoSpacing": 0.00049,
  "FlipAngle": 44,
  "ImageComments": "Unaliased MB8/PE3",
  "ImageOrientationPatientDICOM": [0.999311, 0.0331416, -0.0167186, -0.0305317, 0.99002, 0.137581],
  "ImageType": [
    "ORIGINAL",
    "PRIMARY",
    "M",
    "MB",
    "ND",
    "NORM",
    "MOSAIC"
],
  "ImagingFrequency": 123.252,
  "InPlanePhaseEncodingDirectionDICOM": "COL",
  "InstitutionAddress": "Maynard 3,Hanover,NH,US,03755",
  "InstitutionName": "Dartmouth College - PBS",
  "InstitutionalDepartmentName": "Department",
  "MRAcquisitionType": "2D",
  "MagneticFieldStrength": 3,
  "Manufacturer": "Siemens",
  "ManufacturersModelName": "Prisma",
  "Modality": "MR",
  "MultibandAccelerationFactor": 8,
  "PartialFourier": 1,
  "PatientPosition": "HFS",
  "PercentPhaseFOV": 100,
  "PercentSampling": 100,
  "PhaseEncodingDirection": "j-",
  "PhaseEncodingSteps": 82,
  "PhaseResolution": 1,
  "PixelBandwidth": 3050,
  "ProcedureStepDescription": "Wager_Wager^1076_spacetop",
  "ProtocolName": "func_run-01_task-alignvideo_acq-ap-mb8",
  "PulseSequenceDetails": "%CustomerSeq%\\cmrr_mbep2d_bold",
  "ReceiveCoilActiveElements": "HEA;HEP",
  "ReceiveCoilName": "Head_32",
  "ReconMatrixPE": 82,
  "RepetitionTime": 0.46,
  "SAR": 0.0945955,
  "ScanOptions": "FS",
  "ScanningSequence": "EP",
  "SequenceName": "epfid2d1_82",
  "SequenceVariant": "SK\\SS",
  "SeriesDescription": "func_run-01_task-alignvideo_acq-ap-mb8",
  "SeriesNumber": 30,
  "ShimSetting": [4161, -7782, -7246, 540, -37, -23, 37, 60],
  "SliceThickness": 2.7,
  "SliceTiming": [0, 0.2525, 0.0625, 0.315, 0.1275, 0.3775, 0.19, 0, 0.2525, 0.0625, 0.315, 0.1275, 0.3775, 0.19, 0, 0.2525, 0.0625, 0.315, 0.1275, 0.3775, 0.19, 0, 0.2525, 0.0625, 0.315, 0.1275, 0.3775, 0.19, 0, 0.2525, 0.0625, 0.315, 0.1275, 0.3775, 0.19, 0, 0.2525, 0.0625, 0.315, 0.1275, 0.3775, 0.19, 0, 0.2525, 0.0625, 0.315, 0.1275, 0.3775, 0.19, 0, 0.2525, 0.0625, 0.315, 0.1275, 0.3775, 0.19],
  "SoftwareVersions": "syngo MR E11",
  "SpacingBetweenSlices": 2.7,
  "StationName": "AWP66112",
  "TaskName": "alignvideo",
  "TotalReadoutTime": 0.03969,
  "TxRefAmp": 253.67,
  "WipMemBlock": "eb191d08-c1f6-4712-9cc1-9c3cd992f396||Sequence: R016 ve11e/master r/434b28f1; Aug  7 2019 18:53:46 by eja",
  "dcmmeta_affine": [
    [-2.6810779571533203, -0.08191429823637009, -0.05700075998902321, 118.06758880615234],
    [-0.08891642093658447, 2.6561508178710938, 0.36983534693717957, -99.9625473022461],
    [-0.04485474154353142, -0.36912059783935547, 2.673943281173706, -52.67265319824219],
    [0.0, 0.0, 0.0, 1.0]
],
  "dcmmeta_reorient_transform": [
    [0.0, -1.0, 0.0, 81.0],
    [1.0, 0.0, 0.0, 0.0],
    [0.0, 0.0, 1.0, 0.0],
    [0.0, 0.0, 0.0, 1.0]
],
  "dcmmeta_shape": [82, 82, 56, 921],
  "dcmmeta_slice_dim": 2,
  "dcmmeta_version": 0.6,
  "global": {
    "const": {
      "AccessionNumber": "A004111",
      "AcquisitionMatrix": [82, 0, 0, 82],
      "AngioFlag": "N",
      "BitsAllocated": 16,
      "BitsStored": 16,
      "BodyPartExamined": "BRAIN",
      "Columns": 656,
      "EchoNumbers": 1,
      "EchoTime": 27.2,
      "EchoTrainLength": 82,
      "FlipAngle": 44.0,
      "HighBit": 15,
      "ImageOrientationPatient": [0.9993108249669, 0.03314157550236, -0.0167185847847, -0.030531692713, 0.99001979702316, 0.13758131138461],
      "ImagePositionPatient": [-857.39248181296, -903.01994132422, -175.63572171913],
      "ImageType": [
        "ORIGINAL",
        "PRIMARY",
        "M",
        "MB",
        "ND",
        "NORM",
        "MOSAIC"
],
      "ImagedNucleus": "1H",
      "ImagingFrequency": 123.252198,
      "InPlanePhaseEncodingDirection": "COL",
      "MRAcquisitionType": "2D",
      "MagneticFieldStrength": 3.0,
      "Manufacturer": "SIEMENS",
      "ManufacturerModelName": "Prisma",
      "Modality": "MR",
      "NumberOfAverages": 1.0,
      "NumberOfPhaseEncodingSteps": 82,
      "PercentPhaseFieldOfView": 100.0,
      "PercentSampling": 100.0,
      "PerformedProcedureStepStartTime": "213212.058000",
      "PhotometricInterpretation": "MONOCHROME2",
      "PixelBandwidth": 3050.0,
      "PixelRepresentation": 0,
      "PixelSpacing": [2.6829268932343, 2.6829268932343],
      "ProtocolName": "func_run-01_task-alignvideo_acq-ap-mb8",
      "RepetitionTime": 460.0,
      "Rows": 656,
      "SAR": 0.09459551446332,
      "SamplesPerPixel": 1,
      "ScanOptions": "FS",
      "ScanningSequence": "EP",
      "SequenceName": "epfid2d1_82",
      "SequenceVariant": [
        "SK",
        "SS"
],
      "SeriesDescription": "func_run-01_task-alignvideo_acq-ap-mb8",
      "SeriesNumber": 30,
      "SeriesTime": "224145.456000",
      "SliceLocation": -68.349372297366,
      "SliceThickness": 2.7000000476837,
      "SmallestImagePixelValue": 0,
      "SoftwareVersions": "syngo MR E11",
      "SpacingBetweenSlices": 2.7000001026273,
      "SpecificCharacterSet": "ISO_IR 100",
      "StudyID": "1",
      "StudyTime": "213211.994000",
      "TransmitCoilName": "Body",
      "VariableFlipAngleFlag": "N",
      "WindowCenterWidthExplanation": "Algo1"
    },
    "slices": {}
  },
  "time": {
    "samples": {
      "AcquisitionNumber": [1, 2, 3, 4, 5, 6, 7, 8, 9, 10, 11, 12, 13, 14, 15, 16, 17, 18, 19, 20, 21, 22, 23, 24, 25, 26, 27, 28, 29, 30, 31, 32, 33, 34, 35, 36, 37, 38, 39, 40, 41, 42, 43, 44, 45, 46, 47, 48, 49, 50, 51, 52, 53, 54, 55, 56, 57, 58, 59, 60, 61, 62, 63, 64, 65, 66, 67, 68, 69, 70, 71, 72, 73, 74, 75, 76, 77, 78, 79, 80, 81, 82, 83, 84, 85, 86, 87, 88, 89, 90, 91, 92, 93, 94, 95, 96, 97, 98, 99, 100, 101, 102, 103, 104, 105, 106, 107, 108, 109, 110, 111, 112, 113, 114, 115, 116, 117, 118, 119, 120, 121, 122, 123, 124, 125, 126, 127, 128, 129, 130, 131, 132, 133, 134, 135, 136, 137, 138, 139, 140, 141, 142, 143, 144, 145, 146, 147, 148, 149, 150, 151, 152, 153, 154, 155, 156, 157, 158, 159, 160, 161, 162, 163, 164, 165, 166, 167, 168, 169, 170, 171, 172, 173, 174, 175, 176, 177, 178, 179, 180, 181, 182, 183, 184, 185, 186, 187, 188, 189, 190, 191, 192, 193, 194, 195, 196, 197, 198, 199, 200, 201, 202, 203, 204, 205, 206, 207, 208, 209, 210, 211, 212, 213, 214, 215, 216, 217, 218, 219, 220, 221, 222, 223, 224, 225, 226, 227, 228, 229, 230, 231, 232, 233, 234, 235, 236, 237, 238, 239, 240, 241, 242, 243, 244, 245, 246, 247, 248, 249, 250, 251, 252, 253, 254, 255, 256, 257, 258, 259, 260, 261, 262, 263, 264, 265, 266, 267, 268, 269, 270, 271, 272, 273, 274, 275, 276, 277, 278, 279, 280, 281, 282, 283, 284, 285, 286, 287, 288, 289, 290, 291, 292, 293, 294, 295, 296, 297, 298, 299, 300, 301, 302, 303, 304, 305, 306, 307, 308, 309, 310, 311, 312, 313, 314, 315, 316, 317, 318, 319, 320, 321, 322, 323, 324, 325, 326, 327, 328, 329, 330, 331, 332, 333, 334, 335, 336, 337, 338, 339, 340, 341, 342, 343, 344, 345, 346, 347, 348, 349, 350, 351, 352, 353, 354, 355, 356, 357, 358, 359, 360, 361, 362, 363, 364, 365, 366, 367, 368, 369, 370, 371, 372, 373, 374, 375, 376, 377, 378, 379, 380, 381, 382, 383, 384, 385, 386, 387, 388, 389, 390, 391, 392, 393, 394, 395, 396, 397, 398, 399, 400, 401, 402, 403, 404, 405, 406, 407, 408, 409, 410, 411, 412, 413, 414, 415, 416, 417, 418, 419, 420, 421, 422, 423, 424, 425, 426, 427, 428, 429, 430, 431, 432, 433, 434, 435, 436, 437, 438, 439, 440, 441, 442, 443, 444, 445, 446, 447, 448, 449, 450, 451, 452, 453, 454, 455, 456, 457, 458, 459, 460, 461, 462, 463, 464, 465, 466, 467, 468, 469, 470, 471, 472, 473, 474, 475, 476, 477, 478, 479, 480, 481, 482, 483, 484, 485, 486, 487, 488, 489, 490, 491, 492, 493, 494, 495, 496, 497, 498, 499, 500, 501, 502, 503, 504, 505, 506, 507, 508, 509, 510, 511, 512, 513, 514, 515, 516, 517, 518, 519, 520, 521, 522, 523, 524, 525, 526, 527, 528, 529, 530, 531, 532, 533, 534, 535, 536, 537, 538, 539, 540, 541, 542, 543, 544, 545, 546, 547, 548, 549, 550, 551, 552, 553, 554, 555, 556, 557, 558, 559, 560, 561, 562, 563, 564, 565, 566, 567, 568, 569, 570, 571, 572, 573, 574, 575, 576, 577, 578, 579, 580, 581, 582, 583, 584, 585, 586, 587, 588, 589, 590, 591, 592, 593, 594, 595, 596, 597, 598, 599, 600, 601, 602, 603, 604, 605, 606, 607, 608, 609, 610, 611, 612, 613, 614, 615, 616, 617, 618, 619, 620, 621, 622, 623, 624, 625, 626, 627, 628, 629, 630, 631, 632, 633, 634, 635, 636, 637, 638, 639, 640, 641, 642, 643, 644, 645, 646, 647, 648, 649, 650, 651, 652, 653, 654, 655, 656, 657, 658, 659, 660, 661, 662, 663, 664, 665, 666, 667, 668, 669, 670, 671, 672, 673, 674, 675, 676, 677, 678, 679, 680, 681, 682, 683, 684, 685, 686, 687, 688, 689, 690, 691, 692, 693, 694, 695, 696, 697, 698, 699, 700, 701, 702, 703, 704, 705, 706, 707, 708, 709, 710, 711, 712, 713, 714, 715, 716, 717, 718, 719, 720, 721, 722, 723, 724, 725, 726, 727, 728, 729, 730, 731, 732, 733, 734, 735, 736, 737, 738, 739, 740, 741, 742, 743, 744, 745, 746, 747, 748, 749, 750, 751, 752, 753, 754, 755, 756, 757, 758, 759, 760, 761, 762, 763, 764, 765, 766, 767, 768, 769, 770, 771, 772, 773, 774, 775, 776, 777, 778, 779, 780, 781, 782, 783, 784, 785, 786, 787, 788, 789, 790, 791, 792, 793, 794, 795, 796, 797, 798, 799, 800, 801, 802, 803, 804, 805, 806, 807, 808, 809, 810, 811, 812, 813, 814, 815, 816, 817, 818, 819, 820, 821, 822, 823, 824, 825, 826, 827, 828, 829, 830, 831, 832, 833, 834, 835, 836, 837, 838, 839, 840, 841, 842, 843, 844, 845, 846, 847, 848, 849, 850, 851, 852, 853, 854, 855, 856, 857, 858, 859, 860, 861, 862, 863, 864, 865, 866, 867, 868, 869, 870, 871, 872, 873, 874, 875, 876, 877, 878, 879, 880, 881, 882, 883, 884, 885, 886, 887, 888, 889, 890, 891, 892, 893, 894, 895, 896, 897, 898, 899, 900, 901, 902, 903, 904, 905, 906, 907, 908, 909, 910, 911, 912, 913, 914, 915, 916, 917, 918, 919, 920, 921],
      "AcquisitionTime": ["224115.602500", "224116.062500", "224116.522500", "224116.982500", "224117.442500", "224117.902500", "224118.362500", "224118.822500", "224119.282500", "224119.742500", "224120.202500", "224120.662500", "224121.122500", "224121.582500", "224122.042500", "224122.502500", "224122.962500", "224123.422500", "224123.882500", "224124.342500", "224124.802500", "224125.262500", "224125.722500", "224126.182500", "224126.642500", "224127.102500", "224127.562500", "224128.022500", "224128.482500", "224128.942500", "224129.402500", "224129.862500", "224130.322500", "224130.782500", "224131.242500", "224131.702500", "224132.162500", "224132.622500", "224133.082500", "224133.542500", "224134.002500", "224134.462500", "224134.922500", "224135.382500", "224135.842500", "224136.302500", "224136.762500", "224137.222500", "224137.682500", "224138.142500", "224138.602500", "224139.062500", "224139.522500", "224139.982500", "224140.442500", "224140.902500", "224141.362500", "224141.822500", "224142.282500", "224142.742500", "224143.202500", "224143.662500", "224144.122500", "224144.582500", "224145.042500", "224145.502500", "224145.962500", "224146.422500", "224146.882500", "224147.342500", "224147.802500", "224148.262500", "224148.722500", "224149.182500", "224149.642500", "224150.102500", "224150.562500", "224151.022500", "224151.482500", "224151.942500", "224152.402500", "224152.862500", "224153.322500", "224153.782500", "224154.242500", "224154.702500", "224155.162500", "224155.622500", "224156.082500", "224156.542500", "224157.002500", "224157.462500", "224157.922500", "224158.382500", "224158.842500", "224159.302500", "224159.762500", "224200.222500", "224200.682500", "224201.142500", "224201.602500", "224202.062500", "224202.522500", "224202.982500", "224203.442500", "224203.902500", "224204.362500", "224204.822500", "224205.282500", "224205.742500", "224206.202500", "224206.662500", "224207.122500", "224207.582500", "224208.042500", "224208.502500", "224208.962500", "224209.422500", "224209.882500", "224210.342500", "224210.802500", "224211.262500", "224211.722500", "224212.182500", "224212.642500", "224213.102500", "224213.562500", "224214.022500", "224214.482500", "224214.942500", "224215.402500", "224215.862500", "224216.322500", "224216.782500", "224217.242500", "224217.702500", "224218.162500", "224218.622500", "224219.082500", "224219.542500", "224220.002500", "224220.462500", "224220.922500", "224221.382500", "224221.842500", "224222.302500", "224222.762500", "224223.222500", "224223.682500", "224224.142500", "224224.602500", "224225.062500", "224225.522500", "224225.982500", "224226.442500", "224226.902500", "224227.362500", "224227.822500", "224228.282500", "224228.742500", "224229.202500", "224229.662500", "224230.122500", "224230.582500", "224231.042500", "224231.502500", "224231.962500", "224232.422500", "224232.882500", "224233.342500", "224233.802500", "224234.262500", "224234.722500", "224235.182500", "224235.642500", "224236.102500", "224236.562500", "224237.022500", "224237.482500", "224237.942500", "224238.402500", "224238.862500", "224239.322500", "224239.782500", "224240.242500", "224240.702500", "224241.162500", "224241.622500", "224242.082500", "224242.542500", "224243.002500", "224243.462500", "224243.922500", "224244.382500", "224244.842500", "224245.302500", "224245.762500", "224246.222500", "224246.682500", "224247.142500", "224247.602500", "224248.062500", "224248.522500", "224248.982500", "224249.442500", "224249.902500", "224250.362500", "224250.822500", "224251.282500", "224251.742500", "224252.202500", "224252.662500", "224253.122500", "224253.582500", "224254.042500", "224254.502500", "224254.962500", "224255.422500", "224255.882500", "224256.342500", "224256.802500", "224257.262500", "224257.722500", "224258.182500", "224258.642500", "224259.102500", "224259.562500", "224300.022500", "224300.482500", "224300.942500", "224301.402500", "224301.862500", "224302.322500", "224302.782500", "224303.242500", "224303.702500", "224304.162500", "224304.622500", "224305.082500", "224305.542500", "224306.002500", "224306.462500", "224306.922500", "224307.382500", "224307.842500", "224308.302500", "224308.762500", "224309.222500", "224309.682500", "224310.142500", "224310.602500", "224311.062500", "224311.522500", "224311.982500", "224312.442500", "224312.902500", "224313.362500", "224313.822500", "224314.282500", "224314.742500", "224315.202500", "224315.662500", "224316.122500", "224316.582500", "224317.042500", "224317.502500", "224317.962500", "224318.422500", "224318.882500", "224319.342500", "224319.802500", "224320.262500", "224320.722500", "224321.182500", "224321.642500", "224322.102500", "224322.562500", "224323.022500", "224323.482500", "224323.942500", "224324.402500", "224324.862500", "224325.322500", "224325.782500", "224326.242500", "224326.702500", "224327.162500", "224327.622500", "224328.082500", "224328.542500", "224329.002500", "224329.462500", "224329.922500", "224330.382500", "224330.842500", "224331.302500", "224331.762500", "224332.222500", "224332.682500", "224333.142500", "224333.602500", "224334.062500", "224334.522500", "224334.982500", "224335.442500", "224335.902500", "224336.362500", "224336.822500", "224337.282500", "224337.742500", "224338.202500", "224338.662500", "224339.122500", "224339.582500", "224340.042500", "224340.502500", "224340.962500", "224341.422500", "224341.882500", "224342.342500", "224342.802500", "224343.262500", "224343.722500", "224344.182500", "224344.642500", "224345.102500", "224345.562500", "224346.022500", "224346.482500", "224346.942500", "224347.402500", "224347.862500", "224348.322500", "224348.782500", "224349.242500", "224349.702500", "224350.162500", "224350.622500", "224351.082500", "224351.542500", "224352.002500", "224352.462500", "224352.922500", "224353.382500", "224353.842500", "224354.302500", "224354.762500", "224355.222500", "224355.682500", "224356.142500", "224356.602500", "224357.062500", "224357.522500", "224357.982500", "224358.442500", "224358.902500", "224359.362500", "224359.822500", "224400.282500", "224400.742500", "224401.202500", "224401.662500", "224402.122500", "224402.582500", "224403.042500", "224403.502500", "224403.962500", "224404.422500", "224404.882500", "224405.342500", "224405.802500", "224406.262500", "224406.722500", "224407.182500", "224407.642500", "224408.102500", "224408.562500", "224409.022500", "224409.482500", "224409.942500", "224410.402500", "224410.862500", "224411.322500", "224411.782500", "224412.242500", "224412.702500", "224413.162500", "224413.622500", "224414.082500", "224414.542500", "224415.002500", "224415.462500", "224415.922500", "224416.382500", "224416.842500", "224417.302500", "224417.762500", "224418.222500", "224418.682500", "224419.142500", "224419.602500", "224420.062500", "224420.522500", "224420.982500", "224421.442500", "224421.902500", "224422.362500", "224422.822500", "224423.282500", "224423.742500", "224424.202500", "224424.662500", "224425.122500", "224425.582500", "224426.042500", "224426.502500", "224426.962500", "224427.422500", "224427.882500", "224428.342500", "224428.802500", "224429.262500", "224429.722500", "224430.182500", "224430.642500", "224431.102500", "224431.562500", "224432.022500", "224432.482500", "224432.942500", "224433.402500", "224433.862500", "224434.322500", "224434.782500", "224435.242500", "224435.702500", "224436.162500", "224436.622500", "224437.082500", "224437.542500", "224438.002500", "224438.462500", "224438.922500", "224439.382500", "224439.842500", "224440.302500", "224440.762500", "224441.222500", "224441.682500", "224442.142500", "224442.602500", "224443.062500", "224443.522500", "224443.982500", "224444.442500", "224444.902500", "224445.362500", "224445.822500", "224446.282500", "224446.742500", "224447.202500", "224447.662500", "224448.122500", "224448.582500", "224449.042500", "224449.502500", "224449.962500", "224450.422500", "224450.882500", "224451.342500", "224451.802500", "224452.262500", "224452.722500", "224453.182500", "224453.642500", "224454.102500", "224454.562500", "224455.022500", "224455.482500", "224455.942500", "224456.402500", "224456.862500", "224457.322500", "224457.782500", "224458.242500", "224458.702500", "224459.162500", "224459.622500", "224500.082500", "224500.542500", "224501.002500", "224501.462500", "224501.922500", "224502.382500", "224502.842500", "224503.302500", "224503.762500", "224504.222500", "224504.682500", "224505.142500", "224505.602500", "224506.062500", "224506.522500", "224506.982500", "224507.442500", "224507.902500", "224508.362500", "224508.822500", "224509.282500", "224509.742500", "224510.202500", "224510.662500", "224511.122500", "224511.582500", "224512.042500", "224512.502500", "224512.962500", "224513.422500", "224513.882500", "224514.342500", "224514.802500", "224515.262500", "224515.722500", "224516.182500", "224516.642500", "224517.102500", "224517.562500", "224518.022500", "224518.482500", "224518.942500", "224519.402500", "224519.862500", "224520.322500", "224520.782500", "224521.242500", "224521.702500", "224522.162500", "224522.622500", "224523.082500", "224523.542500", "224524.002500", "224524.462500", "224524.922500", "224525.382500", "224525.842500", "224526.302500", "224526.762500", "224527.222500", "224527.682500", "224528.142500", "224528.602500", "224529.062500", "224529.522500", "224529.982500", "224530.442500", "224530.902500", "224531.362500", "224531.822500", "224532.282500", "224532.742500", "224533.202500", "224533.662500", "224534.122500", "224534.582500", "224535.042500", "224535.502500", "224535.962500", "224536.422500", "224536.882500", "224537.342500", "224537.802500", "224538.262500", "224538.722500", "224539.182500", "224539.642500", "224540.102500", "224540.562500", "224541.022500", "224541.482500", "224541.942500", "224542.402500", "224542.862500", "224543.322500", "224543.782500", "224544.242500", "224544.702500", "224545.162500", "224545.622500", "224546.082500", "224546.542500", "224547.002500", "224547.462500", "224547.922500", "224548.382500", "224548.842500", "224549.302500", "224549.762500", "224550.222500", "224550.682500", "224551.142500", "224551.602500", "224552.062500", "224552.522500", "224552.982500", "224553.442500", "224553.902500", "224554.362500", "224554.822500", "224555.282500", "224555.742500", "224556.202500", "224556.662500", "224557.122500", "224557.582500", "224558.042500", "224558.502500", "224558.962500", "224559.422500", "224559.882500", "224600.342500", "224600.802500", "224601.262500", "224601.722500", "224602.182500", "224602.642500", "224603.102500", "224603.562500", "224604.022500", "224604.482500", "224604.942500", "224605.402500", "224605.862500", "224606.322500", "224606.782500", "224607.242500", "224607.702500", "224608.162500", "224608.622500", "224609.082500", "224609.542500", "224610.002500", "224610.462500", "224610.922500", "224611.382500", "224611.842500", "224612.302500", "224612.762500", "224613.222500", "224613.682500", "224614.142500", "224614.602500", "224615.062500", "224615.522500", "224615.982500", "224616.442500", "224616.902500", "224617.362500", "224617.822500", "224618.282500", "224618.742500", "224619.202500", "224619.662500", "224620.122500", "224620.582500", "224621.042500", "224621.502500", "224621.962500", "224622.422500", "224622.882500", "224623.342500", "224623.802500", "224624.262500", "224624.722500", "224625.182500", "224625.642500", "224626.102500", "224626.562500", "224627.022500", "224627.482500", "224627.942500", "224628.402500", "224628.862500", "224629.322500", "224629.782500", "224630.242500", "224630.702500", "224631.162500", "224631.622500", "224632.082500", "224632.542500", "224633.002500", "224633.462500", "224633.922500", "224634.382500", "224634.842500", "224635.302500", "224635.762500", "224636.222500", "224636.682500", "224637.142500", "224637.602500", "224638.062500", "224638.522500", "224638.982500", "224639.442500", "224639.902500", "224640.362500", "224640.822500", "224641.282500", "224641.742500", "224642.202500", "224642.662500", "224643.122500", "224643.582500", "224644.042500", "224644.502500", "224644.962500", "224645.422500", "224645.882500", "224646.342500", "224646.802500", "224647.262500", "224647.722500", "224648.182500", "224648.642500", "224649.102500", "224649.562500", "224650.022500", "224650.482500", "224650.942500", "224651.402500", "224651.862500", "224652.322500", "224652.782500", "224653.242500", "224653.702500", "224654.162500", "224654.622500", "224655.082500", "224655.542500", "224656.002500", "224656.462500", "224656.922500", "224657.382500", "224657.842500", "224658.302500", "224658.762500", "224659.222500", "224659.682500", "224700.142500", "224700.602500", "224701.062500", "224701.522500", "224701.982500", "224702.442500", "224702.902500", "224703.362500", "224703.822500", "224704.282500", "224704.742500", "224705.202500", "224705.662500", "224706.122500", "224706.582500", "224707.042500", "224707.502500", "224707.962500", "224708.422500", "224708.882500", "224709.342500", "224709.802500", "224710.262500", "224710.722500", "224711.182500", "224711.642500", "224712.102500", "224712.562500", "224713.022500", "224713.482500", "224713.942500", "224714.402500", "224714.862500", "224715.322500", "224715.782500", "224716.242500", "224716.702500", "224717.162500", "224717.622500", "224718.082500", "224718.542500", "224719.002500", "224719.462500", "224719.922500", "224720.382500", "224720.842500", "224721.302500", "224721.762500", "224722.222500", "224722.682500", "224723.142500", "224723.602500", "224724.062500", "224724.522500", "224724.982500", "224725.442500", "224725.902500", "224726.362500", "224726.822500", "224727.282500", "224727.742500", "224728.202500", "224728.662500", "224729.122500", "224729.582500", "224730.042500", "224730.502500", "224730.962500", "224731.422500", "224731.882500", "224732.342500", "224732.802500", "224733.262500", "224733.722500", "224734.182500", "224734.642500", "224735.102500", "224735.562500", "224736.022500", "224736.482500", "224736.942500", "224737.402500", "224737.862500", "224738.322500", "224738.782500", "224739.242500", "224739.702500", "224740.162500", "224740.622500", "224741.082500", "224741.542500", "224742.002500", "224742.462500", "224742.922500", "224743.382500", "224743.842500", "224744.302500", "224744.762500", "224745.222500", "224745.682500", "224746.142500", "224746.602500", "224747.062500", "224747.522500", "224747.982500", "224748.442500", "224748.902500", "224749.362500", "224749.822500", "224750.282500", "224750.742500", "224751.202500", "224751.662500", "224752.122500", "224752.582500", "224753.042500", "224753.502500", "224753.962500", "224754.422500", "224754.882500", "224755.342500", "224755.802500", "224756.262500", "224756.722500", "224757.182500", "224757.642500", "224758.102500", "224758.562500", "224759.022500", "224759.482500", "224759.942500", "224800.402500", "224800.862500", "224801.322500", "224801.782500", "224802.242500", "224802.702500", "224803.162500", "224803.622500", "224804.082500", "224804.542500", "224805.002500", "224805.462500", "224805.922500", "224806.382500", "224806.842500", "224807.302500", "224807.762500", "224808.222500", "224808.682500", "224809.142500", "224809.602500", "224810.062500", "224810.522500", "224810.982500", "224811.442500", "224811.902500", "224812.362500", "224812.822500", "224813.282500", "224813.742500", "224814.202500", "224814.662500", "224815.122500", "224815.582500", "224816.042500", "224816.502500", "224816.962500", "224817.422500", "224817.882500", "224818.342500", "224818.802500"],
