{
  "AcquisitionMatrixPE": 82,
  "AcquisitionNumber": 1,
  "AcquisitionTime": "23:01:7.345000",
  "BandwidthPerPixelPhaseEncode": 24.888,
  "BaseResolution": 82,
  "BodyPartExamined": "BRAIN",
  "ConsistencyInfo": "N4_VE11E_LATEST_20181129",
  "ConversionSoftware": "dcm2niix",
  "ConversionSoftwareVersion": "v1.0.20201102",
  "DerivedVendorReportedEchoSpacing": 0.00049,
  "DeviceSerialNumber": "66112",
  "DwellTime": 2e-06,
  "EchoTime": 0.0272,
  "EchoTrainLength": 82,
  "EffectiveEchoSpacing": 0.00049,
  "FlipAngle": 44,
  "ImageComments": "Unaliased MB8/PE3",
  "ImageOrientationPatientDICOM": [0.999311, 0.0331416, -0.0167186, -0.0305317, 0.99002, 0.137581],
  "ImageType": [
    "ORIGINAL",
    "PRIMARY",
    "M",
    "MB",
    "ND",
    "NORM",
    "MOSAIC"
],
  "ImagingFrequency": 123.252,
  "InPlanePhaseEncodingDirectionDICOM": "COL",
  "InstitutionAddress": "Maynard 3,Hanover,NH,US,03755",
  "InstitutionName": "Dartmouth College - PBS",
  "InstitutionalDepartmentName": "Department",
  "MRAcquisitionType": "2D",
  "MagneticFieldStrength": 3,
  "Manufacturer": "Siemens",
  "ManufacturersModelName": "Prisma",
  "Modality": "MR",
  "MultibandAccelerationFactor": 8,
  "PartialFourier": 1,
  "PatientPosition": "HFS",
  "PercentPhaseFOV": 100,
  "PercentSampling": 100,
  "PhaseEncodingDirection": "j-",
  "PhaseEncodingSteps": 82,
  "PhaseResolution": 1,
  "PixelBandwidth": 3050,
  "ProcedureStepDescription": "Wager_Wager^1076_spacetop",
  "ProtocolName": "func_run-03_task-alignvideo_acq-ap-mb8",
  "PulseSequenceDetails": "%CustomerSeq%\\cmrr_mbep2d_bold",
  "ReceiveCoilActiveElements": "HEA;HEP",
  "ReceiveCoilName": "Head_32",
  "ReconMatrixPE": 82,
  "RepetitionTime": 0.46,
  "SAR": 0.0945686,
  "ScanOptions": "FS",
  "ScanningSequence": "EP",
  "SequenceName": "epfid2d1_82",
  "SequenceVariant": "SK\\SS",
  "SeriesDescription": "func_run-03_task-alignvideo_acq-ap-mb8",
  "SeriesNumber": 34,
  "ShimSetting": [4161, -7782, -7246, 540, -37, -23, 37, 60],
  "SliceThickness": 2.7,
  "SliceTiming": [0, 0.2525, 0.0625, 0.315, 0.125, 0.3775, 0.19, 0, 0.2525, 0.0625, 0.315, 0.125, 0.3775, 0.19, 0, 0.2525, 0.0625, 0.315, 0.125, 0.3775, 0.19, 0, 0.2525, 0.0625, 0.315, 0.125, 0.3775, 0.19, 0, 0.2525, 0.0625, 0.315, 0.125, 0.3775, 0.19, 0, 0.2525, 0.0625, 0.315, 0.125, 0.3775, 0.19, 0, 0.2525, 0.0625, 0.315, 0.125, 0.3775, 0.19, 0, 0.2525, 0.0625, 0.315, 0.125, 0.3775, 0.19],
  "SoftwareVersions": "syngo MR E11",
  "SpacingBetweenSlices": 2.7,
  "StationName": "AWP66112",
  "TaskName": "alignvideo",
  "TotalReadoutTime": 0.03969,
  "TxRefAmp": 253.67,
  "WipMemBlock": "dafe082f-1729-4b9e-b32b-ba9a1912d3a8||Sequence: R016 ve11e/master r/434b28f1; Aug  7 2019 18:53:46 by eja",
  "dcmmeta_affine": [
    [-2.6810779571533203, -0.08191429823637009, -0.05700075998902321, 118.06758880615234],
    [-0.08891642093658447, 2.6561508178710938, 0.36983534693717957, -99.9625473022461],
    [-0.04485474154353142, -0.36912059783935547, 2.673943281173706, -52.67265319824219],
    [0.0, 0.0, 0.0, 1.0]
],
  "dcmmeta_reorient_transform": [
    [0.0, -1.0, 0.0, 81.0],
    [1.0, 0.0, 0.0, 0.0],
    [0.0, 0.0, 1.0, 0.0],
    [0.0, 0.0, 0.0, 1.0]
],
  "dcmmeta_shape": [82, 82, 56, 1016],
  "dcmmeta_slice_dim": 2,
  "dcmmeta_version": 0.6,
  "global": {
    "const": {
      "AccessionNumber": "A004111",
      "AcquisitionMatrix": [82, 0, 0, 82],
      "AngioFlag": "N",
      "BitsAllocated": 16,
      "BitsStored": 16,
      "BodyPartExamined": "BRAIN",
      "Columns": 656,
      "EchoNumbers": 1,
      "EchoTime": 27.2,
      "EchoTrainLength": 82,
      "FlipAngle": 44.0,
      "HighBit": 15,
      "ImageOrientationPatient": [0.9993108249669, 0.03314157550236, -0.0167185847847, -0.030531692713, 0.99001979702316, 0.13758131138461],
      "ImagePositionPatient": [-857.39248181296, -903.01994132422, -175.63572171913],
      "ImageType": [
        "ORIGINAL",
        "PRIMARY",
        "M",
        "MB",
        "ND",
        "NORM",
        "MOSAIC"
],
      "ImagedNucleus": "1H",
      "ImagingFrequency": 123.252204,
      "InPlanePhaseEncodingDirection": "COL",
      "MRAcquisitionType": "2D",
      "MagneticFieldStrength": 3.0,
      "Manufacturer": "SIEMENS",
      "ManufacturerModelName": "Prisma",
      "Modality": "MR",
      "NumberOfAverages": 1.0,
      "NumberOfPhaseEncodingSteps": 82,
      "PercentPhaseFieldOfView": 100.0,
      "PercentSampling": 100.0,
      "PerformedProcedureStepStartTime": "213212.058000",
      "PhotometricInterpretation": "MONOCHROME2",
      "PixelBandwidth": 3050.0,
      "PixelRepresentation": 0,
      "PixelSpacing": [2.6829268932343, 2.6829268932343],
      "ProtocolName": "func_run-03_task-alignvideo_acq-ap-mb8",
      "RepetitionTime": 460.0,
      "Rows": 656,
      "SAR": 0.09456863619708,
      "SamplesPerPixel": 1,
      "ScanOptions": "FS",
      "ScanningSequence": "EP",
      "SequenceName": "epfid2d1_82",
      "SequenceVariant": [
        "SK",
        "SS"
],
      "SeriesDescription": "func_run-03_task-alignvideo_acq-ap-mb8",
      "SeriesNumber": 34,
      "SeriesTime": "230125.629000",
      "SliceLocation": -68.349372297366,
      "SliceThickness": 2.7000000476837,
      "SmallestImagePixelValue": 0,
      "SoftwareVersions": "syngo MR E11",
      "SpacingBetweenSlices": 2.7000001026273,
      "SpecificCharacterSet": "ISO_IR 100",
      "StudyID": "1",
      "StudyTime": "213211.994000",
      "TransmitCoilName": "Body",
      "VariableFlipAngleFlag": "N",
      "WindowCenterWidthExplanation": "Algo1"
    },
    "slices": {}
  },
  "time": {
    "samples": {
      "AcquisitionNumber": [1, 2, 3, 4, 5, 6, 7, 8, 9, 10, 11, 12, 13, 14, 15, 16, 17, 18, 19, 20, 21, 22, 23, 24, 25, 26, 27, 28, 29, 30, 31, 32, 33, 34, 35, 36, 37, 38, 39, 40, 41, 42, 43, 44, 45, 46, 47, 48, 49, 50, 51, 52, 53, 54, 55, 56, 57, 58, 59, 60, 61, 62, 63, 64, 65, 66, 67, 68, 69, 70, 71, 72, 73, 74, 75, 76, 77, 78, 79, 80, 81, 82, 83, 84, 85, 86, 87, 88, 89, 90, 91, 92, 93, 94, 95, 96, 97, 98, 99, 100, 101, 102, 103, 104, 105, 106, 107, 108, 109, 110, 111, 112, 113, 114, 115, 116, 117, 118, 119, 120, 121, 122, 123, 124, 125, 126, 127, 128, 129, 130, 131, 132, 133, 134, 135, 136, 137, 138, 139, 140, 141, 142, 143, 144, 145, 146, 147, 148, 149, 150, 151, 152, 153, 154, 155, 156, 157, 158, 159, 160, 161, 162, 163, 164, 165, 166, 167, 168, 169, 170, 171, 172, 173, 174, 175, 176, 177, 178, 179, 180, 181, 182, 183, 184, 185, 186, 187, 188, 189, 190, 191, 192, 193, 194, 195, 196, 197, 198, 199, 200, 201, 202, 203, 204, 205, 206, 207, 208, 209, 210, 211, 212, 213, 214, 215, 216, 217, 218, 219, 220, 221, 222, 223, 224, 225, 226, 227, 228, 229, 230, 231, 232, 233, 234, 235, 236, 237, 238, 239, 240, 241, 242, 243, 244, 245, 246, 247, 248, 249, 250, 251, 252, 253, 254, 255, 256, 257, 258, 259, 260, 261, 262, 263, 264, 265, 266, 267, 268, 269, 270, 271, 272, 273, 274, 275, 276, 277, 278, 279, 280, 281, 282, 283, 284, 285, 286, 287, 288, 289, 290, 291, 292, 293, 294, 295, 296, 297, 298, 299, 300, 301, 302, 303, 304, 305, 306, 307, 308, 309, 310, 311, 312, 313, 314, 315, 316, 317, 318, 319, 320, 321, 322, 323, 324, 325, 326, 327, 328, 329, 330, 331, 332, 333, 334, 335, 336, 337, 338, 339, 340, 341, 342, 343, 344, 345, 346, 347, 348, 349, 350, 351, 352, 353, 354, 355, 356, 357, 358, 359, 360, 361, 362, 363, 364, 365, 366, 367, 368, 369, 370, 371, 372, 373, 374, 375, 376, 377, 378, 379, 380, 381, 382, 383, 384, 385, 386, 387, 388, 389, 390, 391, 392, 393, 394, 395, 396, 397, 398, 399, 400, 401, 402, 403, 404, 405, 406, 407, 408, 409, 410, 411, 412, 413, 414, 415, 416, 417, 418, 419, 420, 421, 422, 423, 424, 425, 426, 427, 428, 429, 430, 431, 432, 433, 434, 435, 436, 437, 438, 439, 440, 441, 442, 443, 444, 445, 446, 447, 448, 449, 450, 451, 452, 453, 454, 455, 456, 457, 458, 459, 460, 461, 462, 463, 464, 465, 466, 467, 468, 469, 470, 471, 472, 473, 474, 475, 476, 477, 478, 479, 480, 481, 482, 483, 484, 485, 486, 487, 488, 489, 490, 491, 492, 493, 494, 495, 496, 497, 498, 499, 500, 501, 502, 503, 504, 505, 506, 507, 508, 509, 510, 511, 512, 513, 514, 515, 516, 517, 518, 519, 520, 521, 522, 523, 524, 525, 526, 527, 528, 529, 530, 531, 532, 533, 534, 535, 536, 537, 538, 539, 540, 541, 542, 543, 544, 545, 546, 547, 548, 549, 550, 551, 552, 553, 554, 555, 556, 557, 558, 559, 560, 561, 562, 563, 564, 565, 566, 567, 568, 569, 570, 571, 572, 573, 574, 575, 576, 577, 578, 579, 580, 581, 582, 583, 584, 585, 586, 587, 588, 589, 590, 591, 592, 593, 594, 595, 596, 597, 598, 599, 600, 601, 602, 603, 604, 605, 606, 607, 608, 609, 610, 611, 612, 613, 614, 615, 616, 617, 618, 619, 620, 621, 622, 623, 624, 625, 626, 627, 628, 629, 630, 631, 632, 633, 634, 635, 636, 637, 638, 639, 640, 641, 642, 643, 644, 645, 646, 647, 648, 649, 650, 651, 652, 653, 654, 655, 656, 657, 658, 659, 660, 661, 662, 663, 664, 665, 666, 667, 668, 669, 670, 671, 672, 673, 674, 675, 676, 677, 678, 679, 680, 681, 682, 683, 684, 685, 686, 687, 688, 689, 690, 691, 692, 693, 694, 695, 696, 697, 698, 699, 700, 701, 702, 703, 704, 705, 706, 707, 708, 709, 710, 711, 712, 713, 714, 715, 716, 717, 718, 719, 720, 721, 722, 723, 724, 725, 726, 727, 728, 729, 730, 731, 732, 733, 734, 735, 736, 737, 738, 739, 740, 741, 742, 743, 744, 745, 746, 747, 748, 749, 750, 751, 752, 753, 754, 755, 756, 757, 758, 759, 760, 761, 762, 763, 764, 765, 766, 767, 768, 769, 770, 771, 772, 773, 774, 775, 776, 777, 778, 779, 780, 781, 782, 783, 784, 785, 786, 787, 788, 789, 790, 791, 792, 793, 794, 795, 796, 797, 798, 799, 800, 801, 802, 803, 804, 805, 806, 807, 808, 809, 810, 811, 812, 813, 814, 815, 816, 817, 818, 819, 820, 821, 822, 823, 824, 825, 826, 827, 828, 829, 830, 831, 832, 833, 834, 835, 836, 837, 838, 839, 840, 841, 842, 843, 844, 845, 846, 847, 848, 849, 850, 851, 852, 853, 854, 855, 856, 857, 858, 859, 860, 861, 862, 863, 864, 865, 866, 867, 868, 869, 870, 871, 872, 873, 874, 875, 876, 877, 878, 879, 880, 881, 882, 883, 884, 885, 886, 887, 888, 889, 890, 891, 892, 893, 894, 895, 896, 897, 898, 899, 900, 901, 902, 903, 904, 905, 906, 907, 908, 909, 910, 911, 912, 913, 914, 915, 916, 917, 918, 919, 920, 921, 922, 923, 924, 925, 926, 927, 928, 929, 930, 931, 932, 933, 934, 935, 936, 937, 938, 939, 940, 941, 942, 943, 944, 945, 946, 947, 948, 949, 950, 951, 952, 953, 954, 955, 956, 957, 958, 959, 960, 961, 962, 963, 964, 965, 966, 967, 968, 969, 970, 971, 972, 973, 974, 975, 976, 977, 978, 979, 980, 981, 982, 983, 984, 985, 986, 987, 988, 989, 990, 991, 992, 993, 994, 995, 996, 997, 998, 999, 1000, 1001, 1002, 1003, 1004, 1005, 1006, 1007, 1008, 1009, 1010, 1011, 1012, 1013, 1014, 1015, 1016],
      "AcquisitionTime": ["230107.345000", "230107.805000", "230108.265000", "230108.725000", "230109.185000", "230109.645000", "230110.105000", "230110.565000", "230111.025000", "230111.485000", "230111.945000", "230112.405000", "230112.865000", "230113.325000", "230113.785000", "230114.245000", "230114.705000", "230115.165000", "230115.625000", "230116.085000", "230116.545000", "230117.005000", "230117.465000", "230117.925000", "230118.385000", "230118.845000", "230119.305000", "230119.765000", "230120.225000", "230120.685000", "230121.145000", "230121.605000", "230122.065000", "230122.525000", "230122.985000", "230123.445000", "230123.905000", "230124.365000", "230124.825000", "230125.285000", "230125.745000", "230126.205000", "230126.665000", "230127.125000", "230127.585000", "230128.045000", "230128.505000", "230128.965000", "230129.425000", "230129.885000", "230130.345000", "230130.805000", "230131.265000", "230131.725000", "230132.185000", "230132.645000", "230133.105000", "230133.565000", "230134.025000", "230134.485000", "230134.945000", "230135.405000", "230135.865000", "230136.325000", "230136.785000", "230137.245000", "230137.705000", "230138.165000", "230138.625000", "230139.085000", "230139.545000", "230140.005000", "230140.465000", "230140.925000", "230141.385000", "230141.845000", "230142.305000", "230142.765000", "230143.225000", "230143.685000", "230144.145000", "230144.605000", "230145.065000", "230145.525000", "230145.985000", "230146.445000", "230146.905000", "230147.365000", "230147.825000", "230148.285000", "230148.745000", "230149.205000", "230149.665000", "230150.125000", "230150.585000", "230151.045000", "230151.505000", "230151.965000", "230152.425000", "230152.885000", "230153.345000", "230153.805000", "230154.265000", "230154.725000", "230155.185000", "230155.645000", "230156.105000", "230156.565000", "230157.025000", "230157.485000", "230157.945000", "230158.405000", "230158.865000", "230159.325000", "230159.785000", "230200.245000", "230200.705000", "230201.165000", "230201.625000", "230202.085000", "230202.545000", "230203.005000", "230203.465000", "230203.925000", "230204.385000", "230204.845000", "230205.305000", "230205.765000", "230206.225000", "230206.685000", "230207.145000", "230207.605000", "230208.065000", "230208.525000", "230208.985000", "230209.445000", "230209.905000", "230210.365000", "230210.825000", "230211.285000", "230211.745000", "230212.205000", "230212.665000", "230213.125000", "230213.585000", "230214.045000", "230214.505000", "230214.965000", "230215.425000", "230215.885000", "230216.345000", "230216.805000", "230217.265000", "230217.725000", "230218.185000", "230218.645000", "230219.105000", "230219.565000", "230220.025000", "230220.485000", "230220.945000", "230221.405000", "230221.865000", "230222.325000", "230222.785000", "230223.245000", "230223.705000", "230224.165000", "230224.625000", "230225.085000", "230225.545000", "230226.005000", "230226.465000", "230226.925000", "230227.385000", "230227.845000", "230228.305000", "230228.765000", "230229.225000", "230229.685000", "230230.145000", "230230.605000", "230231.065000", "230231.525000", "230231.985000", "230232.445000", "230232.905000", "230233.365000", "230233.825000", "230234.285000", "230234.745000", "230235.205000", "230235.665000", "230236.125000", "230236.585000", "230237.045000", "230237.505000", "230237.965000", "230238.425000", "230238.885000", "230239.345000", "230239.805000", "230240.265000", "230240.725000", "230241.185000", "230241.645000", "230242.105000", "230242.565000", "230243.025000", "230243.485000", "230243.945000", "230244.405000", "230244.865000", "230245.325000", "230245.785000", "230246.245000", "230246.705000", "230247.165000", "230247.625000", "230248.085000", "230248.545000", "230249.005000", "230249.465000", "230249.925000", "230250.385000", "230250.845000", "230251.305000", "230251.765000", "230252.225000", "230252.685000", "230253.145000", "230253.605000", "230254.065000", "230254.525000", "230254.985000", "230255.445000", "230255.905000", "230256.365000", "230256.825000", "230257.285000", "230257.745000", "230258.205000", "230258.665000", "230259.125000", "230259.585000", "230300.045000", "230300.505000", "230300.965000", "230301.425000", "230301.885000", "230302.345000", "230302.805000", "230303.265000", "230303.725000", "230304.185000", "230304.645000", "230305.105000", "230305.565000", "230306.025000", "230306.485000", "230306.945000", "230307.405000", "230307.865000", "230308.325000", "230308.785000", "230309.245000", "230309.705000", "230310.165000", "230310.625000", "230311.085000", "230311.545000", "230312.005000", "230312.465000", "230312.925000", "230313.385000", "230313.845000", "230314.305000", "230314.765000", "230315.225000", "230315.685000", "230316.145000", "230316.605000", "230317.065000", "230317.525000", "230317.985000", "230318.445000", "230318.905000", "230319.365000", "230319.825000", "230320.285000", "230320.745000", "230321.205000", "230321.665000", "230322.125000", "230322.585000", "230323.045000", "230323.505000", "230323.965000", "230324.425000", "230324.885000", "230325.345000", "230325.805000", "230326.265000", "230326.725000", "230327.185000", "230327.645000", "230328.105000", "230328.565000", "230329.025000", "230329.485000", "230329.945000", "230330.405000", "230330.865000", "230331.325000", "230331.785000", "230332.245000", "230332.705000", "230333.165000", "230333.625000", "230334.085000", "230334.545000", "230335.005000", "230335.465000", "230335.925000", "230336.385000", "230336.845000", "230337.305000", "230337.765000", "230338.225000", "230338.685000", "230339.145000", "230339.605000", "230340.065000", "230340.525000", "230340.985000", "230341.445000", "230341.905000", "230342.365000", "230342.825000", "230343.285000", "230343.745000", "230344.205000", "230344.665000", "230345.125000", "230345.585000", "230346.045000", "230346.505000", "230346.965000", "230347.425000", "230347.885000", "230348.345000", "230348.805000", "230349.265000", "230349.725000", "230350.185000", "230350.645000", "230351.105000", "230351.565000", "230352.025000", "230352.485000", "230352.945000", "230353.405000", "230353.865000", "230354.325000", "230354.785000", "230355.245000", "230355.705000", "230356.165000", "230356.625000", "230357.085000", "230357.545000", "230358.005000", "230358.465000", "230358.925000", "230359.385000", "230359.845000", "230400.305000", "230400.765000", "230401.225000", "230401.685000", "230402.145000", "230402.605000", "230403.065000", "230403.525000", "230403.985000", "230404.445000", "230404.905000", "230405.365000", "230405.825000", "230406.285000", "230406.745000", "230407.205000", "230407.665000", "230408.125000", "230408.585000", "230409.045000", "230409.505000", "230409.965000", "230410.425000", "230410.885000", "230411.345000", "230411.805000", "230412.265000", "230412.725000", "230413.185000", "230413.645000", "230414.105000", "230414.565000", "230415.025000", "230415.485000", "230415.945000", "230416.405000", "230416.865000", "230417.325000", "230417.785000", "230418.245000", "230418.705000", "230419.165000", "230419.625000", "230420.085000", "230420.545000", "230421.005000", "230421.465000", "230421.925000", "230422.385000", "230422.845000", "230423.305000", "230423.765000", "230424.225000", "230424.685000", "230425.145000", "230425.605000", "230426.065000", "230426.525000", "230426.985000", "230427.445000", "230427.905000", "230428.365000", "230428.825000", "230429.285000", "230429.745000", "230430.205000", "230430.665000", "230431.125000", "230431.585000", "230432.045000", "230432.505000", "230432.965000", "230433.425000", "230433.885000", "230434.345000", "230434.805000", "230435.265000", "230435.725000", "230436.185000", "230436.645000", "230437.105000", "230437.565000", "230438.025000", "230438.485000", "230438.945000", "230439.405000", "230439.865000", "230440.325000", "230440.785000", "230441.245000", "230441.705000", "230442.165000", "230442.625000", "230443.085000", "230443.545000", "230444.005000", "230444.465000", "230444.925000", "230445.385000", "230445.845000", "230446.305000", "230446.765000", "230447.225000", "230447.685000", "230448.145000", "230448.605000", "230449.065000", "230449.525000", "230449.985000", "230450.445000", "230450.905000", "230451.365000", "230451.825000", "230452.285000", "230452.745000", "230453.205000", "230453.665000", "230454.125000", "230454.585000", "230455.045000", "230455.505000", "230455.965000", "230456.425000", "230456.885000", "230457.345000", "230457.805000", "230458.265000", "230458.725000", "230459.185000", "230459.645000", "230500.105000", "230500.565000", "230501.025000", "230501.485000", "230501.945000", "230502.405000", "230502.865000", "230503.325000", "230503.785000", "230504.245000", "230504.705000", "230505.165000", "230505.625000", "230506.085000", "230506.545000", "230507.005000", "230507.465000", "230507.925000", "230508.385000", "230508.845000", "230509.305000", "230509.765000", "230510.225000", "230510.685000", "230511.145000", "230511.605000", "230512.065000", "230512.525000", "230512.985000", "230513.445000", "230513.905000", "230514.365000", "230514.825000", "230515.285000", "230515.745000", "230516.205000", "230516.665000", "230517.125000", "230517.585000", "230518.045000", "230518.505000", "230518.965000", "230519.425000", "230519.885000", "230520.345000", "230520.805000", "230521.265000", "230521.725000", "230522.185000", "230522.645000", "230523.105000", "230523.565000", "230524.025000", "230524.485000", "230524.945000", "230525.405000", "230525.865000", "230526.325000", "230526.785000", "230527.245000", "230527.705000", "230528.165000", "230528.625000", "230529.085000", "230529.545000", "230530.005000", "230530.465000", "230530.925000", "230531.385000", "230531.845000", "230532.305000", "230532.765000", "230533.225000", "230533.685000", "230534.145000", "230534.605000", "230535.065000", "230535.525000", "230535.985000", "230536.445000", "230536.905000", "230537.365000", "230537.825000", "230538.285000", "230538.745000", "230539.205000", "230539.665000", "230540.125000", "230540.585000", "230541.045000", "230541.505000", "230541.965000", "230542.425000", "230542.885000", "230543.345000", "230543.805000", "230544.265000", "230544.725000", "230545.185000", "230545.645000", "230546.105000", "230546.565000", "230547.025000", "230547.485000", "230547.945000", "230548.405000", "230548.865000", "230549.325000", "230549.785000", "230550.245000", "230550.705000", "230551.165000", "230551.625000", "230552.085000", "230552.545000", "230553.005000", "230553.465000", "230553.925000", "230554.385000", "230554.845000", "230555.305000", "230555.765000", "230556.225000", "230556.685000", "230557.145000", "230557.605000", "230558.065000", "230558.525000", "230558.985000", "230559.445000", "230559.905000", "230600.365000", "230600.825000", "230601.285000", "230601.745000", "230602.205000", "230602.665000", "230603.125000", "230603.585000", "230604.045000", "230604.505000", "230604.965000", "230605.425000", "230605.885000", "230606.345000", "230606.805000", "230607.265000", "230607.725000", "230608.185000", "230608.645000", "230609.105000", "230609.565000", "230610.025000", "230610.485000", "230610.945000", "230611.405000", "230611.865000", "230612.325000", "230612.785000", "230613.245000", "230613.705000", "230614.165000", "230614.625000", "230615.085000", "230615.545000", "230616.005000", "230616.465000", "230616.925000", "230617.385000", "230617.845000", "230618.305000", "230618.765000", "230619.225000", "230619.685000", "230620.145000", "230620.605000", "230621.065000", "230621.525000", "230621.985000", "230622.445000", "230622.905000", "230623.365000", "230623.825000", "230624.285000", "230624.745000", "230625.205000", "230625.665000", "230626.125000", "230626.585000", "230627.045000", "230627.505000", "230627.965000", "230628.425000", "230628.885000", "230629.345000", "230629.805000", "230630.265000", "230630.725000", "230631.185000", "230631.645000", "230632.105000", "230632.565000", "230633.025000", "230633.485000", "230633.945000", "230634.405000", "230634.865000", "230635.325000", "230635.785000", "230636.245000", "230636.705000", "230637.165000", "230637.625000", "230638.085000", "230638.545000", "230639.005000", "230639.465000", "230639.925000", "230640.385000", "230640.845000", "230641.305000", "230641.765000", "230642.225000", "230642.685000", "230643.145000", "230643.605000", "230644.065000", "230644.525000", "230644.985000", "230645.445000", "230645.905000", "230646.365000", "230646.825000", "230647.285000", "230647.745000", "230648.205000", "230648.665000", "230649.125000", "230649.585000", "230650.045000", "230650.505000", "230650.965000", "230651.425000", "230651.885000", "230652.345000", "230652.805000", "230653.265000", "230653.725000", "230654.185000", "230654.645000", "230655.105000", "230655.565000", "230656.025000", "230656.485000", "230656.945000", "230657.405000", "230657.865000", "230658.325000", "230658.785000", "230659.245000", "230659.705000", "230700.165000", "230700.625000", "230701.085000", "230701.545000", "230702.005000", "230702.465000", "230702.925000", "230703.385000", "230703.845000", "230704.305000", "230704.765000", "230705.225000", "230705.685000", "230706.145000", "230706.605000", "230707.065000", "230707.525000", "230707.985000", "230708.445000", "230708.905000", "230709.365000", "230709.825000", "230710.285000", "230710.745000", "230711.205000", "230711.665000", "230712.125000", "230712.585000", "230713.045000", "230713.505000", "230713.965000", "230714.425000", "230714.885000", "230715.345000", "230715.805000", "230716.265000", "230716.725000", "230717.185000", "230717.645000", "230718.105000", "230718.565000", "230719.025000", "230719.485000", "230719.945000", "230720.405000", "230720.865000", "230721.325000", "230721.785000", "230722.245000", "230722.705000", "230723.165000", "230723.625000", "230724.085000", "230724.545000", "230725.005000", "230725.465000", "230725.925000", "230726.385000", "230726.845000", "230727.305000", "230727.765000", "230728.225000", "230728.685000", "230729.145000", "230729.605000", "230730.065000", "230730.525000", "230730.985000", "230731.445000", "230731.905000", "230732.365000", "230732.825000", "230733.285000", "230733.745000", "230734.205000", "230734.665000", "230735.125000", "230735.585000", "230736.045000", "230736.505000", "230736.965000", "230737.425000", "230737.885000", "230738.345000", "230738.805000", "230739.265000", "230739.725000", "230740.185000", "230740.645000", "230741.105000", "230741.565000", "230742.025000", "230742.485000", "230742.945000", "230743.405000", "230743.865000", "230744.325000", "230744.785000", "230745.245000", "230745.705000", "230746.165000", "230746.625000", "230747.085000", "230747.545000", "230748.005000", "230748.465000", "230748.925000", "230749.385000", "230749.845000", "230750.305000", "230750.765000", "230751.225000", "230751.685000", "230752.145000", "230752.605000", "230753.065000", "230753.525000", "230753.985000", "230754.445000", "230754.905000", "230755.365000", "230755.825000", "230756.285000", "230756.745000", "230757.205000", "230757.665000", "230758.125000", "230758.585000", "230759.045000", "230759.505000", "230759.965000", "230800.425000", "230800.885000", "230801.345000", "230801.805000", "230802.265000", "230802.725000", "230803.185000", "230803.645000", "230804.105000", "230804.565000", "230805.025000", "230805.485000", "230805.945000", "230806.405000", "230806.865000", "230807.325000", "230807.785000", "230808.245000", "230808.705000", "230809.165000", "230809.625000", "230810.085000", "230810.545000", "230811.005000", "230811.465000", "230811.925000", "230812.385000", "230812.845000", "230813.305000", "230813.765000", "230814.225000", "230814.685000", "230815.145000", "230815.605000", "230816.065000", "230816.525000", "230816.985000", "230817.445000", "230817.905000", "230818.365000", "230818.825000", "230819.285000", "230819.745000", "230820.205000", "230820.665000", "230821.125000", "230821.585000", "230822.045000", "230822.505000", "230822.965000", "230823.425000", "230823.885000", "230824.345000", "230824.805000", "230825.265000", "230825.725000", "230826.185000", "230826.645000", "230827.105000", "230827.565000", "230828.025000", "230828.485000", "230828.945000", "230829.405000", "230829.865000", "230830.325000", "230830.785000", "230831.245000", "230831.705000", "230832.165000", "230832.625000", "230833.085000", "230833.545000", "230834.005000", "230834.465000", "230834.925000", "230835.385000", "230835.845000", "230836.305000", "230836.765000", "230837.225000", "230837.685000", "230838.145000", "230838.605000", "230839.065000", "230839.525000", "230839.985000", "230840.445000", "230840.905000", "230841.365000", "230841.825000", "230842.285000", "230842.745000", "230843.205000", "230843.665000", "230844.125000", "230844.585000", "230845.045000", "230845.505000", "230845.965000", "230846.425000", "230846.885000", "230847.345000", "230847.805000", "230848.265000", "230848.725000", "230849.185000", "230849.645000", "230850.105000", "230850.565000", "230851.025000", "230851.485000", "230851.945000", "230852.405000", "230852.865000", "230853.325000", "230853.785000", "230854.245000"],
