{
  "AcquisitionMatrixPE": 82,
  "AcquisitionNumber": 1,
  "AcquisitionTime": "22:07:32.077500",
  "BandwidthPerPixelPhaseEncode": 24.888,
  "BaseResolution": 82,
  "BodyPartExamined": "BRAIN",
  "ConsistencyInfo": "N4_VE11E_LATEST_20181129",
  "ConversionSoftware": "dcm2niix",
  "ConversionSoftwareVersion": "v1.0.20201102",
  "DerivedVendorReportedEchoSpacing": 0.00049,
  "DeviceSerialNumber": "66112",
  "DwellTime": 2e-06,
  "EchoTime": 0.0272,
  "EchoTrainLength": 82,
  "EffectiveEchoSpacing": 0.00049,
  "FlipAngle": 44,
  "ImageComments": "Unaliased MB8/PE3",
  "ImageOrientationPatientDICOM": [0.999738, 0.0218743, 0.00668161, -0.0218144, 0.999722, -0.00891911],
  "ImageType": [
    "ORIGINAL",
    "PRIMARY",
    "M",
    "MB",
    "ND",
    "NORM",
    "MOSAIC"
],
  "ImagingFrequency": 123.252,
  "InPlanePhaseEncodingDirectionDICOM": "COL",
  "InstitutionAddress": "Maynard 3,Hanover,NH,US,03755",
  "InstitutionName": "Dartmouth College - PBS",
  "InstitutionalDepartmentName": "Department",
  "MRAcquisitionType": "2D",
  "MagneticFieldStrength": 3,
  "Manufacturer": "Siemens",
  "ManufacturersModelName": "Prisma",
  "Modality": "MR",
  "MultibandAccelerationFactor": 8,
  "PartialFourier": 1,
  "PatientPosition": "HFS",
  "PercentPhaseFOV": 100,
  "PercentSampling": 100,
  "PhaseEncodingDirection": "j-",
  "PhaseEncodingSteps": 82,
  "PhaseResolution": 1,
  "PixelBandwidth": 3050,
  "ProcedureStepDescription": "Wager_Wager^1076_spacetop",
  "ProtocolName": "func_run-03_task-social_acq-ap-mb8",
  "PulseSequenceDetails": "%CustomerSeq%\\cmrr_mbep2d_bold",
  "ReceiveCoilActiveElements": "HEA;HEP",
  "ReceiveCoilName": "Head_32",
  "ReconMatrixPE": 82,
  "RepetitionTime": 0.46,
  "SAR": 0.0944853,
  "ScanOptions": "FS",
  "ScanningSequence": "EP",
  "SequenceName": "epfid2d1_82",
  "SequenceVariant": "SK\\SS",
  "SeriesDescription": "func_run-03_task-social_acq-ap-mb8",
  "SeriesNumber": 16,
  "ShimSetting": [4162, -7785, -7239, 580, -37, -11, 20, 62],
  "SliceThickness": 2.7,
  "SliceTiming": [0, 0.2525, 0.0625, 0.315, 0.125, 0.3775, 0.1875, 0, 0.2525, 0.0625, 0.315, 0.125, 0.3775, 0.1875, 0, 0.2525, 0.0625, 0.315, 0.125, 0.3775, 0.1875, 0, 0.2525, 0.0625, 0.315, 0.125, 0.3775, 0.1875, 0, 0.2525, 0.0625, 0.315, 0.125, 0.3775, 0.1875, 0, 0.2525, 0.0625, 0.315, 0.125, 0.3775, 0.1875, 0, 0.2525, 0.0625, 0.315, 0.125, 0.3775, 0.1875, 0, 0.2525, 0.0625, 0.315, 0.125, 0.3775, 0.1875],
  "SoftwareVersions": "syngo MR E11",
  "SpacingBetweenSlices": 2.7,
  "StationName": "AWP66112",
  "TaskName": "social",
  "TotalReadoutTime": 0.03969,
  "TxRefAmp": 253.67,
  "WipMemBlock": "73fed87c-faf2-477e-a79e-f696645553a9||Sequence: R016 ve11e/master r/434b28f1; Aug  7 2019 18:53:46 by eja",
  "dcmmeta_affine": [
    [-2.682224988937378, -0.058526311069726944, 0.018562113866209984, 115.07896423339844],
    [-0.05868718773126602, 2.6821818351745605, -0.023681748658418655, -93.421142578125],
    [0.017926279455423355, 0.023929309099912643, 2.6998324394226074, -71.71964263916016],
    [0.0, 0.0, 0.0, 1.0]
],
  "dcmmeta_reorient_transform": [
    [0.0, -1.0, 0.0, 81.0],
    [1.0, 0.0, 0.0, 0.0],
    [0.0, 0.0, 1.0, 0.0],
    [0.0, 0.0, 0.0, 1.0]
],
  "dcmmeta_shape": [82, 82, 56, 872],
  "dcmmeta_slice_dim": 2,
  "dcmmeta_version": 0.6,
  "global": {
    "const": {
      "AccessionNumber": "A004111",
      "AcquisitionMatrix": [82, 0, 0, 82],
      "AngioFlag": "N",
      "BitsAllocated": 16,
      "BitsStored": 16,
      "BodyPartExamined": "BRAIN",
      "Columns": 656,
      "EchoNumbers": 1,
      "EchoTime": 27.2,
      "EchoTrainLength": 82,
      "FlipAngle": 44.0,
      "HighBit": 15,
      "ImageOrientationPatient": [0.99973840098591, 0.02187431459006, 0.00668161322921, -0.0218143516679, 0.99972225323541, -0.008919105741],
      "ImagePositionPatient": [-863.33986821123, -910.46495252112, -68.058502880588],
      "ImageType": [
        "ORIGINAL",
        "PRIMARY",
        "M",
        "MB",
        "ND",
        "NORM",
        "MOSAIC"
],
      "ImagedNucleus": "1H",
      "ImagingFrequency": 123.252205,
      "InPlanePhaseEncodingDirection": "COL",
      "MRAcquisitionType": "2D",
      "MagneticFieldStrength": 3.0,
      "Manufacturer": "SIEMENS",
      "ManufacturerModelName": "Prisma",
      "Modality": "MR",
      "NumberOfAverages": 1.0,
      "NumberOfPhaseEncodingSteps": 82,
      "PercentPhaseFieldOfView": 100.0,
      "PercentSampling": 100.0,
      "PerformedProcedureStepStartTime": "213212.058000",
      "PhotometricInterpretation": "MONOCHROME2",
      "PixelBandwidth": 3050.0,
      "PixelRepresentation": 0,
      "PixelSpacing": [2.6829268932343, 2.6829268932343],
      "ProtocolName": "func_run-03_task-social_acq-ap-mb8",
      "RepetitionTime": 460.0,
      "Rows": 656,
      "SAR": 0.09448533089734,
      "SamplesPerPixel": 1,
      "ScanOptions": "FS",
      "ScanningSequence": "EP",
      "SequenceName": "epfid2d1_82",
      "SequenceVariant": [
        "SK",
        "SS"
],
      "SeriesDescription": "func_run-03_task-social_acq-ap-mb8",
      "SeriesNumber": 16,
      "SeriesTime": "220745.618000",
      "SliceLocation": -70.104642566843,
      "SliceThickness": 2.7000000476837,
      "SmallestImagePixelValue": 0,
      "SoftwareVersions": "syngo MR E11",
      "SpacingBetweenSlices": 2.700000098374,
      "SpecificCharacterSet": "ISO_IR 100",
      "StudyID": "1",
      "StudyTime": "213211.994000",
      "TransmitCoilName": "Body",
      "VariableFlipAngleFlag": "N",
      "WindowCenterWidthExplanation": "Algo1"
    },
    "slices": {}
  },
  "time": {
    "samples": {
      "AcquisitionNumber": [1, 2, 3, 4, 5, 6, 7, 8, 9, 10, 11, 12, 13, 14, 15, 16, 17, 18, 19, 20, 21, 22, 23, 24, 25, 26, 27, 28, 29, 30, 31, 32, 33, 34, 35, 36, 37, 38, 39, 40, 41, 42, 43, 44, 45, 46, 47, 48, 49, 50, 51, 52, 53, 54, 55, 56, 57, 58, 59, 60, 61, 62, 63, 64, 65, 66, 67, 68, 69, 70, 71, 72, 73, 74, 75, 76, 77, 78, 79, 80, 81, 82, 83, 84, 85, 86, 87, 88, 89, 90, 91, 92, 93, 94, 95, 96, 97, 98, 99, 100, 101, 102, 103, 104, 105, 106, 107, 108, 109, 110, 111, 112, 113, 114, 115, 116, 117, 118, 119, 120, 121, 122, 123, 124, 125, 126, 127, 128, 129, 130, 131, 132, 133, 134, 135, 136, 137, 138, 139, 140, 141, 142, 143, 144, 145, 146, 147, 148, 149, 150, 151, 152, 153, 154, 155, 156, 157, 158, 159, 160, 161, 162, 163, 164, 165, 166, 167, 168, 169, 170, 171, 172, 173, 174, 175, 176, 177, 178, 179, 180, 181, 182, 183, 184, 185, 186, 187, 188, 189, 190, 191, 192, 193, 194, 195, 196, 197, 198, 199, 200, 201, 202, 203, 204, 205, 206, 207, 208, 209, 210, 211, 212, 213, 214, 215, 216, 217, 218, 219, 220, 221, 222, 223, 224, 225, 226, 227, 228, 229, 230, 231, 232, 233, 234, 235, 236, 237, 238, 239, 240, 241, 242, 243, 244, 245, 246, 247, 248, 249, 250, 251, 252, 253, 254, 255, 256, 257, 258, 259, 260, 261, 262, 263, 264, 265, 266, 267, 268, 269, 270, 271, 272, 273, 274, 275, 276, 277, 278, 279, 280, 281, 282, 283, 284, 285, 286, 287, 288, 289, 290, 291, 292, 293, 294, 295, 296, 297, 298, 299, 300, 301, 302, 303, 304, 305, 306, 307, 308, 309, 310, 311, 312, 313, 314, 315, 316, 317, 318, 319, 320, 321, 322, 323, 324, 325, 326, 327, 328, 329, 330, 331, 332, 333, 334, 335, 336, 337, 338, 339, 340, 341, 342, 343, 344, 345, 346, 347, 348, 349, 350, 351, 352, 353, 354, 355, 356, 357, 358, 359, 360, 361, 362, 363, 364, 365, 366, 367, 368, 369, 370, 371, 372, 373, 374, 375, 376, 377, 378, 379, 380, 381, 382, 383, 384, 385, 386, 387, 388, 389, 390, 391, 392, 393, 394, 395, 396, 397, 398, 399, 400, 401, 402, 403, 404, 405, 406, 407, 408, 409, 410, 411, 412, 413, 414, 415, 416, 417, 418, 419, 420, 421, 422, 423, 424, 425, 426, 427, 428, 429, 430, 431, 432, 433, 434, 435, 436, 437, 438, 439, 440, 441, 442, 443, 444, 445, 446, 447, 448, 449, 450, 451, 452, 453, 454, 455, 456, 457, 458, 459, 460, 461, 462, 463, 464, 465, 466, 467, 468, 469, 470, 471, 472, 473, 474, 475, 476, 477, 478, 479, 480, 481, 482, 483, 484, 485, 486, 487, 488, 489, 490, 491, 492, 493, 494, 495, 496, 497, 498, 499, 500, 501, 502, 503, 504, 505, 506, 507, 508, 509, 510, 511, 512, 513, 514, 515, 516, 517, 518, 519, 520, 521, 522, 523, 524, 525, 526, 527, 528, 529, 530, 531, 532, 533, 534, 535, 536, 537, 538, 539, 540, 541, 542, 543, 544, 545, 546, 547, 548, 549, 550, 551, 552, 553, 554, 555, 556, 557, 558, 559, 560, 561, 562, 563, 564, 565, 566, 567, 568, 569, 570, 571, 572, 573, 574, 575, 576, 577, 578, 579, 580, 581, 582, 583, 584, 585, 586, 587, 588, 589, 590, 591, 592, 593, 594, 595, 596, 597, 598, 599, 600, 601, 602, 603, 604, 605, 606, 607, 608, 609, 610, 611, 612, 613, 614, 615, 616, 617, 618, 619, 620, 621, 622, 623, 624, 625, 626, 627, 628, 629, 630, 631, 632, 633, 634, 635, 636, 637, 638, 639, 640, 641, 642, 643, 644, 645, 646, 647, 648, 649, 650, 651, 652, 653, 654, 655, 656, 657, 658, 659, 660, 661, 662, 663, 664, 665, 666, 667, 668, 669, 670, 671, 672, 673, 674, 675, 676, 677, 678, 679, 680, 681, 682, 683, 684, 685, 686, 687, 688, 689, 690, 691, 692, 693, 694, 695, 696, 697, 698, 699, 700, 701, 702, 703, 704, 705, 706, 707, 708, 709, 710, 711, 712, 713, 714, 715, 716, 717, 718, 719, 720, 721, 722, 723, 724, 725, 726, 727, 728, 729, 730, 731, 732, 733, 734, 735, 736, 737, 738, 739, 740, 741, 742, 743, 744, 745, 746, 747, 748, 749, 750, 751, 752, 753, 754, 755, 756, 757, 758, 759, 760, 761, 762, 763, 764, 765, 766, 767, 768, 769, 770, 771, 772, 773, 774, 775, 776, 777, 778, 779, 780, 781, 782, 783, 784, 785, 786, 787, 788, 789, 790, 791, 792, 793, 794, 795, 796, 797, 798, 799, 800, 801, 802, 803, 804, 805, 806, 807, 808, 809, 810, 811, 812, 813, 814, 815, 816, 817, 818, 819, 820, 821, 822, 823, 824, 825, 826, 827, 828, 829, 830, 831, 832, 833, 834, 835, 836, 837, 838, 839, 840, 841, 842, 843, 844, 845, 846, 847, 848, 849, 850, 851, 852, 853, 854, 855, 856, 857, 858, 859, 860, 861, 862, 863, 864, 865, 866, 867, 868, 869, 870, 871, 872],
      "AcquisitionTime": ["220732.077500", "220732.537500", "220732.997500", "220733.457500", "220733.917500", "220734.377500", "220734.837500", "220735.297500", "220735.757500", "220736.217500", "220736.677500", "220737.137500", "220737.597500", "220738.057500", "220738.517500", "220738.977500", "220739.437500", "220739.897500", "220740.357500", "220740.817500", "220741.277500", "220741.737500", "220742.197500", "220742.657500", "220743.117500", "220743.577500", "220744.037500", "220744.497500", "220744.957500", "220745.417500", "220745.877500", "220746.337500", "220746.797500", "220747.257500", "220747.717500", "220748.177500", "220748.637500", "220749.097500", "220749.557500", "220750.017500", "220750.477500", "220750.937500", "220751.397500", "220751.857500", "220752.317500", "220752.777500", "220753.237500", "220753.697500", "220754.157500", "220754.617500", "220755.077500", "220755.537500", "220755.997500", "220756.457500", "220756.917500", "220757.377500", "220757.837500", "220758.297500", "220758.757500", "220759.217500", "220759.677500", "220800.137500", "220800.597500", "220801.057500", "220801.517500", "220801.977500", "220802.437500", "220802.897500", "220803.357500", "220803.817500", "220804.277500", "220804.737500", "220805.197500", "220805.657500", "220806.117500", "220806.577500", "220807.037500", "220807.497500", "220807.957500", "220808.417500", "220808.877500", "220809.337500", "220809.797500", "220810.257500", "220810.717500", "220811.177500", "220811.637500", "220812.097500", "220812.557500", "220813.017500", "220813.477500", "220813.937500", "220814.397500", "220814.857500", "220815.317500", "220815.777500", "220816.237500", "220816.697500", "220817.157500", "220817.617500", "220818.077500", "220818.537500", "220818.997500", "220819.457500", "220819.917500", "220820.377500", "220820.837500", "220821.297500", "220821.757500", "220822.217500", "220822.677500", "220823.137500", "220823.597500", "220824.057500", "220824.517500", "220824.977500", "220825.437500", "220825.897500", "220826.357500", "220826.817500", "220827.277500", "220827.737500", "220828.197500", "220828.657500", "220829.117500", "220829.577500", "220830.037500", "220830.497500", "220830.957500", "220831.417500", "220831.877500", "220832.337500", "220832.797500", "220833.257500", "220833.717500", "220834.177500", "220834.637500", "220835.097500", "220835.557500", "220836.017500", "220836.477500", "220836.937500", "220837.397500", "220837.857500", "220838.317500", "220838.777500", "220839.237500", "220839.697500", "220840.157500", "220840.617500", "220841.077500", "220841.537500", "220841.997500", "220842.457500", "220842.917500", "220843.377500", "220843.837500", "220844.297500", "220844.757500", "220845.217500", "220845.677500", "220846.137500", "220846.597500", "220847.057500", "220847.517500", "220847.977500", "220848.437500", "220848.897500", "220849.357500", "220849.817500", "220850.277500", "220850.737500", "220851.197500", "220851.657500", "220852.117500", "220852.577500", "220853.037500", "220853.497500", "220853.957500", "220854.417500", "220854.877500", "220855.337500", "220855.797500", "220856.257500", "220856.717500", "220857.177500", "220857.637500", "220858.097500", "220858.557500", "220859.017500", "220859.477500", "220859.937500", "220900.397500", "220900.857500", "220901.317500", "220901.777500", "220902.237500", "220902.697500", "220903.157500", "220903.617500", "220904.077500", "220904.537500", "220904.997500", "220905.457500", "220905.917500", "220906.377500", "220906.837500", "220907.297500", "220907.757500", "220908.217500", "220908.677500", "220909.137500", "220909.597500", "220910.057500", "220910.517500", "220910.977500", "220911.437500", "220911.897500", "220912.357500", "220912.817500", "220913.277500", "220913.737500", "220914.197500", "220914.657500", "220915.117500", "220915.577500", "220916.037500", "220916.497500", "220916.957500", "220917.417500", "220917.877500", "220918.337500", "220918.797500", "220919.257500", "220919.717500", "220920.177500", "220920.637500", "220921.097500", "220921.557500", "220922.017500", "220922.477500", "220922.937500", "220923.397500", "220923.857500", "220924.317500", "220924.777500", "220925.237500", "220925.697500", "220926.157500", "220926.617500", "220927.077500", "220927.537500", "220927.997500", "220928.457500", "220928.917500", "220929.377500", "220929.837500", "220930.297500", "220930.757500", "220931.217500", "220931.677500", "220932.137500", "220932.597500", "220933.057500", "220933.517500", "220933.977500", "220934.437500", "220934.897500", "220935.357500", "220935.817500", "220936.277500", "220936.737500", "220937.197500", "220937.657500", "220938.117500", "220938.577500", "220939.037500", "220939.497500", "220939.957500", "220940.417500", "220940.877500", "220941.337500", "220941.797500", "220942.257500", "220942.717500", "220943.177500", "220943.637500", "220944.097500", "220944.557500", "220945.017500", "220945.477500", "220945.937500", "220946.397500", "220946.857500", "220947.317500", "220947.777500", "220948.237500", "220948.697500", "220949.157500", "220949.617500", "220950.077500", "220950.537500", "220950.997500", "220951.457500", "220951.917500", "220952.377500", "220952.837500", "220953.297500", "220953.757500", "220954.217500", "220954.677500", "220955.137500", "220955.597500", "220956.057500", "220956.517500", "220956.977500", "220957.437500", "220957.897500", "220958.357500", "220958.817500", "220959.277500", "220959.737500", "221000.197500", "221000.657500", "221001.117500", "221001.577500", "221002.037500", "221002.497500", "221002.957500", "221003.417500", "221003.877500", "221004.337500", "221004.797500", "221005.257500", "221005.717500", "221006.177500", "221006.637500", "221007.097500", "221007.557500", "221008.017500", "221008.477500", "221008.937500", "221009.397500", "221009.857500", "221010.317500", "221010.777500", "221011.237500", "221011.697500", "221012.157500", "221012.617500", "221013.077500", "221013.537500", "221013.997500", "221014.457500", "221014.917500", "221015.377500", "221015.837500", "221016.297500", "221016.757500", "221017.217500", "221017.677500", "221018.137500", "221018.597500", "221019.057500", "221019.517500", "221019.977500", "221020.437500", "221020.897500", "221021.357500", "221021.817500", "221022.277500", "221022.737500", "221023.197500", "221023.657500", "221024.117500", "221024.577500", "221025.037500", "221025.497500", "221025.957500", "221026.417500", "221026.877500", "221027.337500", "221027.797500", "221028.257500", "221028.717500", "221029.177500", "221029.637500", "221030.097500", "221030.557500", "221031.017500", "221031.477500", "221031.937500", "221032.397500", "221032.857500", "221033.317500", "221033.777500", "221034.237500", "221034.697500", "221035.157500", "221035.617500", "221036.077500", "221036.537500", "221036.997500", "221037.457500", "221037.917500", "221038.377500", "221038.837500", "221039.297500", "221039.757500", "221040.217500", "221040.677500", "221041.137500", "221041.597500", "221042.057500", "221042.517500", "221042.977500", "221043.437500", "221043.897500", "221044.357500", "221044.817500", "221045.277500", "221045.737500", "221046.197500", "221046.657500", "221047.117500", "221047.577500", "221048.037500", "221048.497500", "221048.957500", "221049.417500", "221049.877500", "221050.337500", "221050.797500", "221051.257500", "221051.717500", "221052.177500", "221052.637500", "221053.097500", "221053.557500", "221054.017500", "221054.477500", "221054.937500", "221055.397500", "221055.857500", "221056.317500", "221056.777500", "221057.237500", "221057.697500", "221058.157500", "221058.617500", "221059.077500", "221059.537500", "221059.997500", "221100.457500", "221100.917500", "221101.377500", "221101.837500", "221102.297500", "221102.757500", "221103.217500", "221103.677500", "221104.137500", "221104.597500", "221105.057500", "221105.517500", "221105.977500", "221106.437500", "221106.897500", "221107.357500", "221107.817500", "221108.277500", "221108.737500", "221109.197500", "221109.657500", "221110.117500", "221110.577500", "221111.037500", "221111.497500", "221111.957500", "221112.417500", "221112.877500", "221113.337500", "221113.797500", "221114.257500", "221114.717500", "221115.177500", "221115.637500", "221116.097500", "221116.557500", "221117.017500", "221117.477500", "221117.937500", "221118.397500", "221118.857500", "221119.317500", "221119.777500", "221120.237500", "221120.697500", "221121.157500", "221121.617500", "221122.077500", "221122.537500", "221122.997500", "221123.457500", "221123.917500", "221124.377500", "221124.837500", "221125.297500", "221125.757500", "221126.217500", "221126.677500", "221127.137500", "221127.597500", "221128.057500", "221128.517500", "221128.977500", "221129.437500", "221129.897500", "221130.357500", "221130.817500", "221131.277500", "221131.737500", "221132.197500", "221132.657500", "221133.117500", "221133.577500", "221134.037500", "221134.497500", "221134.957500", "221135.417500", "221135.877500", "221136.337500", "221136.797500", "221137.257500", "221137.717500", "221138.177500", "221138.637500", "221139.097500", "221139.557500", "221140.017500", "221140.477500", "221140.937500", "221141.397500", "221141.857500", "221142.317500", "221142.777500", "221143.237500", "221143.697500", "221144.157500", "221144.617500", "221145.077500", "221145.537500", "221145.997500", "221146.457500", "221146.917500", "221147.377500", "221147.837500", "221148.297500", "221148.757500", "221149.217500", "221149.677500", "221150.137500", "221150.597500", "221151.057500", "221151.517500", "221151.977500", "221152.437500", "221152.897500", "221153.357500", "221153.817500", "221154.277500", "221154.737500", "221155.197500", "221155.657500", "221156.117500", "221156.577500", "221157.037500", "221157.497500", "221157.957500", "221158.417500", "221158.877500", "221159.337500", "221159.797500", "221200.257500", "221200.717500", "221201.177500", "221201.637500", "221202.097500", "221202.557500", "221203.017500", "221203.477500", "221203.937500", "221204.397500", "221204.857500", "221205.317500", "221205.777500", "221206.237500", "221206.697500", "221207.157500", "221207.617500", "221208.077500", "221208.537500", "221208.997500", "221209.457500", "221209.917500", "221210.377500", "221210.837500", "221211.297500", "221211.757500", "221212.217500", "221212.677500", "221213.137500", "221213.597500", "221214.057500", "221214.517500", "221214.977500", "221215.437500", "221215.897500", "221216.357500", "221216.817500", "221217.277500", "221217.737500", "221218.197500", "221218.657500", "221219.117500", "221219.577500", "221220.037500", "221220.497500", "221220.957500", "221221.417500", "221221.877500", "221222.337500", "221222.797500", "221223.257500", "221223.717500", "221224.177500", "221224.637500", "221225.097500", "221225.557500", "221226.017500", "221226.477500", "221226.937500", "221227.397500", "221227.857500", "221228.317500", "221228.777500", "221229.237500", "221229.697500", "221230.157500", "221230.617500", "221231.077500", "221231.537500", "221231.997500", "221232.457500", "221232.917500", "221233.377500", "221233.837500", "221234.297500", "221234.757500", "221235.217500", "221235.677500", "221236.137500", "221236.597500", "221237.057500", "221237.517500", "221237.977500", "221238.437500", "221238.897500", "221239.357500", "221239.817500", "221240.277500", "221240.737500", "221241.197500", "221241.657500", "221242.117500", "221242.577500", "221243.037500", "221243.497500", "221243.957500", "221244.417500", "221244.877500", "221245.337500", "221245.797500", "221246.257500", "221246.717500", "221247.177500", "221247.637500", "221248.097500", "221248.557500", "221249.017500", "221249.477500", "221249.937500", "221250.397500", "221250.857500", "221251.317500", "221251.777500", "221252.237500", "221252.697500", "221253.157500", "221253.617500", "221254.077500", "221254.537500", "221254.997500", "221255.457500", "221255.917500", "221256.377500", "221256.837500", "221257.297500", "221257.757500", "221258.217500", "221258.677500", "221259.137500", "221259.597500", "221300.057500", "221300.517500", "221300.977500", "221301.437500", "221301.897500", "221302.357500", "221302.817500", "221303.277500", "221303.737500", "221304.197500", "221304.657500", "221305.117500", "221305.577500", "221306.037500", "221306.497500", "221306.957500", "221307.417500", "221307.877500", "221308.337500", "221308.797500", "221309.257500", "221309.717500", "221310.177500", "221310.637500", "221311.097500", "221311.557500", "221312.017500", "221312.477500", "221312.937500", "221313.397500", "221313.857500", "221314.317500", "221314.777500", "221315.237500", "221315.697500", "221316.157500", "221316.617500", "221317.077500", "221317.537500", "221317.997500", "221318.457500", "221318.917500", "221319.377500", "221319.837500", "221320.297500", "221320.757500", "221321.217500", "221321.677500", "221322.137500", "221322.597500", "221323.057500", "221323.517500", "221323.977500", "221324.437500", "221324.897500", "221325.357500", "221325.817500", "221326.277500", "221326.737500", "221327.197500", "221327.657500", "221328.117500", "221328.577500", "221329.037500", "221329.497500", "221329.957500", "221330.417500", "221330.877500", "221331.337500", "221331.797500", "221332.257500", "221332.717500", "221333.177500", "221333.637500", "221334.097500", "221334.557500", "221335.017500", "221335.477500", "221335.937500", "221336.397500", "221336.857500", "221337.317500", "221337.777500", "221338.237500", "221338.697500", "221339.157500", "221339.617500", "221340.077500", "221340.537500", "221340.997500", "221341.457500", "221341.917500", "221342.377500", "221342.837500", "221343.297500", "221343.757500", "221344.217500", "221344.677500", "221345.137500", "221345.597500", "221346.057500", "221346.517500", "221346.977500", "221347.437500", "221347.897500", "221348.357500", "221348.817500", "221349.277500", "221349.737500", "221350.197500", "221350.657500", "221351.117500", "221351.577500", "221352.037500", "221352.497500", "221352.957500", "221353.417500", "221353.877500", "221354.337500", "221354.797500", "221355.257500", "221355.717500", "221356.177500", "221356.637500", "221357.097500", "221357.557500", "221358.017500", "221358.477500", "221358.937500", "221359.397500", "221359.857500", "221400.317500", "221400.777500", "221401.237500", "221401.697500", "221402.157500", "221402.617500", "221403.077500", "221403.537500", "221403.997500", "221404.457500", "221404.917500", "221405.377500", "221405.837500", "221406.297500", "221406.757500", "221407.217500", "221407.677500", "221408.137500", "221408.597500", "221409.057500", "221409.517500", "221409.977500", "221410.437500", "221410.897500", "221411.357500", "221411.817500", "221412.277500", "221412.737500"],
