{
  "AcquisitionMatrixPE": 82,
  "AcquisitionNumber": 1,
  "AcquisitionTime": "13:55:43.157500",
  "BandwidthPerPixelPhaseEncode": 24.888,
  "BaseResolution": 82,
  "BodyPartExamined": "BRAIN",
  "ConsistencyInfo": "N4_VE11E_LATEST_20181129",
  "ConversionSoftware": "dcm2niix",
  "ConversionSoftwareVersion": "v1.0.20201102",
  "DerivedVendorReportedEchoSpacing": 0.00049,
  "DeviceSerialNumber": "66112",
  "DwellTime": 2e-06,
  "EchoTime": 0.0272,
  "EchoTrainLength": 82,
  "EffectiveEchoSpacing": 0.00049,
  "FlipAngle": 44,
  "ImageComments": "Unaliased MB8/PE3",
  "ImageOrientationPatientDICOM": [0.999077, -0.0419871, -0.0090632, 0.0427471, 0.951186, 0.305645],
  "ImageType": [
    "ORIGINAL",
    "PRIMARY",
    "M",
    "MB",
    "ND",
    "NORM",
    "MOSAIC"
],
  "ImagingFrequency": 123.252,
  "InPlanePhaseEncodingDirectionDICOM": "COL",
  "InstitutionAddress": "Maynard 3,Hanover,NH,US,03755",
  "InstitutionName": "Dartmouth College - PBS",
  "InstitutionalDepartmentName": "Department",
  "MRAcquisitionType": "2D",
  "MagneticFieldStrength": 3,
  "Manufacturer": "Siemens",
  "ManufacturersModelName": "Prisma",
  "Modality": "MR",
  "MultibandAccelerationFactor": 8,
  "PartialFourier": 1,
  "PatientPosition": "HFS",
  "PercentPhaseFOV": 100,
  "PercentSampling": 100,
  "PhaseEncodingDirection": "j-",
  "PhaseEncodingSteps": 82,
  "PhaseResolution": 1,
  "PixelBandwidth": 3050,
  "ProcedureStepDescription": "Wager_Wager^1076_spacetop",
  "ProtocolName": "func_run-01_task-alignvideo_acq-ap-mb8",
  "PulseSequenceDetails": "%CustomerSeq%\\cmrr_mbep2d_bold",
  "ReceiveCoilActiveElements": "HEA;HEP",
  "ReceiveCoilName": "Head_32",
  "ReconMatrixPE": 82,
  "RepetitionTime": 0.46,
  "SAR": 0.106392,
  "ScanOptions": "FS",
  "ScanningSequence": "EP",
  "SequenceName": "epfid2d1_82",
  "SequenceVariant": "SK\\SS",
  "SeriesDescription": "func_run-01_task-alignvideo_acq-ap-mb8",
  "SeriesNumber": 30,
  "ShimSetting": [4125, -7775, -7264, 589, -111, -295, 21, 85],
  "SliceThickness": 2.7,
  "SliceTiming": [0, 0.25, 0.0625, 0.3125, 0.125, 0.375, 0.1875, 0, 0.25, 0.0625, 0.3125, 0.125, 0.375, 0.1875, 0, 0.25, 0.0625, 0.3125, 0.125, 0.375, 0.1875, 0, 0.25, 0.0625, 0.3125, 0.125, 0.375, 0.1875, 0, 0.25, 0.0625, 0.3125, 0.125, 0.375, 0.1875, 0, 0.25, 0.0625, 0.3125, 0.125, 0.375, 0.1875, 0, 0.25, 0.0625, 0.3125, 0.125, 0.375, 0.1875, 0, 0.25, 0.0625, 0.3125, 0.125, 0.375, 0.1875],
  "SoftwareVersions": "syngo MR E11",
  "SpacingBetweenSlices": 2.7,
  "StationName": "AWP66112",
  "TaskName": "alignvideo",
  "TotalReadoutTime": 0.03969,
  "TxRefAmp": 231.232,
  "WipMemBlock": "8bc8387d-ecb9-464d-8f97-60bc48eb39ae||Sequence: R016 ve11e/master r/434b28f1; Aug  7 2019 18:53:46 by eja",
  "dcmmeta_affine": [
    [-2.680450677871704, 0.11468742042779922, 0.011373395100235939, 111.0787353515625],
    [0.11264841258525848, 2.5519611835479736, 0.8255256414413452, -110.36409759521484],
    [-0.024315906688570976, -0.8200230002403259, 2.570676565170288, -25.94573402404785],
    [0.0, 0.0, 0.0, 1.0]
],
  "dcmmeta_reorient_transform": [
    [0.0, -1.0, 0.0, 81.0],
    [1.0, 0.0, 0.0, 0.0],
    [0.0, 0.0, 1.0, 0.0],
    [0.0, 0.0, 0.0, 1.0]
],
  "dcmmeta_shape": [82, 82, 56, 1073],
  "dcmmeta_slice_dim": 2,
  "dcmmeta_version": 0.6,
  "global": {
    "const": {
      "AccessionNumber": "A004220",
      "AcquisitionMatrix": [82, 0, 0, 82],
      "AngioFlag": "N",
      "BitsAllocated": 16,
      "BitsStored": 16,
      "BodyPartExamined": "BRAIN",
      "Columns": 656,
      "EchoNumbers": 1,
      "EchoTime": 27.2,
      "EchoTrainLength": 82,
      "FlipAngle": 44.0,
      "HighBit": 15,
      "ImageOrientationPatient": [0.99907704354391, -0.0419871342646, -0.0090632014105, 0.04274712871095, 0.95118550351198, 0.30564492617354],
      "ImagePositionPatient": [-922.57304656685, -796.42751743933, -320.73553058137],
      "ImageType": [
        "ORIGINAL",
        "PRIMARY",
        "M",
        "MB",
        "ND",
        "NORM",
        "MOSAIC"
],
      "ImagedNucleus": "1H",
      "ImagingFrequency": 123.252178,
      "InPlanePhaseEncodingDirection": "COL",
      "MRAcquisitionType": "2D",
      "MagneticFieldStrength": 3.0,
      "Manufacturer": "SIEMENS",
      "ManufacturerModelName": "Prisma",
      "Modality": "MR",
      "NumberOfAverages": 1.0,
      "NumberOfPhaseEncodingSteps": 82,
      "PercentPhaseFieldOfView": 100.0,
      "PercentSampling": 100.0,
      "PerformedProcedureStepStartTime": "123637.775000",
      "PhotometricInterpretation": "MONOCHROME2",
      "PixelBandwidth": 3050.0,
      "PixelRepresentation": 0,
      "PixelSpacing": [2.6829268932343, 2.6829268932343],
      "ProtocolName": "func_run-01_task-alignvideo_acq-ap-mb8",
      "RepetitionTime": 460.0,
      "Rows": 656,
      "SAR": 0.10639159283936,
      "SamplesPerPixel": 1,
      "ScanOptions": "FS",
      "ScanningSequence": "EP",
      "SequenceName": "epfid2d1_82",
      "SequenceVariant": [
        "SK",
        "SS"
],
      "SeriesDescription": "func_run-01_task-alignvideo_acq-ap-mb8",
      "SeriesNumber": 30,
      "SeriesTime": "135607.648000",
      "SliceLocation": -57.9789436356,
      "SliceThickness": 2.7000000476837,
      "SmallestImagePixelValue": 0,
      "SoftwareVersions": "syngo MR E11",
      "SpacingBetweenSlices": 2.6999999368757,
      "SpecificCharacterSet": "ISO_IR 100",
      "StudyID": "1",
      "StudyTime": "123637.687000",
      "TransmitCoilName": "Body",
      "VariableFlipAngleFlag": "N",
      "WindowCenterWidthExplanation": "Algo1"
    },
    "slices": {}
  },
  "time": {
    "samples": {
      "AcquisitionNumber": [1, 2, 3, 4, 5, 6, 7, 8, 9, 10, 11, 12, 13, 14, 15, 16, 17, 18, 19, 20, 21, 22, 23, 24, 25, 26, 27, 28, 29, 30, 31, 32, 33, 34, 35, 36, 37, 38, 39, 40, 41, 42, 43, 44, 45, 46, 47, 48, 49, 50, 51, 52, 53, 54, 55, 56, 57, 58, 59, 60, 61, 62, 63, 64, 65, 66, 67, 68, 69, 70, 71, 72, 73, 74, 75, 76, 77, 78, 79, 80, 81, 82, 83, 84, 85, 86, 87, 88, 89, 90, 91, 92, 93, 94, 95, 96, 97, 98, 99, 100, 101, 102, 103, 104, 105, 106, 107, 108, 109, 110, 111, 112, 113, 114, 115, 116, 117, 118, 119, 120, 121, 122, 123, 124, 125, 126, 127, 128, 129, 130, 131, 132, 133, 134, 135, 136, 137, 138, 139, 140, 141, 142, 143, 144, 145, 146, 147, 148, 149, 150, 151, 152, 153, 154, 155, 156, 157, 158, 159, 160, 161, 162, 163, 164, 165, 166, 167, 168, 169, 170, 171, 172, 173, 174, 175, 176, 177, 178, 179, 180, 181, 182, 183, 184, 185, 186, 187, 188, 189, 190, 191, 192, 193, 194, 195, 196, 197, 198, 199, 200, 201, 202, 203, 204, 205, 206, 207, 208, 209, 210, 211, 212, 213, 214, 215, 216, 217, 218, 219, 220, 221, 222, 223, 224, 225, 226, 227, 228, 229, 230, 231, 232, 233, 234, 235, 236, 237, 238, 239, 240, 241, 242, 243, 244, 245, 246, 247, 248, 249, 250, 251, 252, 253, 254, 255, 256, 257, 258, 259, 260, 261, 262, 263, 264, 265, 266, 267, 268, 269, 270, 271, 272, 273, 274, 275, 276, 277, 278, 279, 280, 281, 282, 283, 284, 285, 286, 287, 288, 289, 290, 291, 292, 293, 294, 295, 296, 297, 298, 299, 300, 301, 302, 303, 304, 305, 306, 307, 308, 309, 310, 311, 312, 313, 314, 315, 316, 317, 318, 319, 320, 321, 322, 323, 324, 325, 326, 327, 328, 329, 330, 331, 332, 333, 334, 335, 336, 337, 338, 339, 340, 341, 342, 343, 344, 345, 346, 347, 348, 349, 350, 351, 352, 353, 354, 355, 356, 357, 358, 359, 360, 361, 362, 363, 364, 365, 366, 367, 368, 369, 370, 371, 372, 373, 374, 375, 376, 377, 378, 379, 380, 381, 382, 383, 384, 385, 386, 387, 388, 389, 390, 391, 392, 393, 394, 395, 396, 397, 398, 399, 400, 401, 402, 403, 404, 405, 406, 407, 408, 409, 410, 411, 412, 413, 414, 415, 416, 417, 418, 419, 420, 421, 422, 423, 424, 425, 426, 427, 428, 429, 430, 431, 432, 433, 434, 435, 436, 437, 438, 439, 440, 441, 442, 443, 444, 445, 446, 447, 448, 449, 450, 451, 452, 453, 454, 455, 456, 457, 458, 459, 460, 461, 462, 463, 464, 465, 466, 467, 468, 469, 470, 471, 472, 473, 474, 475, 476, 477, 478, 479, 480, 481, 482, 483, 484, 485, 486, 487, 488, 489, 490, 491, 492, 493, 494, 495, 496, 497, 498, 499, 500, 501, 502, 503, 504, 505, 506, 507, 508, 509, 510, 511, 512, 513, 514, 515, 516, 517, 518, 519, 520, 521, 522, 523, 524, 525, 526, 527, 528, 529, 530, 531, 532, 533, 534, 535, 536, 537, 538, 539, 540, 541, 542, 543, 544, 545, 546, 547, 548, 549, 550, 551, 552, 553, 554, 555, 556, 557, 558, 559, 560, 561, 562, 563, 564, 565, 566, 567, 568, 569, 570, 571, 572, 573, 574, 575, 576, 577, 578, 579, 580, 581, 582, 583, 584, 585, 586, 587, 588, 589, 590, 591, 592, 593, 594, 595, 596, 597, 598, 599, 600, 601, 602, 603, 604, 605, 606, 607, 608, 609, 610, 611, 612, 613, 614, 615, 616, 617, 618, 619, 620, 621, 622, 623, 624, 625, 626, 627, 628, 629, 630, 631, 632, 633, 634, 635, 636, 637, 638, 639, 640, 641, 642, 643, 644, 645, 646, 647, 648, 649, 650, 651, 652, 653, 654, 655, 656, 657, 658, 659, 660, 661, 662, 663, 664, 665, 666, 667, 668, 669, 670, 671, 672, 673, 674, 675, 676, 677, 678, 679, 680, 681, 682, 683, 684, 685, 686, 687, 688, 689, 690, 691, 692, 693, 694, 695, 696, 697, 698, 699, 700, 701, 702, 703, 704, 705, 706, 707, 708, 709, 710, 711, 712, 713, 714, 715, 716, 717, 718, 719, 720, 721, 722, 723, 724, 725, 726, 727, 728, 729, 730, 731, 732, 733, 734, 735, 736, 737, 738, 739, 740, 741, 742, 743, 744, 745, 746, 747, 748, 749, 750, 751, 752, 753, 754, 755, 756, 757, 758, 759, 760, 761, 762, 763, 764, 765, 766, 767, 768, 769, 770, 771, 772, 773, 774, 775, 776, 777, 778, 779, 780, 781, 782, 783, 784, 785, 786, 787, 788, 789, 790, 791, 792, 793, 794, 795, 796, 797, 798, 799, 800, 801, 802, 803, 804, 805, 806, 807, 808, 809, 810, 811, 812, 813, 814, 815, 816, 817, 818, 819, 820, 821, 822, 823, 824, 825, 826, 827, 828, 829, 830, 831, 832, 833, 834, 835, 836, 837, 838, 839, 840, 841, 842, 843, 844, 845, 846, 847, 848, 849, 850, 851, 852, 853, 854, 855, 856, 857, 858, 859, 860, 861, 862, 863, 864, 865, 866, 867, 868, 869, 870, 871, 872, 873, 874, 875, 876, 877, 878, 879, 880, 881, 882, 883, 884, 885, 886, 887, 888, 889, 890, 891, 892, 893, 894, 895, 896, 897, 898, 899, 900, 901, 902, 903, 904, 905, 906, 907, 908, 909, 910, 911, 912, 913, 914, 915, 916, 917, 918, 919, 920, 921, 922, 923, 924, 925, 926, 927, 928, 929, 930, 931, 932, 933, 934, 935, 936, 937, 938, 939, 940, 941, 942, 943, 944, 945, 946, 947, 948, 949, 950, 951, 952, 953, 954, 955, 956, 957, 958, 959, 960, 961, 962, 963, 964, 965, 966, 967, 968, 969, 970, 971, 972, 973, 974, 975, 976, 977, 978, 979, 980, 981, 982, 983, 984, 985, 986, 987, 988, 989, 990, 991, 992, 993, 994, 995, 996, 997, 998, 999, 1000, 1001, 1002, 1003, 1004, 1005, 1006, 1007, 1008, 1009, 1010, 1011, 1012, 1013, 1014, 1015, 1016, 1017, 1018, 1019, 1020, 1021, 1022, 1023, 1024, 1025, 1026, 1027, 1028, 1029, 1030, 1031, 1032, 1033, 1034, 1035, 1036, 1037, 1038, 1039, 1040, 1041, 1042, 1043, 1044, 1045, 1046, 1047, 1048, 1049, 1050, 1051, 1052, 1053, 1054, 1055, 1056, 1057, 1058, 1059, 1060, 1061, 1062, 1063, 1064, 1065, 1066, 1067, 1068, 1069, 1070, 1071, 1072, 1073],
      "AcquisitionTime": ["135543.157500", "135543.617500", "135544.077500", "135544.537500", "135544.997500", "135545.457500", "135545.917500", "135546.377500", "135546.837500", "135547.297500", "135547.757500", "135548.217500", "135548.677500", "135549.137500", "135549.597500", "135550.057500", "135550.517500", "135550.977500", "135551.437500", "135551.897500", "135552.357500", "135552.817500", "135553.277500", "135553.737500", "135554.197500", "135554.657500", "135555.117500", "135555.577500", "135556.037500", "135556.497500", "135556.957500", "135557.417500", "135557.877500", "135558.337500", "135558.797500", "135559.257500", "135559.717500", "135600.177500", "135600.637500", "135601.097500", "135601.557500", "135602.017500", "135602.477500", "135602.937500", "135603.397500", "135603.857500", "135604.317500", "135604.777500", "135605.237500", "135605.697500", "135606.157500", "135606.617500", "135607.077500", "135607.537500", "135607.997500", "135608.457500", "135608.917500", "135609.377500", "135609.837500", "135610.297500", "135610.757500", "135611.217500", "135611.677500", "135612.137500", "135612.597500", "135613.057500", "135613.517500", "135613.977500", "135614.437500", "135614.897500", "135615.357500", "135615.817500", "135616.277500", "135616.737500", "135617.197500", "135617.657500", "135618.117500", "135618.577500", "135619.037500", "135619.497500", "135619.957500", "135620.417500", "135620.877500", "135621.337500", "135621.797500", "135622.257500", "135622.717500", "135623.177500", "135623.637500", "135624.097500", "135624.557500", "135625.017500", "135625.477500", "135625.937500", "135626.397500", "135626.857500", "135627.317500", "135627.777500", "135628.237500", "135628.697500", "135629.157500", "135629.617500", "135630.077500", "135630.537500", "135630.997500", "135631.457500", "135631.917500", "135632.377500", "135632.837500", "135633.297500", "135633.757500", "135634.217500", "135634.677500", "135635.137500", "135635.597500", "135636.057500", "135636.517500", "135636.977500", "135637.437500", "135637.897500", "135638.357500", "135638.817500", "135639.277500", "135639.737500", "135640.197500", "135640.657500", "135641.117500", "135641.577500", "135642.037500", "135642.497500", "135642.957500", "135643.417500", "135643.877500", "135644.337500", "135644.797500", "135645.257500", "135645.717500", "135646.177500", "135646.637500", "135647.097500", "135647.557500", "135648.017500", "135648.477500", "135648.937500", "135649.397500", "135649.857500", "135650.317500", "135650.777500", "135651.237500", "135651.697500", "135652.157500", "135652.617500", "135653.077500", "135653.537500", "135653.997500", "135654.457500", "135654.917500", "135655.377500", "135655.837500", "135656.297500", "135656.757500", "135657.217500", "135657.677500", "135658.137500", "135658.597500", "135659.057500", "135659.517500", "135659.977500", "135700.437500", "135700.897500", "135701.357500", "135701.817500", "135702.277500", "135702.737500", "135703.197500", "135703.657500", "135704.117500", "135704.577500", "135705.037500", "135705.497500", "135705.957500", "135706.417500", "135706.877500", "135707.337500", "135707.797500", "135708.257500", "135708.717500", "135709.177500", "135709.637500", "135710.097500", "135710.557500", "135711.017500", "135711.477500", "135711.937500", "135712.397500", "135712.857500", "135713.317500", "135713.777500", "135714.237500", "135714.697500", "135715.157500", "135715.617500", "135716.077500", "135716.537500", "135716.997500", "135717.457500", "135717.917500", "135718.377500", "135718.837500", "135719.297500", "135719.757500", "135720.217500", "135720.677500", "135721.137500", "135721.597500", "135722.057500", "135722.517500", "135722.977500", "135723.437500", "135723.897500", "135724.357500", "135724.817500", "135725.277500", "135725.737500", "135726.197500", "135726.657500", "135727.117500", "135727.577500", "135728.037500", "135728.497500", "135728.957500", "135729.417500", "135729.877500", "135730.337500", "135730.797500", "135731.257500", "135731.717500", "135732.177500", "135732.637500", "135733.097500", "135733.557500", "135734.017500", "135734.477500", "135734.937500", "135735.397500", "135735.857500", "135736.317500", "135736.777500", "135737.237500", "135737.697500", "135738.157500", "135738.617500", "135739.077500", "135739.537500", "135739.997500", "135740.457500", "135740.917500", "135741.377500", "135741.837500", "135742.297500", "135742.757500", "135743.217500", "135743.677500", "135744.137500", "135744.597500", "135745.057500", "135745.517500", "135745.977500", "135746.437500", "135746.897500", "135747.357500", "135747.817500", "135748.277500", "135748.737500", "135749.197500", "135749.657500", "135750.117500", "135750.577500", "135751.037500", "135751.497500", "135751.957500", "135752.417500", "135752.877500", "135753.337500", "135753.797500", "135754.257500", "135754.717500", "135755.177500", "135755.637500", "135756.097500", "135756.557500", "135757.017500", "135757.477500", "135757.937500", "135758.397500", "135758.857500", "135759.317500", "135759.777500", "135800.237500", "135800.697500", "135801.157500", "135801.617500", "135802.077500", "135802.537500", "135802.997500", "135803.457500", "135803.917500", "135804.377500", "135804.837500", "135805.297500", "135805.757500", "135806.217500", "135806.677500", "135807.137500", "135807.597500", "135808.057500", "135808.517500", "135808.977500", "135809.437500", "135809.897500", "135810.357500", "135810.817500", "135811.277500", "135811.737500", "135812.197500", "135812.657500", "135813.117500", "135813.577500", "135814.037500", "135814.497500", "135814.957500", "135815.417500", "135815.877500", "135816.337500", "135816.797500", "135817.257500", "135817.717500", "135818.177500", "135818.637500", "135819.097500", "135819.557500", "135820.017500", "135820.477500", "135820.937500", "135821.397500", "135821.857500", "135822.317500", "135822.777500", "135823.237500", "135823.697500", "135824.157500", "135824.617500", "135825.077500", "135825.537500", "135825.997500", "135826.457500", "135826.917500", "135827.377500", "135827.837500", "135828.297500", "135828.757500", "135829.217500", "135829.677500", "135830.137500", "135830.597500", "135831.057500", "135831.517500", "135831.977500", "135832.437500", "135832.897500", "135833.357500", "135833.817500", "135834.277500", "135834.737500", "135835.197500", "135835.657500", "135836.117500", "135836.577500", "135837.037500", "135837.497500", "135837.957500", "135838.417500", "135838.877500", "135839.337500", "135839.797500", "135840.257500", "135840.717500", "135841.177500", "135841.637500", "135842.097500", "135842.557500", "135843.017500", "135843.477500", "135843.937500", "135844.397500", "135844.857500", "135845.317500", "135845.777500", "135846.237500", "135846.697500", "135847.157500", "135847.617500", "135848.077500", "135848.537500", "135848.997500", "135849.457500", "135849.917500", "135850.377500", "135850.837500", "135851.297500", "135851.757500", "135852.217500", "135852.677500", "135853.137500", "135853.597500", "135854.057500", "135854.517500", "135854.977500", "135855.437500", "135855.897500", "135856.357500", "135856.817500", "135857.277500", "135857.737500", "135858.197500", "135858.657500", "135859.117500", "135859.577500", "135900.037500", "135900.497500", "135900.957500", "135901.417500", "135901.877500", "135902.337500", "135902.797500", "135903.257500", "135903.717500", "135904.177500", "135904.637500", "135905.097500", "135905.557500", "135906.017500", "135906.477500", "135906.937500", "135907.397500", "135907.857500", "135908.317500", "135908.777500", "135909.237500", "135909.697500", "135910.157500", "135910.617500", "135911.077500", "135911.537500", "135911.997500", "135912.457500", "135912.917500", "135913.377500", "135913.837500", "135914.297500", "135914.757500", "135915.217500", "135915.677500", "135916.137500", "135916.597500", "135917.057500", "135917.517500", "135917.977500", "135918.437500", "135918.897500", "135919.357500", "135919.817500", "135920.277500", "135920.737500", "135921.197500", "135921.657500", "135922.117500", "135922.577500", "135923.037500", "135923.497500", "135923.957500", "135924.417500", "135924.877500", "135925.337500", "135925.797500", "135926.257500", "135926.717500", "135927.177500", "135927.637500", "135928.097500", "135928.557500", "135929.017500", "135929.477500", "135929.937500", "135930.397500", "135930.857500", "135931.317500", "135931.777500", "135932.237500", "135932.697500", "135933.157500", "135933.617500", "135934.077500", "135934.537500", "135934.997500", "135935.457500", "135935.917500", "135936.377500", "135936.837500", "135937.297500", "135937.757500", "135938.217500", "135938.677500", "135939.137500", "135939.597500", "135940.057500", "135940.517500", "135940.977500", "135941.437500", "135941.897500", "135942.357500", "135942.817500", "135943.277500", "135943.737500", "135944.197500", "135944.657500", "135945.117500", "135945.577500", "135946.037500", "135946.497500", "135946.957500", "135947.417500", "135947.877500", "135948.337500", "135948.797500", "135949.257500", "135949.717500", "135950.177500", "135950.637500", "135951.097500", "135951.557500", "135952.017500", "135952.477500", "135952.937500", "135953.397500", "135953.857500", "135954.317500", "135954.777500", "135955.237500", "135955.697500", "135956.157500", "135956.617500", "135957.077500", "135957.537500", "135957.997500", "135958.457500", "135958.917500", "135959.377500", "135959.837500", "140000.297500", "140000.757500", "140001.217500", "140001.677500", "140002.137500", "140002.597500", "140003.057500", "140003.517500", "140003.977500", "140004.437500", "140004.897500", "140005.357500", "140005.817500", "140006.277500", "140006.737500", "140007.197500", "140007.657500", "140008.117500", "140008.577500", "140009.037500", "140009.497500", "140009.957500", "140010.417500", "140010.877500", "140011.337500", "140011.797500", "140012.257500", "140012.717500", "140013.177500", "140013.637500", "140014.097500", "140014.557500", "140015.017500", "140015.477500", "140015.937500", "140016.397500", "140016.857500", "140017.317500", "140017.777500", "140018.237500", "140018.697500", "140019.157500", "140019.617500", "140020.077500", "140020.537500", "140020.997500", "140021.457500", "140021.917500", "140022.377500", "140022.837500", "140023.297500", "140023.757500", "140024.217500", "140024.677500", "140025.137500", "140025.597500", "140026.057500", "140026.517500", "140026.977500", "140027.437500", "140027.897500", "140028.357500", "140028.817500", "140029.277500", "140029.737500", "140030.197500", "140030.657500", "140031.117500", "140031.577500", "140032.037500", "140032.497500", "140032.957500", "140033.417500", "140033.877500", "140034.337500", "140034.797500", "140035.257500", "140035.717500", "140036.177500", "140036.637500", "140037.097500", "140037.557500", "140038.017500", "140038.477500", "140038.937500", "140039.397500", "140039.857500", "140040.317500", "140040.777500", "140041.237500", "140041.697500", "140042.157500", "140042.617500", "140043.077500", "140043.537500", "140043.997500", "140044.457500", "140044.917500", "140045.377500", "140045.837500", "140046.297500", "140046.757500", "140047.217500", "140047.677500", "140048.137500", "140048.597500", "140049.057500", "140049.517500", "140049.977500", "140050.437500", "140050.897500", "140051.357500", "140051.817500", "140052.277500", "140052.737500", "140053.197500", "140053.657500", "140054.117500", "140054.577500", "140055.037500", "140055.497500", "140055.957500", "140056.417500", "140056.877500", "140057.337500", "140057.797500", "140058.257500", "140058.717500", "140059.177500", "140059.637500", "140100.097500", "140100.557500", "140101.017500", "140101.477500", "140101.937500", "140102.397500", "140102.857500", "140103.317500", "140103.777500", "140104.237500", "140104.697500", "140105.157500", "140105.617500", "140106.077500", "140106.537500", "140106.997500", "140107.457500", "140107.917500", "140108.377500", "140108.837500", "140109.297500", "140109.757500", "140110.217500", "140110.677500", "140111.137500", "140111.597500", "140112.057500", "140112.517500", "140112.977500", "140113.437500", "140113.897500", "140114.357500", "140114.817500", "140115.277500", "140115.737500", "140116.197500", "140116.657500", "140117.117500", "140117.577500", "140118.037500", "140118.497500", "140118.957500", "140119.417500", "140119.877500", "140120.337500", "140120.797500", "140121.257500", "140121.717500", "140122.177500", "140122.637500", "140123.097500", "140123.557500", "140124.017500", "140124.477500", "140124.937500", "140125.397500", "140125.857500", "140126.317500", "140126.777500", "140127.237500", "140127.697500", "140128.157500", "140128.617500", "140129.077500", "140129.537500", "140129.997500", "140130.457500", "140130.917500", "140131.377500", "140131.837500", "140132.297500", "140132.757500", "140133.217500", "140133.677500", "140134.137500", "140134.597500", "140135.057500", "140135.517500", "140135.977500", "140136.437500", "140136.897500", "140137.357500", "140137.817500", "140138.277500", "140138.737500", "140139.197500", "140139.657500", "140140.117500", "140140.577500", "140141.037500", "140141.497500", "140141.957500", "140142.417500", "140142.877500", "140143.337500", "140143.797500", "140144.257500", "140144.717500", "140145.177500", "140145.637500", "140146.097500", "140146.557500", "140147.017500", "140147.477500", "140147.937500", "140148.397500", "140148.857500", "140149.317500", "140149.777500", "140150.237500", "140150.697500", "140151.157500", "140151.617500", "140152.077500", "140152.537500", "140152.997500", "140153.457500", "140153.917500", "140154.377500", "140154.837500", "140155.297500", "140155.757500", "140156.217500", "140156.677500", "140157.137500", "140157.597500", "140158.057500", "140158.517500", "140158.977500", "140159.437500", "140159.897500", "140200.357500", "140200.817500", "140201.277500", "140201.737500", "140202.197500", "140202.657500", "140203.117500", "140203.577500", "140204.037500", "140204.497500", "140204.957500", "140205.417500", "140205.877500", "140206.337500", "140206.797500", "140207.257500", "140207.717500", "140208.177500", "140208.637500", "140209.097500", "140209.557500", "140210.017500", "140210.477500", "140210.937500", "140211.397500", "140211.857500", "140212.317500", "140212.777500", "140213.237500", "140213.697500", "140214.157500", "140214.617500", "140215.077500", "140215.537500", "140215.997500", "140216.457500", "140216.917500", "140217.377500", "140217.837500", "140218.297500", "140218.757500", "140219.217500", "140219.677500", "140220.137500", "140220.597500", "140221.057500", "140221.517500", "140221.977500", "140222.437500", "140222.897500", "140223.357500", "140223.817500", "140224.277500", "140224.737500", "140225.197500", "140225.657500", "140226.117500", "140226.577500", "140227.037500", "140227.497500", "140227.957500", "140228.417500", "140228.877500", "140229.337500", "140229.797500", "140230.257500", "140230.717500", "140231.177500", "140231.637500", "140232.097500", "140232.557500", "140233.017500", "140233.477500", "140233.937500", "140234.397500", "140234.857500", "140235.317500", "140235.777500", "140236.237500", "140236.697500", "140237.157500", "140237.617500", "140238.077500", "140238.537500", "140238.997500", "140239.457500", "140239.917500", "140240.377500", "140240.837500", "140241.297500", "140241.757500", "140242.217500", "140242.677500", "140243.137500", "140243.597500", "140244.057500", "140244.517500", "140244.977500", "140245.437500", "140245.897500", "140246.357500", "140246.817500", "140247.277500", "140247.737500", "140248.197500", "140248.657500", "140249.117500", "140249.577500", "140250.037500", "140250.497500", "140250.957500", "140251.417500", "140251.877500", "140252.337500", "140252.797500", "140253.257500", "140253.717500", "140254.177500", "140254.637500", "140255.097500", "140255.557500", "140256.017500", "140256.477500", "140256.937500", "140257.397500", "140257.857500", "140258.317500", "140258.777500", "140259.237500", "140259.697500", "140300.157500", "140300.617500", "140301.077500", "140301.537500", "140301.997500", "140302.457500", "140302.917500", "140303.377500", "140303.837500", "140304.297500", "140304.757500", "140305.217500", "140305.677500", "140306.137500", "140306.597500", "140307.057500", "140307.517500", "140307.977500", "140308.437500", "140308.897500", "140309.357500", "140309.817500", "140310.277500", "140310.737500", "140311.197500", "140311.657500", "140312.117500", "140312.577500", "140313.037500", "140313.497500", "140313.957500", "140314.417500", "140314.877500", "140315.337500", "140315.797500", "140316.257500", "140316.717500", "140317.177500", "140317.637500", "140318.097500", "140318.557500", "140319.017500", "140319.477500", "140319.937500", "140320.397500", "140320.857500", "140321.317500", "140321.777500", "140322.237500", "140322.697500", "140323.157500", "140323.617500", "140324.077500", "140324.537500", "140324.997500", "140325.457500", "140325.917500", "140326.377500", "140326.837500", "140327.297500", "140327.757500", "140328.217500", "140328.677500", "140329.137500", "140329.597500", "140330.057500", "140330.517500", "140330.977500", "140331.437500", "140331.897500", "140332.357500", "140332.817500", "140333.277500", "140333.737500", "140334.197500", "140334.657500", "140335.117500", "140335.577500", "140336.037500", "140336.497500", "140336.957500", "140337.417500", "140337.877500", "140338.337500", "140338.797500", "140339.257500", "140339.717500", "140340.177500", "140340.637500", "140341.097500", "140341.557500", "140342.017500", "140342.477500", "140342.937500", "140343.397500", "140343.857500", "140344.317500", "140344.777500", "140345.237500", "140345.697500", "140346.157500", "140346.617500", "140347.077500", "140347.537500", "140347.997500", "140348.457500", "140348.917500", "140349.377500", "140349.837500", "140350.297500", "140350.757500", "140351.217500", "140351.677500", "140352.137500", "140352.597500", "140353.057500", "140353.517500", "140353.977500", "140354.437500", "140354.897500", "140355.357500", "140355.817500", "140356.277500"],
