{
  "AcquisitionMatrixPE": 82,
  "AcquisitionNumber": 1,
  "AcquisitionTime": "13:12:25.307500",
  "BandwidthPerPixelPhaseEncode": 24.888,
  "BaseResolution": 82,
  "BodyPartExamined": "BRAIN",
  "ConsistencyInfo": "N4_VE11E_LATEST_20181129",
  "ConversionSoftware": "dcm2niix",
  "ConversionSoftwareVersion": "v1.0.20201102",
  "DerivedVendorReportedEchoSpacing": 0.00049,
  "DeviceSerialNumber": "66112",
  "DwellTime": 2e-06,
  "EchoTime": 0.0272,
  "EchoTrainLength": 82,
  "EffectiveEchoSpacing": 0.00049,
  "FlipAngle": 44,
  "ImageComments": "Unaliased MB8/PE3",
  "ImageOrientationPatientDICOM": [0.999884, -0.010536, 0.0109709, 0.00802779, 0.978154, 0.207727],
  "ImageType": [
    "ORIGINAL",
    "PRIMARY",
    "M",
    "MB",
    "ND",
    "NORM",
    "MOSAIC"
],
  "ImagingFrequency": 123.252,
  "InPlanePhaseEncodingDirectionDICOM": "COL",
  "InstitutionAddress": "Maynard 3,Hanover,NH,US,03755",
  "InstitutionName": "Dartmouth College - PBS",
  "InstitutionalDepartmentName": "Department",
  "MRAcquisitionType": "2D",
  "MagneticFieldStrength": 3,
  "Manufacturer": "Siemens",
  "ManufacturersModelName": "Prisma",
  "Modality": "MR",
  "MultibandAccelerationFactor": 8,
  "PartialFourier": 1,
  "PatientPosition": "HFS",
  "PercentPhaseFOV": 100,
  "PercentSampling": 100,
  "PhaseEncodingDirection": "j-",
  "PhaseEncodingSteps": 82,
  "PhaseResolution": 1,
  "PixelBandwidth": 3050,
  "ProcedureStepDescription": "Wager_Wager^1076_spacetop",
  "ProtocolName": "func_run-02_task-social_acq-ap-mb8",
  "PulseSequenceDetails": "%CustomerSeq%\\cmrr_mbep2d_bold",
  "ReceiveCoilActiveElements": "HEA;HEP",
  "ReceiveCoilName": "Head_32",
  "ReconMatrixPE": 82,
  "RepetitionTime": 0.46,
  "SAR": 0.106268,
  "ScanOptions": "FS",
  "ScanningSequence": "EP",
  "SequenceName": "epfid2d1_82",
  "SequenceVariant": "SK\\SS",
  "SeriesDescription": "func_run-02_task-social_acq-ap-mb8",
  "SeriesNumber": 14,
  "ShimSetting": [4125, -7778, -7260, 629, -107, -325, 14, 85],
  "SliceThickness": 2.7,
  "SliceTiming": [0, 0.2525, 0.0625, 0.315, 0.1275, 0.3775, 0.19, 0, 0.2525, 0.0625, 0.315, 0.1275, 0.3775, 0.19, 0, 0.2525, 0.0625, 0.315, 0.1275, 0.3775, 0.19, 0, 0.2525, 0.0625, 0.315, 0.1275, 0.3775, 0.19, 0, 0.2525, 0.0625, 0.315, 0.1275, 0.3775, 0.19, 0, 0.2525, 0.0625, 0.315, 0.1275, 0.3775, 0.19, 0, 0.2525, 0.0625, 0.315, 0.1275, 0.3775, 0.19, 0, 0.2525, 0.0625, 0.315, 0.1275, 0.3775, 0.19],
  "SoftwareVersions": "syngo MR E11",
  "SpacingBetweenSlices": 2.7,
  "StationName": "AWP66112",
  "TaskName": "social",
  "TotalReadoutTime": 0.03969,
  "TxRefAmp": 231.232,
  "WipMemBlock": "3a7e9990-81de-44ff-9978-eae05d7b850a||Sequence: R016 ve11e/master r/434b28f1; Aug  7 2019 18:53:46 by eja",
  "dcmmeta_affine": [
    [-2.6826164722442627, 0.021537980064749718, 0.03488349914550781, 113.056396484375],
    [0.028267253190279007, 2.6243157386779785, 0.5605589747428894, -102.71626281738281],
    [0.029434073716402054, -0.5573151111602783, 2.6409385204315186, -45.00347137451172],
    [0.0, 0.0, 0.0, 1.0]
],
  "dcmmeta_reorient_transform": [
    [0.0, -1.0, 0.0, 81.0],
    [1.0, 0.0, 0.0, 0.0],
    [0.0, 0.0, 1.0, 0.0],
    [0.0, 0.0, 0.0, 1.0]
],
  "dcmmeta_shape": [82, 82, 56, 872],
  "dcmmeta_slice_dim": 2,
  "dcmmeta_version": 0.6,
  "global": {
    "const": {
      "AccessionNumber": "A004220",
      "AcquisitionMatrix": [82, 0, 0, 82],
      "AngioFlag": "N",
      "BitsAllocated": 16,
      "BitsStored": 16,
      "BodyPartExamined": "BRAIN",
      "Columns": 656,
      "EchoNumbers": 1,
      "EchoTime": 27.2,
      "EchoTrainLength": 82,
      "FlipAngle": 44.0,
      "HighBit": 15,
      "ImageOrientationPatient": [0.99988430978541, -0.0105359760975, 0.01097088203547, 0.00802779249306, 0.97815399568388, 0.20772653965094],
      "ImagePositionPatient": [-890.89330946518, -854.9192017486, -258.5430148473],
      "ImageType": [
        "ORIGINAL",
        "PRIMARY",
        "M",
        "MB",
        "ND",
        "NORM",
        "MOSAIC"
],
      "ImagedNucleus": "1H",
      "ImagingFrequency": 123.252175,
      "InPlanePhaseEncodingDirection": "COL",
      "MRAcquisitionType": "2D",
      "MagneticFieldStrength": 3.0,
      "Manufacturer": "SIEMENS",
      "ManufacturerModelName": "Prisma",
      "Modality": "MR",
      "NumberOfAverages": 1.0,
      "NumberOfPhaseEncodingSteps": 82,
      "PercentPhaseFieldOfView": 100.0,
      "PercentSampling": 100.0,
      "PerformedProcedureStepStartTime": "123637.775000",
      "PhotometricInterpretation": "MONOCHROME2",
      "PixelBandwidth": 3050.0,
      "PixelRepresentation": 0,
      "PixelSpacing": [2.6829268932343, 2.6829268932343],
      "ProtocolName": "func_run-02_task-social_acq-ap-mb8",
      "RepetitionTime": 460.0,
      "Rows": 656,
      "SAR": 0.10626766824475,
      "SamplesPerPixel": 1,
      "ScanOptions": "FS",
      "ScanningSequence": "EP",
      "SequenceName": "epfid2d1_82",
      "SequenceVariant": [
        "SK",
        "SS"
],
      "SeriesDescription": "func_run-02_task-social_acq-ap-mb8",
      "SeriesNumber": 14,
      "SeriesTime": "131247.719000",
      "SliceLocation": -63.883749793901,
      "SliceThickness": 2.7000000476837,
      "SmallestImagePixelValue": 0,
      "SoftwareVersions": "syngo MR E11",
      "SpacingBetweenSlices": 2.7000000171431,
      "SpecificCharacterSet": "ISO_IR 100",
      "StudyID": "1",
      "StudyTime": "123637.687000",
      "TransmitCoilName": "Body",
      "VariableFlipAngleFlag": "N",
      "WindowCenterWidthExplanation": "Algo1"
    },
    "slices": {}
  },
  "time": {
    "samples": {
      "AcquisitionNumber": [1, 2, 3, 4, 5, 6, 7, 8, 9, 10, 11, 12, 13, 14, 15, 16, 17, 18, 19, 20, 21, 22, 23, 24, 25, 26, 27, 28, 29, 30, 31, 32, 33, 34, 35, 36, 37, 38, 39, 40, 41, 42, 43, 44, 45, 46, 47, 48, 49, 50, 51, 52, 53, 54, 55, 56, 57, 58, 59, 60, 61, 62, 63, 64, 65, 66, 67, 68, 69, 70, 71, 72, 73, 74, 75, 76, 77, 78, 79, 80, 81, 82, 83, 84, 85, 86, 87, 88, 89, 90, 91, 92, 93, 94, 95, 96, 97, 98, 99, 100, 101, 102, 103, 104, 105, 106, 107, 108, 109, 110, 111, 112, 113, 114, 115, 116, 117, 118, 119, 120, 121, 122, 123, 124, 125, 126, 127, 128, 129, 130, 131, 132, 133, 134, 135, 136, 137, 138, 139, 140, 141, 142, 143, 144, 145, 146, 147, 148, 149, 150, 151, 152, 153, 154, 155, 156, 157, 158, 159, 160, 161, 162, 163, 164, 165, 166, 167, 168, 169, 170, 171, 172, 173, 174, 175, 176, 177, 178, 179, 180, 181, 182, 183, 184, 185, 186, 187, 188, 189, 190, 191, 192, 193, 194, 195, 196, 197, 198, 199, 200, 201, 202, 203, 204, 205, 206, 207, 208, 209, 210, 211, 212, 213, 214, 215, 216, 217, 218, 219, 220, 221, 222, 223, 224, 225, 226, 227, 228, 229, 230, 231, 232, 233, 234, 235, 236, 237, 238, 239, 240, 241, 242, 243, 244, 245, 246, 247, 248, 249, 250, 251, 252, 253, 254, 255, 256, 257, 258, 259, 260, 261, 262, 263, 264, 265, 266, 267, 268, 269, 270, 271, 272, 273, 274, 275, 276, 277, 278, 279, 280, 281, 282, 283, 284, 285, 286, 287, 288, 289, 290, 291, 292, 293, 294, 295, 296, 297, 298, 299, 300, 301, 302, 303, 304, 305, 306, 307, 308, 309, 310, 311, 312, 313, 314, 315, 316, 317, 318, 319, 320, 321, 322, 323, 324, 325, 326, 327, 328, 329, 330, 331, 332, 333, 334, 335, 336, 337, 338, 339, 340, 341, 342, 343, 344, 345, 346, 347, 348, 349, 350, 351, 352, 353, 354, 355, 356, 357, 358, 359, 360, 361, 362, 363, 364, 365, 366, 367, 368, 369, 370, 371, 372, 373, 374, 375, 376, 377, 378, 379, 380, 381, 382, 383, 384, 385, 386, 387, 388, 389, 390, 391, 392, 393, 394, 395, 396, 397, 398, 399, 400, 401, 402, 403, 404, 405, 406, 407, 408, 409, 410, 411, 412, 413, 414, 415, 416, 417, 418, 419, 420, 421, 422, 423, 424, 425, 426, 427, 428, 429, 430, 431, 432, 433, 434, 435, 436, 437, 438, 439, 440, 441, 442, 443, 444, 445, 446, 447, 448, 449, 450, 451, 452, 453, 454, 455, 456, 457, 458, 459, 460, 461, 462, 463, 464, 465, 466, 467, 468, 469, 470, 471, 472, 473, 474, 475, 476, 477, 478, 479, 480, 481, 482, 483, 484, 485, 486, 487, 488, 489, 490, 491, 492, 493, 494, 495, 496, 497, 498, 499, 500, 501, 502, 503, 504, 505, 506, 507, 508, 509, 510, 511, 512, 513, 514, 515, 516, 517, 518, 519, 520, 521, 522, 523, 524, 525, 526, 527, 528, 529, 530, 531, 532, 533, 534, 535, 536, 537, 538, 539, 540, 541, 542, 543, 544, 545, 546, 547, 548, 549, 550, 551, 552, 553, 554, 555, 556, 557, 558, 559, 560, 561, 562, 563, 564, 565, 566, 567, 568, 569, 570, 571, 572, 573, 574, 575, 576, 577, 578, 579, 580, 581, 582, 583, 584, 585, 586, 587, 588, 589, 590, 591, 592, 593, 594, 595, 596, 597, 598, 599, 600, 601, 602, 603, 604, 605, 606, 607, 608, 609, 610, 611, 612, 613, 614, 615, 616, 617, 618, 619, 620, 621, 622, 623, 624, 625, 626, 627, 628, 629, 630, 631, 632, 633, 634, 635, 636, 637, 638, 639, 640, 641, 642, 643, 644, 645, 646, 647, 648, 649, 650, 651, 652, 653, 654, 655, 656, 657, 658, 659, 660, 661, 662, 663, 664, 665, 666, 667, 668, 669, 670, 671, 672, 673, 674, 675, 676, 677, 678, 679, 680, 681, 682, 683, 684, 685, 686, 687, 688, 689, 690, 691, 692, 693, 694, 695, 696, 697, 698, 699, 700, 701, 702, 703, 704, 705, 706, 707, 708, 709, 710, 711, 712, 713, 714, 715, 716, 717, 718, 719, 720, 721, 722, 723, 724, 725, 726, 727, 728, 729, 730, 731, 732, 733, 734, 735, 736, 737, 738, 739, 740, 741, 742, 743, 744, 745, 746, 747, 748, 749, 750, 751, 752, 753, 754, 755, 756, 757, 758, 759, 760, 761, 762, 763, 764, 765, 766, 767, 768, 769, 770, 771, 772, 773, 774, 775, 776, 777, 778, 779, 780, 781, 782, 783, 784, 785, 786, 787, 788, 789, 790, 791, 792, 793, 794, 795, 796, 797, 798, 799, 800, 801, 802, 803, 804, 805, 806, 807, 808, 809, 810, 811, 812, 813, 814, 815, 816, 817, 818, 819, 820, 821, 822, 823, 824, 825, 826, 827, 828, 829, 830, 831, 832, 833, 834, 835, 836, 837, 838, 839, 840, 841, 842, 843, 844, 845, 846, 847, 848, 849, 850, 851, 852, 853, 854, 855, 856, 857, 858, 859, 860, 861, 862, 863, 864, 865, 866, 867, 868, 869, 870, 871, 872],
      "AcquisitionTime": ["131225.307500", "131225.767500", "131226.227500", "131226.687500", "131227.147500", "131227.607500", "131228.067500", "131228.527500", "131228.987500", "131229.447500", "131229.907500", "131230.367500", "131230.827500", "131231.287500", "131231.747500", "131232.207500", "131232.667500", "131233.127500", "131233.587500", "131234.047500", "131234.507500", "131234.967500", "131235.427500", "131235.887500", "131236.347500", "131236.807500", "131237.267500", "131237.727500", "131238.187500", "131238.647500", "131239.107500", "131239.567500", "131240.027500", "131240.487500", "131240.947500", "131241.407500", "131241.867500", "131242.327500", "131242.787500", "131243.247500", "131243.707500", "131244.167500", "131244.627500", "131245.087500", "131245.547500", "131246.007500", "131246.467500", "131246.927500", "131247.387500", "131247.847500", "131248.307500", "131248.767500", "131249.227500", "131249.687500", "131250.147500", "131250.607500", "131251.067500", "131251.527500", "131251.987500", "131252.447500", "131252.907500", "131253.367500", "131253.827500", "131254.287500", "131254.747500", "131255.207500", "131255.667500", "131256.127500", "131256.587500", "131257.047500", "131257.507500", "131257.967500", "131258.427500", "131258.887500", "131259.347500", "131259.807500", "131300.267500", "131300.727500", "131301.187500", "131301.647500", "131302.107500", "131302.567500", "131303.027500", "131303.487500", "131303.947500", "131304.407500", "131304.867500", "131305.327500", "131305.787500", "131306.247500", "131306.707500", "131307.167500", "131307.627500", "131308.087500", "131308.547500", "131309.007500", "131309.467500", "131309.927500", "131310.387500", "131310.847500", "131311.307500", "131311.767500", "131312.227500", "131312.687500", "131313.147500", "131313.607500", "131314.067500", "131314.527500", "131314.987500", "131315.447500", "131315.907500", "131316.367500", "131316.827500", "131317.287500", "131317.747500", "131318.207500", "131318.667500", "131319.127500", "131319.587500", "131320.047500", "131320.507500", "131320.967500", "131321.427500", "131321.887500", "131322.347500", "131322.807500", "131323.267500", "131323.727500", "131324.187500", "131324.647500", "131325.107500", "131325.567500", "131326.027500", "131326.487500", "131326.947500", "131327.407500", "131327.867500", "131328.327500", "131328.787500", "131329.247500", "131329.707500", "131330.167500", "131330.627500", "131331.087500", "131331.547500", "131332.007500", "131332.467500", "131332.927500", "131333.387500", "131333.847500", "131334.307500", "131334.767500", "131335.227500", "131335.687500", "131336.147500", "131336.607500", "131337.067500", "131337.527500", "131337.987500", "131338.447500", "131338.907500", "131339.367500", "131339.827500", "131340.287500", "131340.747500", "131341.207500", "131341.667500", "131342.127500", "131342.587500", "131343.047500", "131343.507500", "131343.967500", "131344.427500", "131344.887500", "131345.347500", "131345.807500", "131346.267500", "131346.727500", "131347.187500", "131347.647500", "131348.107500", "131348.567500", "131349.027500", "131349.487500", "131349.947500", "131350.407500", "131350.867500", "131351.327500", "131351.787500", "131352.247500", "131352.707500", "131353.167500", "131353.627500", "131354.087500", "131354.547500", "131355.007500", "131355.467500", "131355.927500", "131356.387500", "131356.847500", "131357.307500", "131357.767500", "131358.227500", "131358.687500", "131359.147500", "131359.607500", "131400.067500", "131400.527500", "131400.987500", "131401.447500", "131401.907500", "131402.367500", "131402.827500", "131403.287500", "131403.747500", "131404.207500", "131404.667500", "131405.127500", "131405.587500", "131406.047500", "131406.507500", "131406.967500", "131407.427500", "131407.887500", "131408.347500", "131408.807500", "131409.267500", "131409.727500", "131410.187500", "131410.647500", "131411.107500", "131411.567500", "131412.027500", "131412.487500", "131412.947500", "131413.407500", "131413.867500", "131414.327500", "131414.787500", "131415.247500", "131415.707500", "131416.167500", "131416.627500", "131417.087500", "131417.547500", "131418.007500", "131418.467500", "131418.927500", "131419.387500", "131419.847500", "131420.307500", "131420.767500", "131421.227500", "131421.687500", "131422.147500", "131422.607500", "131423.067500", "131423.527500", "131423.987500", "131424.447500", "131424.907500", "131425.367500", "131425.827500", "131426.287500", "131426.747500", "131427.207500", "131427.667500", "131428.127500", "131428.587500", "131429.047500", "131429.507500", "131429.967500", "131430.427500", "131430.887500", "131431.347500", "131431.807500", "131432.267500", "131432.727500", "131433.187500", "131433.647500", "131434.107500", "131434.567500", "131435.027500", "131435.487500", "131435.947500", "131436.407500", "131436.867500", "131437.327500", "131437.787500", "131438.247500", "131438.707500", "131439.167500", "131439.627500", "131440.087500", "131440.547500", "131441.007500", "131441.467500", "131441.927500", "131442.387500", "131442.847500", "131443.307500", "131443.767500", "131444.227500", "131444.687500", "131445.147500", "131445.607500", "131446.067500", "131446.527500", "131446.987500", "131447.447500", "131447.907500", "131448.367500", "131448.827500", "131449.287500", "131449.747500", "131450.207500", "131450.667500", "131451.127500", "131451.587500", "131452.047500", "131452.507500", "131452.967500", "131453.427500", "131453.887500", "131454.347500", "131454.807500", "131455.267500", "131455.727500", "131456.187500", "131456.647500", "131457.107500", "131457.567500", "131458.027500", "131458.487500", "131458.947500", "131459.407500", "131459.867500", "131500.327500", "131500.787500", "131501.247500", "131501.707500", "131502.167500", "131502.627500", "131503.087500", "131503.547500", "131504.007500", "131504.467500", "131504.927500", "131505.387500", "131505.847500", "131506.307500", "131506.767500", "131507.227500", "131507.687500", "131508.147500", "131508.607500", "131509.067500", "131509.527500", "131509.987500", "131510.447500", "131510.907500", "131511.367500", "131511.827500", "131512.287500", "131512.747500", "131513.207500", "131513.667500", "131514.127500", "131514.587500", "131515.047500", "131515.507500", "131515.967500", "131516.427500", "131516.887500", "131517.347500", "131517.807500", "131518.267500", "131518.727500", "131519.187500", "131519.647500", "131520.107500", "131520.567500", "131521.027500", "131521.487500", "131521.947500", "131522.407500", "131522.867500", "131523.327500", "131523.787500", "131524.247500", "131524.707500", "131525.167500", "131525.627500", "131526.087500", "131526.547500", "131527.007500", "131527.467500", "131527.927500", "131528.387500", "131528.847500", "131529.307500", "131529.767500", "131530.227500", "131530.687500", "131531.147500", "131531.607500", "131532.067500", "131532.527500", "131532.987500", "131533.447500", "131533.907500", "131534.367500", "131534.827500", "131535.287500", "131535.747500", "131536.207500", "131536.667500", "131537.127500", "131537.587500", "131538.047500", "131538.507500", "131538.967500", "131539.427500", "131539.887500", "131540.347500", "131540.807500", "131541.267500", "131541.727500", "131542.187500", "131542.647500", "131543.107500", "131543.567500", "131544.027500", "131544.487500", "131544.947500", "131545.407500", "131545.867500", "131546.327500", "131546.787500", "131547.247500", "131547.707500", "131548.167500", "131548.627500", "131549.087500", "131549.547500", "131550.007500", "131550.467500", "131550.927500", "131551.387500", "131551.847500", "131552.307500", "131552.767500", "131553.227500", "131553.687500", "131554.147500", "131554.607500", "131555.067500", "131555.527500", "131555.987500", "131556.447500", "131556.907500", "131557.367500", "131557.827500", "131558.287500", "131558.747500", "131559.207500", "131559.667500", "131600.127500", "131600.587500", "131601.047500", "131601.507500", "131601.967500", "131602.427500", "131602.887500", "131603.347500", "131603.807500", "131604.267500", "131604.727500", "131605.187500", "131605.647500", "131606.107500", "131606.567500", "131607.027500", "131607.487500", "131607.947500", "131608.407500", "131608.867500", "131609.327500", "131609.787500", "131610.247500", "131610.707500", "131611.167500", "131611.627500", "131612.087500", "131612.547500", "131613.007500", "131613.467500", "131613.927500", "131614.387500", "131614.847500", "131615.307500", "131615.767500", "131616.227500", "131616.687500", "131617.147500", "131617.607500", "131618.067500", "131618.527500", "131618.987500", "131619.447500", "131619.907500", "131620.367500", "131620.827500", "131621.287500", "131621.747500", "131622.207500", "131622.667500", "131623.127500", "131623.587500", "131624.047500", "131624.507500", "131624.967500", "131625.427500", "131625.887500", "131626.347500", "131626.807500", "131627.267500", "131627.727500", "131628.187500", "131628.647500", "131629.107500", "131629.567500", "131630.027500", "131630.487500", "131630.947500", "131631.407500", "131631.867500", "131632.327500", "131632.787500", "131633.247500", "131633.707500", "131634.167500", "131634.627500", "131635.087500", "131635.547500", "131636.007500", "131636.467500", "131636.927500", "131637.387500", "131637.847500", "131638.307500", "131638.767500", "131639.227500", "131639.687500", "131640.147500", "131640.607500", "131641.067500", "131641.527500", "131641.987500", "131642.447500", "131642.907500", "131643.367500", "131643.827500", "131644.287500", "131644.747500", "131645.207500", "131645.667500", "131646.127500", "131646.587500", "131647.047500", "131647.507500", "131647.967500", "131648.427500", "131648.887500", "131649.347500", "131649.807500", "131650.267500", "131650.727500", "131651.187500", "131651.647500", "131652.107500", "131652.567500", "131653.027500", "131653.487500", "131653.947500", "131654.407500", "131654.867500", "131655.327500", "131655.787500", "131656.247500", "131656.707500", "131657.167500", "131657.627500", "131658.087500", "131658.547500", "131659.007500", "131659.467500", "131659.927500", "131700.387500", "131700.847500", "131701.307500", "131701.767500", "131702.227500", "131702.687500", "131703.147500", "131703.607500", "131704.067500", "131704.527500", "131704.987500", "131705.447500", "131705.907500", "131706.367500", "131706.827500", "131707.287500", "131707.747500", "131708.207500", "131708.667500", "131709.127500", "131709.587500", "131710.047500", "131710.507500", "131710.967500", "131711.427500", "131711.887500", "131712.347500", "131712.807500", "131713.267500", "131713.727500", "131714.187500", "131714.647500", "131715.107500", "131715.567500", "131716.027500", "131716.487500", "131716.947500", "131717.407500", "131717.867500", "131718.327500", "131718.787500", "131719.247500", "131719.707500", "131720.167500", "131720.627500", "131721.087500", "131721.547500", "131722.007500", "131722.467500", "131722.927500", "131723.387500", "131723.847500", "131724.307500", "131724.767500", "131725.227500", "131725.687500", "131726.147500", "131726.607500", "131727.067500", "131727.527500", "131727.987500", "131728.447500", "131728.907500", "131729.367500", "131729.827500", "131730.287500", "131730.747500", "131731.207500", "131731.667500", "131732.127500", "131732.587500", "131733.047500", "131733.507500", "131733.967500", "131734.427500", "131734.887500", "131735.347500", "131735.807500", "131736.267500", "131736.727500", "131737.187500", "131737.647500", "131738.107500", "131738.567500", "131739.027500", "131739.487500", "131739.947500", "131740.407500", "131740.867500", "131741.327500", "131741.787500", "131742.247500", "131742.707500", "131743.167500", "131743.627500", "131744.087500", "131744.547500", "131745.007500", "131745.467500", "131745.927500", "131746.387500", "131746.847500", "131747.307500", "131747.767500", "131748.227500", "131748.687500", "131749.147500", "131749.607500", "131750.067500", "131750.527500", "131750.987500", "131751.447500", "131751.907500", "131752.367500", "131752.827500", "131753.287500", "131753.747500", "131754.207500", "131754.667500", "131755.127500", "131755.587500", "131756.047500", "131756.507500", "131756.967500", "131757.427500", "131757.887500", "131758.347500", "131758.807500", "131759.267500", "131759.727500", "131800.187500", "131800.647500", "131801.107500", "131801.567500", "131802.027500", "131802.487500", "131802.947500", "131803.407500", "131803.867500", "131804.327500", "131804.787500", "131805.247500", "131805.707500", "131806.167500", "131806.627500", "131807.087500", "131807.547500", "131808.007500", "131808.467500", "131808.927500", "131809.387500", "131809.847500", "131810.307500", "131810.767500", "131811.227500", "131811.687500", "131812.147500", "131812.607500", "131813.067500", "131813.527500", "131813.987500", "131814.447500", "131814.907500", "131815.367500", "131815.827500", "131816.287500", "131816.747500", "131817.207500", "131817.667500", "131818.127500", "131818.587500", "131819.047500", "131819.507500", "131819.967500", "131820.427500", "131820.887500", "131821.347500", "131821.807500", "131822.267500", "131822.727500", "131823.187500", "131823.647500", "131824.107500", "131824.567500", "131825.027500", "131825.487500", "131825.947500", "131826.407500", "131826.867500", "131827.327500", "131827.787500", "131828.247500", "131828.707500", "131829.167500", "131829.627500", "131830.087500", "131830.547500", "131831.007500", "131831.467500", "131831.927500", "131832.387500", "131832.847500", "131833.307500", "131833.767500", "131834.227500", "131834.687500", "131835.147500", "131835.607500", "131836.067500", "131836.527500", "131836.987500", "131837.447500", "131837.907500", "131838.367500", "131838.827500", "131839.287500", "131839.747500", "131840.207500", "131840.667500", "131841.127500", "131841.587500", "131842.047500", "131842.507500", "131842.967500", "131843.427500", "131843.887500", "131844.347500", "131844.807500", "131845.267500", "131845.727500", "131846.187500", "131846.647500", "131847.107500", "131847.567500", "131848.027500", "131848.487500", "131848.947500", "131849.407500", "131849.867500", "131850.327500", "131850.787500", "131851.247500", "131851.707500", "131852.167500", "131852.627500", "131853.087500", "131853.547500", "131854.007500", "131854.467500", "131854.927500", "131855.387500", "131855.847500", "131856.307500", "131856.767500", "131857.227500", "131857.687500", "131858.147500", "131858.607500", "131859.067500", "131859.527500", "131859.987500", "131900.447500", "131900.907500", "131901.367500", "131901.827500", "131902.287500", "131902.747500", "131903.207500", "131903.667500", "131904.127500", "131904.587500", "131905.047500", "131905.507500", "131905.967500"],
