{
  "AcquisitionMatrixPE": 82,
  "AcquisitionNumber": 1,
  "AcquisitionTime": "15:51:32.937500",
  "BandwidthPerPixelPhaseEncode": 24.888,
  "BaseResolution": 82,
  "BodyPartExamined": "BRAIN",
  "ConsistencyInfo": "N4_VE11C_LATEST_20160120",
  "ConversionSoftware": "dcm2niix",
  "ConversionSoftwareVersion": "v1.0.20201102",
  "DerivedVendorReportedEchoSpacing": 0.00049,
  "DeviceSerialNumber": "66112",
  "DwellTime": 2e-06,
  "EchoTime": 0.0272,
  "EchoTrainLength": 82,
  "EffectiveEchoSpacing": 0.00049,
  "FlipAngle": 44,
  "ImageComments": "Unaliased MB8/PE3",
  "ImageOrientationPatientDICOM": [0.999622, -0.023906, 0.0135865, 0.0218118, 0.99025, 0.137585],
  "ImageType": [
    "ORIGINAL",
    "PRIMARY",
    "M",
    "MB",
    "ND",
    "NORM",
    "MOSAIC"
],
  "ImagingFrequency": 123.252,
  "InPlanePhaseEncodingDirectionDICOM": "COL",
  "InstitutionAddress": "Maynard 3,Hanover,NH,US,03755",
  "InstitutionName": "Dartmouth College - PBS",
  "InstitutionalDepartmentName": "Department",
  "MRAcquisitionType": "2D",
  "MagneticFieldStrength": 3,
  "Manufacturer": "Siemens",
  "ManufacturersModelName": "Prisma",
  "Modality": "MR",
  "MultibandAccelerationFactor": 8,
  "PartialFourier": 1,
  "PatientPosition": "HFS",
  "PercentPhaseFOV": 100,
  "PercentSampling": 100,
  "PhaseEncodingDirection": "j-",
  "PhaseEncodingSteps": 82,
  "PhaseResolution": 1,
  "PixelBandwidth": 3050,
  "ProcedureStepDescription": "Wager_Wager^1076_spacetop",
  "ProtocolName": "func_run-01_task-faces_acq-ap-mb8",
  "PulseSequenceDetails": "%CustomerSeq%\\cmrr_mbep2d_bold",
  "ReceiveCoilActiveElements": "HEA;HEP",
  "ReceiveCoilName": "Head_32",
  "ReconMatrixPE": 82,
  "RepetitionTime": 0.46,
  "SAR": 0.0885718,
  "ScanOptions": "FS",
  "ScanningSequence": "EP",
  "SequenceName": "epfid2d1_82",
  "SequenceVariant": "SK\\SS",
  "SeriesDescription": "func_run-01_task-faces_acq-ap-mb8",
  "SeriesNumber": 16,
  "ShimSetting": [4150, -7784, -7229, 560, -89, -215, 72, 61],
  "SliceThickness": 2.7,
  "SliceTiming": [0, 0.25, 0.0625, 0.3125, 0.125, 0.3775, 0.1875, 0, 0.25, 0.0625, 0.3125, 0.125, 0.3775, 0.1875, 0, 0.25, 0.0625, 0.3125, 0.125, 0.3775, 0.1875, 0, 0.25, 0.0625, 0.3125, 0.125, 0.3775, 0.1875, 0, 0.25, 0.0625, 0.3125, 0.125, 0.3775, 0.1875, 0, 0.25, 0.0625, 0.3125, 0.125, 0.3775, 0.1875, 0, 0.25, 0.0625, 0.3125, 0.125, 0.3775, 0.1875, 0, 0.25, 0.0625, 0.3125, 0.125, 0.3775, 0.1875],
  "SoftwareVersions": "syngo MR E11",
  "SpacingBetweenSlices": 2.7,
  "StationName": "AWP66112",
  "TaskName": "faces",
  "TotalReadoutTime": 0.03969,
  "TxRefAmp": 250.856,
  "WipMemBlock": "d118bf96-5a34-4ea1-8521-b54a48b78af7||Sequence: R016 ve11c/master r/e634e98; Dec 19 2017 11:00:25 by eja",
  "dcmmeta_affine": [
    [-2.681912422180176, 0.05851955711841583, 0.045206472277641296, 107.15828704833984],
    [0.06413798779249191, 2.6567676067352295, 0.3705391585826874, -97.83098602294922],
    [0.03645159676671028, -0.3691307306289673, 2.6740713119506836, -55.41724395751953],
    [0.0, 0.0, 0.0, 1.0]
],
  "dcmmeta_reorient_transform": [
    [0.0, -1.0, 0.0, 81.0],
    [1.0, 0.0, 0.0, 0.0],
    [0.0, 0.0, 1.0, 0.0],
    [0.0, 0.0, 0.0, 1.0]
],
  "dcmmeta_shape": [82, 82, 56, 914],
  "dcmmeta_slice_dim": 2,
  "dcmmeta_version": 0.6,
  "global": {
    "const": {
      "AccessionNumber": "A003827",
      "AcquisitionMatrix": [82, 0, 0, 82],
      "AngioFlag": "N",
      "BitsAllocated": 16,
      "BitsStored": 16,
      "BodyPartExamined": "BRAIN",
      "Columns": 656,
      "EchoNumbers": 1,
      "EchoTime": 27.2,
      "EchoTrainLength": 82,
      "FlipAngle": 44.0,
      "HighBit": 15,
      "ImageOrientationPatient": [0.99962188411552, -0.0239059763235, 0.01358650408894, 0.02181183429509, 0.99024975959653, 0.1375850918657],
      "ImagePositionPatient": [-898.40235580133, -861.45193031514, -201.71896537546],
      "ImageType": [
        "ORIGINAL",
        "PRIMARY",
        "M",
        "MB",
        "ND",
        "NORM",
        "MOSAIC"
],
      "ImagedNucleus": "1H",
      "ImagingFrequency": 123.252194,
      "InPlanePhaseEncodingDirection": "COL",
      "MRAcquisitionType": "2D",
      "MagneticFieldStrength": 3.0,
      "Manufacturer": "SIEMENS",
      "ManufacturerModelName": "Prisma",
      "Modality": "MR",
      "NumberOfAverages": 1.0,
      "NumberOfPhaseEncodingSteps": 82,
      "PercentPhaseFieldOfView": 100.0,
      "PercentSampling": 100.0,
      "PerformedProcedureStepStartTime": "150351.860000",
      "PhotometricInterpretation": "MONOCHROME2",
      "PixelBandwidth": 3050.0,
      "PixelRepresentation": 0,
      "PixelSpacing": [2.6829268932343, 2.6829268932343],
      "ProtocolName": "func_run-01_task-faces_acq-ap-mb8",
      "RepetitionTime": 460.0,
      "Rows": 656,
      "SAR": 0.08857182038025,
      "SamplesPerPixel": 1,
      "ScanOptions": "FS",
      "ScanningSequence": "EP",
      "SequenceName": "epfid2d1_82",
      "SequenceVariant": [
        "SK",
        "SS"
],
      "SeriesDescription": "func_run-01_task-faces_acq-ap-mb8",
      "SeriesNumber": 16,
      "SeriesTime": "155201.219000",
      "SliceLocation": -66.516896294038,
      "SliceThickness": 2.7000000476837,
      "SmallestImagePixelValue": 0,
      "SoftwareVersions": "syngo MR E11",
      "SpacingBetweenSlices": 2.7000000317927,
      "SpecificCharacterSet": "ISO_IR 100",
      "StudyID": "1",
      "StudyTime": "150351.801000",
      "TransmitCoilName": "Body",
      "VariableFlipAngleFlag": "N",
      "WindowCenterWidthExplanation": "Algo1",
      "dBdt": 0.0},
    "slices": {}
  },
  "time": {
    "samples": {
      "AcquisitionNumber": [1, 2, 3, 4, 5, 6, 7, 8, 9, 10, 11, 12, 13, 14, 15, 16, 17, 18, 19, 20, 21, 22, 23, 24, 25, 26, 27, 28, 29, 30, 31, 32, 33, 34, 35, 36, 37, 38, 39, 40, 41, 42, 43, 44, 45, 46, 47, 48, 49, 50, 51, 52, 53, 54, 55, 56, 57, 58, 59, 60, 61, 62, 63, 64, 65, 66, 67, 68, 69, 70, 71, 72, 73, 74, 75, 76, 77, 78, 79, 80, 81, 82, 83, 84, 85, 86, 87, 88, 89, 90, 91, 92, 93, 94, 95, 96, 97, 98, 99, 100, 101, 102, 103, 104, 105, 106, 107, 108, 109, 110, 111, 112, 113, 114, 115, 116, 117, 118, 119, 120, 121, 122, 123, 124, 125, 126, 127, 128, 129, 130, 131, 132, 133, 134, 135, 136, 137, 138, 139, 140, 141, 142, 143, 144, 145, 146, 147, 148, 149, 150, 151, 152, 153, 154, 155, 156, 157, 158, 159, 160, 161, 162, 163, 164, 165, 166, 167, 168, 169, 170, 171, 172, 173, 174, 175, 176, 177, 178, 179, 180, 181, 182, 183, 184, 185, 186, 187, 188, 189, 190, 191, 192, 193, 194, 195, 196, 197, 198, 199, 200, 201, 202, 203, 204, 205, 206, 207, 208, 209, 210, 211, 212, 213, 214, 215, 216, 217, 218, 219, 220, 221, 222, 223, 224, 225, 226, 227, 228, 229, 230, 231, 232, 233, 234, 235, 236, 237, 238, 239, 240, 241, 242, 243, 244, 245, 246, 247, 248, 249, 250, 251, 252, 253, 254, 255, 256, 257, 258, 259, 260, 261, 262, 263, 264, 265, 266, 267, 268, 269, 270, 271, 272, 273, 274, 275, 276, 277, 278, 279, 280, 281, 282, 283, 284, 285, 286, 287, 288, 289, 290, 291, 292, 293, 294, 295, 296, 297, 298, 299, 300, 301, 302, 303, 304, 305, 306, 307, 308, 309, 310, 311, 312, 313, 314, 315, 316, 317, 318, 319, 320, 321, 322, 323, 324, 325, 326, 327, 328, 329, 330, 331, 332, 333, 334, 335, 336, 337, 338, 339, 340, 341, 342, 343, 344, 345, 346, 347, 348, 349, 350, 351, 352, 353, 354, 355, 356, 357, 358, 359, 360, 361, 362, 363, 364, 365, 366, 367, 368, 369, 370, 371, 372, 373, 374, 375, 376, 377, 378, 379, 380, 381, 382, 383, 384, 385, 386, 387, 388, 389, 390, 391, 392, 393, 394, 395, 396, 397, 398, 399, 400, 401, 402, 403, 404, 405, 406, 407, 408, 409, 410, 411, 412, 413, 414, 415, 416, 417, 418, 419, 420, 421, 422, 423, 424, 425, 426, 427, 428, 429, 430, 431, 432, 433, 434, 435, 436, 437, 438, 439, 440, 441, 442, 443, 444, 445, 446, 447, 448, 449, 450, 451, 452, 453, 454, 455, 456, 457, 458, 459, 460, 461, 462, 463, 464, 465, 466, 467, 468, 469, 470, 471, 472, 473, 474, 475, 476, 477, 478, 479, 480, 481, 482, 483, 484, 485, 486, 487, 488, 489, 490, 491, 492, 493, 494, 495, 496, 497, 498, 499, 500, 501, 502, 503, 504, 505, 506, 507, 508, 509, 510, 511, 512, 513, 514, 515, 516, 517, 518, 519, 520, 521, 522, 523, 524, 525, 526, 527, 528, 529, 530, 531, 532, 533, 534, 535, 536, 537, 538, 539, 540, 541, 542, 543, 544, 545, 546, 547, 548, 549, 550, 551, 552, 553, 554, 555, 556, 557, 558, 559, 560, 561, 562, 563, 564, 565, 566, 567, 568, 569, 570, 571, 572, 573, 574, 575, 576, 577, 578, 579, 580, 581, 582, 583, 584, 585, 586, 587, 588, 589, 590, 591, 592, 593, 594, 595, 596, 597, 598, 599, 600, 601, 602, 603, 604, 605, 606, 607, 608, 609, 610, 611, 612, 613, 614, 615, 616, 617, 618, 619, 620, 621, 622, 623, 624, 625, 626, 627, 628, 629, 630, 631, 632, 633, 634, 635, 636, 637, 638, 639, 640, 641, 642, 643, 644, 645, 646, 647, 648, 649, 650, 651, 652, 653, 654, 655, 656, 657, 658, 659, 660, 661, 662, 663, 664, 665, 666, 667, 668, 669, 670, 671, 672, 673, 674, 675, 676, 677, 678, 679, 680, 681, 682, 683, 684, 685, 686, 687, 688, 689, 690, 691, 692, 693, 694, 695, 696, 697, 698, 699, 700, 701, 702, 703, 704, 705, 706, 707, 708, 709, 710, 711, 712, 713, 714, 715, 716, 717, 718, 719, 720, 721, 722, 723, 724, 725, 726, 727, 728, 729, 730, 731, 732, 733, 734, 735, 736, 737, 738, 739, 740, 741, 742, 743, 744, 745, 746, 747, 748, 749, 750, 751, 752, 753, 754, 755, 756, 757, 758, 759, 760, 761, 762, 763, 764, 765, 766, 767, 768, 769, 770, 771, 772, 773, 774, 775, 776, 777, 778, 779, 780, 781, 782, 783, 784, 785, 786, 787, 788, 789, 790, 791, 792, 793, 794, 795, 796, 797, 798, 799, 800, 801, 802, 803, 804, 805, 806, 807, 808, 809, 810, 811, 812, 813, 814, 815, 816, 817, 818, 819, 820, 821, 822, 823, 824, 825, 826, 827, 828, 829, 830, 831, 832, 833, 834, 835, 836, 837, 838, 839, 840, 841, 842, 843, 844, 845, 846, 847, 848, 849, 850, 851, 852, 853, 854, 855, 856, 857, 858, 859, 860, 861, 862, 863, 864, 865, 866, 867, 868, 869, 870, 871, 872, 873, 874, 875, 876, 877, 878, 879, 880, 881, 882, 883, 884, 885, 886, 887, 888, 889, 890, 891, 892, 893, 894, 895, 896, 897, 898, 899, 900, 901, 902, 903, 904, 905, 906, 907, 908, 909, 910, 911, 912, 913, 914],
      "AcquisitionTime": ["155132.937500", "155133.397500", "155133.857500", "155134.317500", "155134.777500", "155135.237500", "155135.697500", "155136.157500", "155136.617500", "155137.077500", "155137.537500", "155137.997500", "155138.457500", "155138.917500", "155139.377500", "155139.837500", "155140.297500", "155140.757500", "155141.217500", "155141.677500", "155142.137500", "155142.597500", "155143.057500", "155143.517500", "155143.977500", "155144.437500", "155144.897500", "155145.357500", "155145.817500", "155146.277500", "155146.737500", "155147.197500", "155147.657500", "155148.117500", "155148.577500", "155149.037500", "155149.497500", "155149.957500", "155150.417500", "155150.877500", "155151.337500", "155151.797500", "155152.257500", "155152.717500", "155153.177500", "155153.637500", "155154.097500", "155154.557500", "155155.017500", "155155.477500", "155155.937500", "155156.397500", "155156.857500", "155157.317500", "155157.777500", "155158.237500", "155158.697500", "155159.157500", "155159.617500", "155200.077500", "155200.537500", "155200.997500", "155201.457500", "155201.917500", "155202.377500", "155202.837500", "155203.297500", "155203.757500", "155204.217500", "155204.677500", "155205.137500", "155205.597500", "155206.057500", "155206.517500", "155206.977500", "155207.437500", "155207.897500", "155208.357500", "155208.817500", "155209.277500", "155209.737500", "155210.197500", "155210.657500", "155211.117500", "155211.577500", "155212.037500", "155212.497500", "155212.957500", "155213.417500", "155213.877500", "155214.337500", "155214.797500", "155215.257500", "155215.717500", "155216.177500", "155216.637500", "155217.097500", "155217.557500", "155218.017500", "155218.477500", "155218.937500", "155219.397500", "155219.857500", "155220.317500", "155220.777500", "155221.237500", "155221.697500", "155222.157500", "155222.617500", "155223.077500", "155223.537500", "155223.997500", "155224.457500", "155224.917500", "155225.377500", "155225.837500", "155226.297500", "155226.757500", "155227.217500", "155227.677500", "155228.137500", "155228.597500", "155229.057500", "155229.517500", "155229.977500", "155230.437500", "155230.897500", "155231.357500", "155231.817500", "155232.277500", "155232.737500", "155233.197500", "155233.657500", "155234.117500", "155234.577500", "155235.037500", "155235.497500", "155235.957500", "155236.417500", "155236.877500", "155237.337500", "155237.797500", "155238.257500", "155238.717500", "155239.177500", "155239.637500", "155240.097500", "155240.557500", "155241.017500", "155241.477500", "155241.937500", "155242.397500", "155242.857500", "155243.317500", "155243.777500", "155244.237500", "155244.697500", "155245.157500", "155245.617500", "155246.077500", "155246.537500", "155246.997500", "155247.457500", "155247.917500", "155248.377500", "155248.837500", "155249.297500", "155249.757500", "155250.217500", "155250.677500", "155251.137500", "155251.597500", "155252.057500", "155252.517500", "155252.977500", "155253.437500", "155253.897500", "155254.357500", "155254.817500", "155255.277500", "155255.737500", "155256.197500", "155256.657500", "155257.117500", "155257.577500", "155258.037500", "155258.497500", "155258.957500", "155259.417500", "155259.877500", "155300.337500", "155300.797500", "155301.257500", "155301.717500", "155302.177500", "155302.637500", "155303.097500", "155303.557500", "155304.017500", "155304.477500", "155304.937500", "155305.397500", "155305.857500", "155306.317500", "155306.777500", "155307.237500", "155307.697500", "155308.157500", "155308.617500", "155309.077500", "155309.537500", "155309.997500", "155310.457500", "155310.917500", "155311.377500", "155311.837500", "155312.297500", "155312.757500", "155313.217500", "155313.677500", "155314.137500", "155314.597500", "155315.057500", "155315.517500", "155315.977500", "155316.437500", "155316.897500", "155317.357500", "155317.817500", "155318.277500", "155318.737500", "155319.197500", "155319.657500", "155320.117500", "155320.577500", "155321.037500", "155321.497500", "155321.957500", "155322.417500", "155322.877500", "155323.337500", "155323.797500", "155324.257500", "155324.717500", "155325.177500", "155325.637500", "155326.097500", "155326.557500", "155327.017500", "155327.477500", "155327.937500", "155328.397500", "155328.857500", "155329.317500", "155329.777500", "155330.237500", "155330.697500", "155331.157500", "155331.617500", "155332.077500", "155332.537500", "155332.997500", "155333.457500", "155333.917500", "155334.377500", "155334.837500", "155335.297500", "155335.757500", "155336.217500", "155336.677500", "155337.137500", "155337.597500", "155338.057500", "155338.517500", "155338.977500", "155339.437500", "155339.897500", "155340.357500", "155340.817500", "155341.277500", "155341.737500", "155342.197500", "155342.657500", "155343.117500", "155343.577500", "155344.037500", "155344.497500", "155344.957500", "155345.417500", "155345.877500", "155346.337500", "155346.797500", "155347.257500", "155347.717500", "155348.177500", "155348.637500", "155349.097500", "155349.557500", "155350.017500", "155350.477500", "155350.937500", "155351.397500", "155351.857500", "155352.317500", "155352.777500", "155353.237500", "155353.697500", "155354.157500", "155354.617500", "155355.077500", "155355.537500", "155355.997500", "155356.457500", "155356.917500", "155357.377500", "155357.837500", "155358.297500", "155358.757500", "155359.217500", "155359.677500", "155400.137500", "155400.597500", "155401.057500", "155401.517500", "155401.977500", "155402.437500", "155402.897500", "155403.357500", "155403.817500", "155404.277500", "155404.737500", "155405.197500", "155405.657500", "155406.117500", "155406.577500", "155407.037500", "155407.497500", "155407.957500", "155408.417500", "155408.877500", "155409.337500", "155409.797500", "155410.257500", "155410.717500", "155411.177500", "155411.637500", "155412.097500", "155412.557500", "155413.017500", "155413.477500", "155413.937500", "155414.397500", "155414.857500", "155415.317500", "155415.777500", "155416.237500", "155416.697500", "155417.157500", "155417.617500", "155418.077500", "155418.537500", "155418.997500", "155419.457500", "155419.917500", "155420.377500", "155420.837500", "155421.297500", "155421.757500", "155422.217500", "155422.677500", "155423.137500", "155423.597500", "155424.057500", "155424.517500", "155424.977500", "155425.437500", "155425.897500", "155426.357500", "155426.817500", "155427.277500", "155427.737500", "155428.197500", "155428.657500", "155429.117500", "155429.577500", "155430.037500", "155430.497500", "155430.957500", "155431.417500", "155431.877500", "155432.337500", "155432.797500", "155433.257500", "155433.717500", "155434.177500", "155434.637500", "155435.097500", "155435.557500", "155436.017500", "155436.477500", "155436.937500", "155437.397500", "155437.857500", "155438.317500", "155438.777500", "155439.237500", "155439.697500", "155440.157500", "155440.617500", "155441.077500", "155441.537500", "155441.997500", "155442.457500", "155442.917500", "155443.377500", "155443.837500", "155444.297500", "155444.757500", "155445.217500", "155445.677500", "155446.137500", "155446.597500", "155447.057500", "155447.517500", "155447.977500", "155448.437500", "155448.897500", "155449.357500", "155449.817500", "155450.277500", "155450.737500", "155451.197500", "155451.657500", "155452.117500", "155452.577500", "155453.037500", "155453.497500", "155453.957500", "155454.417500", "155454.877500", "155455.337500", "155455.797500", "155456.257500", "155456.717500", "155457.177500", "155457.637500", "155458.097500", "155458.557500", "155459.017500", "155459.477500", "155459.937500", "155500.397500", "155500.857500", "155501.317500", "155501.777500", "155502.237500", "155502.697500", "155503.157500", "155503.617500", "155504.077500", "155504.537500", "155504.997500", "155505.457500", "155505.917500", "155506.377500", "155506.837500", "155507.297500", "155507.757500", "155508.217500", "155508.677500", "155509.137500", "155509.597500", "155510.057500", "155510.517500", "155510.977500", "155511.437500", "155511.897500", "155512.357500", "155512.817500", "155513.277500", "155513.737500", "155514.197500", "155514.657500", "155515.117500", "155515.577500", "155516.037500", "155516.497500", "155516.957500", "155517.417500", "155517.877500", "155518.337500", "155518.797500", "155519.257500", "155519.717500", "155520.177500", "155520.637500", "155521.097500", "155521.557500", "155522.017500", "155522.477500", "155522.937500", "155523.397500", "155523.857500", "155524.317500", "155524.777500", "155525.237500", "155525.697500", "155526.157500", "155526.617500", "155527.077500", "155527.537500", "155527.997500", "155528.457500", "155528.917500", "155529.377500", "155529.837500", "155530.297500", "155530.757500", "155531.217500", "155531.677500", "155532.137500", "155532.597500", "155533.057500", "155533.517500", "155533.977500", "155534.437500", "155534.897500", "155535.357500", "155535.817500", "155536.277500", "155536.737500", "155537.197500", "155537.657500", "155538.117500", "155538.577500", "155539.037500", "155539.497500", "155539.957500", "155540.417500", "155540.877500", "155541.337500", "155541.797500", "155542.257500", "155542.717500", "155543.177500", "155543.637500", "155544.097500", "155544.557500", "155545.017500", "155545.477500", "155545.937500", "155546.397500", "155546.857500", "155547.317500", "155547.777500", "155548.237500", "155548.697500", "155549.157500", "155549.617500", "155550.077500", "155550.537500", "155550.997500", "155551.457500", "155551.917500", "155552.377500", "155552.837500", "155553.297500", "155553.757500", "155554.217500", "155554.677500", "155555.137500", "155555.597500", "155556.057500", "155556.517500", "155556.977500", "155557.437500", "155557.897500", "155558.357500", "155558.817500", "155559.277500", "155559.737500", "155600.197500", "155600.657500", "155601.117500", "155601.577500", "155602.037500", "155602.497500", "155602.957500", "155603.417500", "155603.877500", "155604.337500", "155604.797500", "155605.257500", "155605.717500", "155606.177500", "155606.637500", "155607.097500", "155607.557500", "155608.017500", "155608.477500", "155608.937500", "155609.397500", "155609.857500", "155610.317500", "155610.777500", "155611.237500", "155611.697500", "155612.157500", "155612.617500", "155613.077500", "155613.537500", "155613.997500", "155614.457500", "155614.917500", "155615.377500", "155615.837500", "155616.297500", "155616.757500", "155617.217500", "155617.677500", "155618.137500", "155618.597500", "155619.057500", "155619.517500", "155619.977500", "155620.437500", "155620.897500", "155621.357500", "155621.817500", "155622.277500", "155622.737500", "155623.197500", "155623.657500", "155624.117500", "155624.577500", "155625.037500", "155625.497500", "155625.957500", "155626.417500", "155626.877500", "155627.337500", "155627.797500", "155628.257500", "155628.717500", "155629.177500", "155629.637500", "155630.097500", "155630.557500", "155631.017500", "155631.477500", "155631.937500", "155632.397500", "155632.857500", "155633.317500", "155633.777500", "155634.237500", "155634.697500", "155635.157500", "155635.617500", "155636.077500", "155636.537500", "155636.997500", "155637.457500", "155637.917500", "155638.377500", "155638.837500", "155639.297500", "155639.757500", "155640.217500", "155640.677500", "155641.137500", "155641.597500", "155642.057500", "155642.517500", "155642.977500", "155643.437500", "155643.897500", "155644.357500", "155644.817500", "155645.277500", "155645.737500", "155646.197500", "155646.657500", "155647.117500", "155647.577500", "155648.037500", "155648.497500", "155648.957500", "155649.417500", "155649.877500", "155650.337500", "155650.797500", "155651.257500", "155651.717500", "155652.177500", "155652.637500", "155653.097500", "155653.557500", "155654.017500", "155654.477500", "155654.937500", "155655.397500", "155655.857500", "155656.317500", "155656.777500", "155657.237500", "155657.697500", "155658.157500", "155658.617500", "155659.077500", "155659.537500", "155659.997500", "155700.457500", "155700.917500", "155701.377500", "155701.837500", "155702.297500", "155702.757500", "155703.217500", "155703.677500", "155704.137500", "155704.597500", "155705.057500", "155705.517500", "155705.977500", "155706.437500", "155706.897500", "155707.357500", "155707.817500", "155708.277500", "155708.737500", "155709.197500", "155709.657500", "155710.117500", "155710.577500", "155711.037500", "155711.497500", "155711.957500", "155712.417500", "155712.877500", "155713.337500", "155713.797500", "155714.257500", "155714.717500", "155715.177500", "155715.637500", "155716.097500", "155716.557500", "155717.017500", "155717.477500", "155717.937500", "155718.397500", "155718.857500", "155719.317500", "155719.777500", "155720.237500", "155720.697500", "155721.157500", "155721.617500", "155722.077500", "155722.537500", "155722.997500", "155723.457500", "155723.917500", "155724.377500", "155724.837500", "155725.297500", "155725.757500", "155726.217500", "155726.677500", "155727.137500", "155727.597500", "155728.057500", "155728.517500", "155728.977500", "155729.437500", "155729.897500", "155730.357500", "155730.817500", "155731.277500", "155731.737500", "155732.197500", "155732.657500", "155733.117500", "155733.577500", "155734.037500", "155734.497500", "155734.957500", "155735.417500", "155735.877500", "155736.337500", "155736.797500", "155737.257500", "155737.717500", "155738.177500", "155738.637500", "155739.097500", "155739.557500", "155740.017500", "155740.477500", "155740.937500", "155741.397500", "155741.857500", "155742.317500", "155742.777500", "155743.237500", "155743.697500", "155744.157500", "155744.617500", "155745.077500", "155745.537500", "155745.997500", "155746.457500", "155746.917500", "155747.377500", "155747.837500", "155748.297500", "155748.757500", "155749.217500", "155749.677500", "155750.137500", "155750.597500", "155751.057500", "155751.517500", "155751.977500", "155752.437500", "155752.897500", "155753.357500", "155753.817500", "155754.277500", "155754.737500", "155755.197500", "155755.657500", "155756.117500", "155756.577500", "155757.037500", "155757.497500", "155757.957500", "155758.417500", "155758.877500", "155759.337500", "155759.797500", "155800.257500", "155800.717500", "155801.177500", "155801.637500", "155802.097500", "155802.557500", "155803.017500", "155803.477500", "155803.937500", "155804.397500", "155804.857500", "155805.317500", "155805.777500", "155806.237500", "155806.697500", "155807.157500", "155807.617500", "155808.077500", "155808.537500", "155808.997500", "155809.457500", "155809.917500", "155810.377500", "155810.837500", "155811.297500", "155811.757500", "155812.217500", "155812.677500", "155813.137500", "155813.597500", "155814.057500", "155814.517500", "155814.977500", "155815.437500", "155815.897500", "155816.357500", "155816.817500", "155817.277500", "155817.737500", "155818.197500", "155818.657500", "155819.117500", "155819.577500", "155820.037500", "155820.497500", "155820.957500", "155821.417500", "155821.877500", "155822.337500", "155822.797500", "155823.257500", "155823.717500", "155824.177500", "155824.637500", "155825.097500", "155825.557500", "155826.017500", "155826.477500", "155826.937500", "155827.397500", "155827.857500", "155828.317500", "155828.777500", "155829.237500", "155829.697500", "155830.157500", "155830.617500", "155831.077500", "155831.537500", "155831.997500", "155832.457500", "155832.917500"],
