{
  "AcquisitionMatrixPE": 82,
  "AcquisitionNumber": 1,
  "AcquisitionTime": "15:14:23.002500",
  "BandwidthPerPixelPhaseEncode": 24.888,
  "BaseResolution": 82,
  "BodyPartExamined": "BRAIN",
  "ConsistencyInfo": "N4_VE11C_LATEST_20160120",
  "ConversionSoftware": "dcm2niix",
  "ConversionSoftwareVersion": "v1.0.20201102",
  "DerivedVendorReportedEchoSpacing": 0.00049,
  "DeviceSerialNumber": "66112",
  "DwellTime": 2e-06,
  "EchoTime": 0.0272,
  "EchoTrainLength": 82,
  "EffectiveEchoSpacing": 0.00049,
  "FlipAngle": 44,
  "ImageComments": "Unaliased MB8/PE3",
  "ImageOrientationPatientDICOM": [0.999622, -0.023906, 0.0135865, 0.0218118, 0.99025, 0.137585],
  "ImageType": [
    "ORIGINAL",
    "PRIMARY",
    "M",
    "MB",
    "ND",
    "NORM",
    "MOSAIC"
],
  "ImagingFrequency": 123.252,
  "InPlanePhaseEncodingDirectionDICOM": "COL",
  "InstitutionAddress": "Maynard 3,Hanover,NH,US,03755",
  "InstitutionName": "Dartmouth College - PBS",
  "InstitutionalDepartmentName": "Department",
  "MRAcquisitionType": "2D",
  "MagneticFieldStrength": 3,
  "Manufacturer": "Siemens",
  "ManufacturersModelName": "Prisma",
  "Modality": "MR",
  "MultibandAccelerationFactor": 8,
  "PartialFourier": 1,
  "PatientPosition": "HFS",
  "PercentPhaseFOV": 100,
  "PercentSampling": 100,
  "PhaseEncodingDirection": "j-",
  "PhaseEncodingSteps": 82,
  "PhaseResolution": 1,
  "PixelBandwidth": 3050,
  "ProcedureStepDescription": "Wager_Wager^1076_spacetop",
  "ProtocolName": "func_run-01_task-narratives_acq-ap-mb8",
  "PulseSequenceDetails": "%CustomerSeq%\\cmrr_mbep2d_bold",
  "ReceiveCoilActiveElements": "HEA;HEP",
  "ReceiveCoilName": "Head_32",
  "ReconMatrixPE": 82,
  "RepetitionTime": 0.46,
  "SAR": 0.0886006,
  "ScanOptions": "FS",
  "ScanningSequence": "EP",
  "SequenceName": "epfid2d1_82",
  "SequenceVariant": "SK\\SS",
  "SeriesDescription": "func_run-01_task-narratives_acq-ap-mb8",
  "SeriesNumber": 8,
  "ShimSetting": [4150, -7784, -7229, 560, -89, -215, 72, 61],
  "SliceThickness": 2.7,
  "SliceTiming": [0, 0.2525, 0.0625, 0.315, 0.1275, 0.3775, 0.19, 0, 0.2525, 0.0625, 0.315, 0.1275, 0.3775, 0.19, 0, 0.2525, 0.0625, 0.315, 0.1275, 0.3775, 0.19, 0, 0.2525, 0.0625, 0.315, 0.1275, 0.3775, 0.19, 0, 0.2525, 0.0625, 0.315, 0.1275, 0.3775, 0.19, 0, 0.2525, 0.0625, 0.315, 0.1275, 0.3775, 0.19, 0, 0.2525, 0.0625, 0.315, 0.1275, 0.3775, 0.19, 0, 0.2525, 0.0625, 0.315, 0.1275, 0.3775, 0.19],
  "SoftwareVersions": "syngo MR E11",
  "SpacingBetweenSlices": 2.7,
  "StationName": "AWP66112",
  "TaskName": "narratives",
  "TotalReadoutTime": 0.03969,
  "TxRefAmp": 250.856,
  "WipMemBlock": "ed8e6622-1377-4cbb-b910-d73da1788d5e||Sequence: R016 ve11c/master r/e634e98; Dec 19 2017 11:00:25 by eja",
  "dcmmeta_affine": [
    [-2.681912422180176, 0.05851955711841583, 0.045206472277641296, 107.15828704833984],
    [0.06413798779249191, 2.6567676067352295, 0.3705391585826874, -97.83098602294922],
    [0.03645159676671028, -0.3691307306289673, 2.6740713119506836, -55.41724395751953],
    [0.0, 0.0, 0.0, 1.0]
],
  "dcmmeta_reorient_transform": [
    [0.0, -1.0, 0.0, 81.0],
    [1.0, 0.0, 0.0, 0.0],
    [0.0, 0.0, 1.0, 0.0],
    [0.0, 0.0, 0.0, 1.0]
],
  "dcmmeta_shape": [82, 82, 56, 967],
  "dcmmeta_slice_dim": 2,
  "dcmmeta_version": 0.6,
  "global": {
    "const": {
      "AccessionNumber": "A003827",
      "AcquisitionMatrix": [82, 0, 0, 82],
      "AngioFlag": "N",
      "BitsAllocated": 16,
      "BitsStored": 16,
      "BodyPartExamined": "BRAIN",
      "Columns": 656,
      "EchoNumbers": 1,
      "EchoTime": 27.2,
      "EchoTrainLength": 82,
      "FlipAngle": 44.0,
      "HighBit": 15,
      "ImageOrientationPatient": [0.99962188411552, -0.0239059763235, 0.01358650408894, 0.02181183429509, 0.99024975959653, 0.1375850918657],
      "ImagePositionPatient": [-898.40235580133, -861.45193031514, -201.71896537546],
      "ImageType": [
        "ORIGINAL",
        "PRIMARY",
        "M",
        "MB",
        "ND",
        "NORM",
        "MOSAIC"
],
      "ImagedNucleus": "1H",
      "ImagingFrequency": 123.252183,
      "InPlanePhaseEncodingDirection": "COL",
      "MRAcquisitionType": "2D",
      "MagneticFieldStrength": 3.0,
      "Manufacturer": "SIEMENS",
      "ManufacturerModelName": "Prisma",
      "Modality": "MR",
      "NumberOfAverages": 1.0,
      "NumberOfPhaseEncodingSteps": 82,
      "PercentPhaseFieldOfView": 100.0,
      "PercentSampling": 100.0,
      "PerformedProcedureStepStartTime": "150351.860000",
      "PhotometricInterpretation": "MONOCHROME2",
      "PixelBandwidth": 3050.0,
      "PixelRepresentation": 0,
      "PixelSpacing": [2.6829268932343, 2.6829268932343],
      "ProtocolName": "func_run-01_task-narratives_acq-ap-mb8",
      "RepetitionTime": 460.0,
      "Rows": 656,
      "SAR": 0.08860062755041,
      "SamplesPerPixel": 1,
      "ScanOptions": "FS",
      "ScanningSequence": "EP",
      "SequenceName": "epfid2d1_82",
      "SequenceVariant": [
        "SK",
        "SS"
],
      "SeriesDescription": "func_run-01_task-narratives_acq-ap-mb8",
      "SeriesNumber": 8,
      "SeriesTime": "151441.355000",
      "SliceLocation": -66.516896294038,
      "SliceThickness": 2.7000000476837,
      "SmallestImagePixelValue": 0,
      "SoftwareVersions": "syngo MR E11",
      "SpacingBetweenSlices": 2.7000000317927,
      "SpecificCharacterSet": "ISO_IR 100",
      "StudyID": "1",
      "StudyTime": "150351.801000",
      "TransmitCoilName": "Body",
      "VariableFlipAngleFlag": "N",
      "WindowCenterWidthExplanation": "Algo1",
      "dBdt": 0.0},
    "slices": {}
  },
  "time": {
    "samples": {
      "AcquisitionNumber": [1, 2, 3, 4, 5, 6, 7, 8, 9, 10, 11, 12, 13, 14, 15, 16, 17, 18, 19, 20, 21, 22, 23, 24, 25, 26, 27, 28, 29, 30, 31, 32, 33, 34, 35, 36, 37, 38, 39, 40, 41, 42, 43, 44, 45, 46, 47, 48, 49, 50, 51, 52, 53, 54, 55, 56, 57, 58, 59, 60, 61, 62, 63, 64, 65, 66, 67, 68, 69, 70, 71, 72, 73, 74, 75, 76, 77, 78, 79, 80, 81, 82, 83, 84, 85, 86, 87, 88, 89, 90, 91, 92, 93, 94, 95, 96, 97, 98, 99, 100, 101, 102, 103, 104, 105, 106, 107, 108, 109, 110, 111, 112, 113, 114, 115, 116, 117, 118, 119, 120, 121, 122, 123, 124, 125, 126, 127, 128, 129, 130, 131, 132, 133, 134, 135, 136, 137, 138, 139, 140, 141, 142, 143, 144, 145, 146, 147, 148, 149, 150, 151, 152, 153, 154, 155, 156, 157, 158, 159, 160, 161, 162, 163, 164, 165, 166, 167, 168, 169, 170, 171, 172, 173, 174, 175, 176, 177, 178, 179, 180, 181, 182, 183, 184, 185, 186, 187, 188, 189, 190, 191, 192, 193, 194, 195, 196, 197, 198, 199, 200, 201, 202, 203, 204, 205, 206, 207, 208, 209, 210, 211, 212, 213, 214, 215, 216, 217, 218, 219, 220, 221, 222, 223, 224, 225, 226, 227, 228, 229, 230, 231, 232, 233, 234, 235, 236, 237, 238, 239, 240, 241, 242, 243, 244, 245, 246, 247, 248, 249, 250, 251, 252, 253, 254, 255, 256, 257, 258, 259, 260, 261, 262, 263, 264, 265, 266, 267, 268, 269, 270, 271, 272, 273, 274, 275, 276, 277, 278, 279, 280, 281, 282, 283, 284, 285, 286, 287, 288, 289, 290, 291, 292, 293, 294, 295, 296, 297, 298, 299, 300, 301, 302, 303, 304, 305, 306, 307, 308, 309, 310, 311, 312, 313, 314, 315, 316, 317, 318, 319, 320, 321, 322, 323, 324, 325, 326, 327, 328, 329, 330, 331, 332, 333, 334, 335, 336, 337, 338, 339, 340, 341, 342, 343, 344, 345, 346, 347, 348, 349, 350, 351, 352, 353, 354, 355, 356, 357, 358, 359, 360, 361, 362, 363, 364, 365, 366, 367, 368, 369, 370, 371, 372, 373, 374, 375, 376, 377, 378, 379, 380, 381, 382, 383, 384, 385, 386, 387, 388, 389, 390, 391, 392, 393, 394, 395, 396, 397, 398, 399, 400, 401, 402, 403, 404, 405, 406, 407, 408, 409, 410, 411, 412, 413, 414, 415, 416, 417, 418, 419, 420, 421, 422, 423, 424, 425, 426, 427, 428, 429, 430, 431, 432, 433, 434, 435, 436, 437, 438, 439, 440, 441, 442, 443, 444, 445, 446, 447, 448, 449, 450, 451, 452, 453, 454, 455, 456, 457, 458, 459, 460, 461, 462, 463, 464, 465, 466, 467, 468, 469, 470, 471, 472, 473, 474, 475, 476, 477, 478, 479, 480, 481, 482, 483, 484, 485, 486, 487, 488, 489, 490, 491, 492, 493, 494, 495, 496, 497, 498, 499, 500, 501, 502, 503, 504, 505, 506, 507, 508, 509, 510, 511, 512, 513, 514, 515, 516, 517, 518, 519, 520, 521, 522, 523, 524, 525, 526, 527, 528, 529, 530, 531, 532, 533, 534, 535, 536, 537, 538, 539, 540, 541, 542, 543, 544, 545, 546, 547, 548, 549, 550, 551, 552, 553, 554, 555, 556, 557, 558, 559, 560, 561, 562, 563, 564, 565, 566, 567, 568, 569, 570, 571, 572, 573, 574, 575, 576, 577, 578, 579, 580, 581, 582, 583, 584, 585, 586, 587, 588, 589, 590, 591, 592, 593, 594, 595, 596, 597, 598, 599, 600, 601, 602, 603, 604, 605, 606, 607, 608, 609, 610, 611, 612, 613, 614, 615, 616, 617, 618, 619, 620, 621, 622, 623, 624, 625, 626, 627, 628, 629, 630, 631, 632, 633, 634, 635, 636, 637, 638, 639, 640, 641, 642, 643, 644, 645, 646, 647, 648, 649, 650, 651, 652, 653, 654, 655, 656, 657, 658, 659, 660, 661, 662, 663, 664, 665, 666, 667, 668, 669, 670, 671, 672, 673, 674, 675, 676, 677, 678, 679, 680, 681, 682, 683, 684, 685, 686, 687, 688, 689, 690, 691, 692, 693, 694, 695, 696, 697, 698, 699, 700, 701, 702, 703, 704, 705, 706, 707, 708, 709, 710, 711, 712, 713, 714, 715, 716, 717, 718, 719, 720, 721, 722, 723, 724, 725, 726, 727, 728, 729, 730, 731, 732, 733, 734, 735, 736, 737, 738, 739, 740, 741, 742, 743, 744, 745, 746, 747, 748, 749, 750, 751, 752, 753, 754, 755, 756, 757, 758, 759, 760, 761, 762, 763, 764, 765, 766, 767, 768, 769, 770, 771, 772, 773, 774, 775, 776, 777, 778, 779, 780, 781, 782, 783, 784, 785, 786, 787, 788, 789, 790, 791, 792, 793, 794, 795, 796, 797, 798, 799, 800, 801, 802, 803, 804, 805, 806, 807, 808, 809, 810, 811, 812, 813, 814, 815, 816, 817, 818, 819, 820, 821, 822, 823, 824, 825, 826, 827, 828, 829, 830, 831, 832, 833, 834, 835, 836, 837, 838, 839, 840, 841, 842, 843, 844, 845, 846, 847, 848, 849, 850, 851, 852, 853, 854, 855, 856, 857, 858, 859, 860, 861, 862, 863, 864, 865, 866, 867, 868, 869, 870, 871, 872, 873, 874, 875, 876, 877, 878, 879, 880, 881, 882, 883, 884, 885, 886, 887, 888, 889, 890, 891, 892, 893, 894, 895, 896, 897, 898, 899, 900, 901, 902, 903, 904, 905, 906, 907, 908, 909, 910, 911, 912, 913, 914, 915, 916, 917, 918, 919, 920, 921, 922, 923, 924, 925, 926, 927, 928, 929, 930, 931, 932, 933, 934, 935, 936, 937, 938, 939, 940, 941, 942, 943, 944, 945, 946, 947, 948, 949, 950, 951, 952, 953, 954, 955, 956, 957, 958, 959, 960, 961, 962, 963, 964, 965, 966, 967],
      "AcquisitionTime": ["151423.002500", "151423.462500", "151423.922500", "151424.382500", "151424.842500", "151425.302500", "151425.762500", "151426.222500", "151426.682500", "151427.142500", "151427.602500", "151428.062500", "151428.522500", "151428.982500", "151429.442500", "151429.902500", "151430.362500", "151430.822500", "151431.282500", "151431.742500", "151432.202500", "151432.662500", "151433.122500", "151433.582500", "151434.042500", "151434.502500", "151434.962500", "151435.422500", "151435.882500", "151436.342500", "151436.802500", "151437.262500", "151437.722500", "151438.182500", "151438.642500", "151439.102500", "151439.562500", "151440.022500", "151440.482500", "151440.942500", "151441.402500", "151441.862500", "151442.322500", "151442.782500", "151443.242500", "151443.702500", "151444.162500", "151444.622500", "151445.082500", "151445.542500", "151446.002500", "151446.462500", "151446.922500", "151447.382500", "151447.842500", "151448.302500", "151448.762500", "151449.222500", "151449.682500", "151450.142500", "151450.602500", "151451.062500", "151451.522500", "151451.982500", "151452.442500", "151452.902500", "151453.362500", "151453.822500", "151454.282500", "151454.742500", "151455.202500", "151455.662500", "151456.122500", "151456.582500", "151457.042500", "151457.502500", "151457.962500", "151458.422500", "151458.882500", "151459.342500", "151459.802500", "151500.262500", "151500.722500", "151501.182500", "151501.642500", "151502.102500", "151502.562500", "151503.022500", "151503.482500", "151503.942500", "151504.402500", "151504.862500", "151505.322500", "151505.782500", "151506.242500", "151506.702500", "151507.162500", "151507.622500", "151508.082500", "151508.542500", "151509.002500", "151509.462500", "151509.922500", "151510.382500", "151510.842500", "151511.302500", "151511.762500", "151512.222500", "151512.682500", "151513.142500", "151513.602500", "151514.062500", "151514.522500", "151514.982500", "151515.442500", "151515.902500", "151516.362500", "151516.822500", "151517.282500", "151517.742500", "151518.202500", "151518.662500", "151519.122500", "151519.582500", "151520.042500", "151520.502500", "151520.962500", "151521.422500", "151521.882500", "151522.342500", "151522.802500", "151523.262500", "151523.722500", "151524.182500", "151524.642500", "151525.102500", "151525.562500", "151526.022500", "151526.482500", "151526.942500", "151527.402500", "151527.862500", "151528.322500", "151528.782500", "151529.242500", "151529.702500", "151530.162500", "151530.622500", "151531.082500", "151531.542500", "151532.002500", "151532.462500", "151532.922500", "151533.382500", "151533.842500", "151534.302500", "151534.762500", "151535.222500", "151535.682500", "151536.142500", "151536.602500", "151537.062500", "151537.522500", "151537.982500", "151538.442500", "151538.902500", "151539.362500", "151539.822500", "151540.282500", "151540.742500", "151541.202500", "151541.662500", "151542.122500", "151542.582500", "151543.042500", "151543.502500", "151543.962500", "151544.422500", "151544.882500", "151545.342500", "151545.802500", "151546.262500", "151546.722500", "151547.182500", "151547.642500", "151548.102500", "151548.562500", "151549.022500", "151549.482500", "151549.942500", "151550.402500", "151550.862500", "151551.322500", "151551.782500", "151552.242500", "151552.702500", "151553.162500", "151553.622500", "151554.082500", "151554.542500", "151555.002500", "151555.462500", "151555.922500", "151556.382500", "151556.842500", "151557.302500", "151557.762500", "151558.222500", "151558.682500", "151559.142500", "151559.602500", "151600.062500", "151600.522500", "151600.982500", "151601.442500", "151601.902500", "151602.362500", "151602.822500", "151603.282500", "151603.742500", "151604.202500", "151604.662500", "151605.122500", "151605.582500", "151606.042500", "151606.502500", "151606.962500", "151607.422500", "151607.882500", "151608.342500", "151608.802500", "151609.262500", "151609.722500", "151610.182500", "151610.642500", "151611.102500", "151611.562500", "151612.022500", "151612.482500", "151612.942500", "151613.402500", "151613.862500", "151614.322500", "151614.782500", "151615.242500", "151615.702500", "151616.162500", "151616.622500", "151617.082500", "151617.542500", "151618.002500", "151618.462500", "151618.922500", "151619.382500", "151619.842500", "151620.302500", "151620.762500", "151621.222500", "151621.682500", "151622.142500", "151622.602500", "151623.062500", "151623.522500", "151623.982500", "151624.442500", "151624.902500", "151625.362500", "151625.822500", "151626.282500", "151626.742500", "151627.202500", "151627.662500", "151628.122500", "151628.582500", "151629.042500", "151629.502500", "151629.962500", "151630.422500", "151630.882500", "151631.342500", "151631.802500", "151632.262500", "151632.722500", "151633.182500", "151633.642500", "151634.102500", "151634.562500", "151635.022500", "151635.482500", "151635.942500", "151636.402500", "151636.862500", "151637.322500", "151637.782500", "151638.242500", "151638.702500", "151639.162500", "151639.622500", "151640.082500", "151640.542500", "151641.002500", "151641.462500", "151641.922500", "151642.382500", "151642.842500", "151643.302500", "151643.762500", "151644.222500", "151644.682500", "151645.142500", "151645.602500", "151646.062500", "151646.522500", "151646.982500", "151647.442500", "151647.902500", "151648.362500", "151648.822500", "151649.282500", "151649.742500", "151650.202500", "151650.662500", "151651.122500", "151651.582500", "151652.042500", "151652.502500", "151652.962500", "151653.422500", "151653.882500", "151654.342500", "151654.802500", "151655.262500", "151655.722500", "151656.182500", "151656.642500", "151657.102500", "151657.562500", "151658.022500", "151658.482500", "151658.942500", "151659.402500", "151659.862500", "151700.322500", "151700.782500", "151701.242500", "151701.702500", "151702.162500", "151702.622500", "151703.082500", "151703.542500", "151704.002500", "151704.462500", "151704.922500", "151705.382500", "151705.842500", "151706.302500", "151706.762500", "151707.222500", "151707.682500", "151708.142500", "151708.602500", "151709.062500", "151709.522500", "151709.982500", "151710.442500", "151710.902500", "151711.362500", "151711.822500", "151712.282500", "151712.742500", "151713.202500", "151713.662500", "151714.122500", "151714.582500", "151715.042500", "151715.502500", "151715.962500", "151716.422500", "151716.882500", "151717.342500", "151717.802500", "151718.262500", "151718.722500", "151719.182500", "151719.642500", "151720.102500", "151720.562500", "151721.022500", "151721.482500", "151721.942500", "151722.402500", "151722.862500", "151723.322500", "151723.782500", "151724.242500", "151724.702500", "151725.162500", "151725.622500", "151726.082500", "151726.542500", "151727.002500", "151727.462500", "151727.922500", "151728.382500", "151728.842500", "151729.302500", "151729.762500", "151730.222500", "151730.682500", "151731.142500", "151731.602500", "151732.062500", "151732.522500", "151732.982500", "151733.442500", "151733.902500", "151734.362500", "151734.822500", "151735.282500", "151735.742500", "151736.202500", "151736.662500", "151737.122500", "151737.582500", "151738.042500", "151738.502500", "151738.962500", "151739.422500", "151739.882500", "151740.342500", "151740.802500", "151741.262500", "151741.722500", "151742.182500", "151742.642500", "151743.102500", "151743.562500", "151744.022500", "151744.482500", "151744.942500", "151745.402500", "151745.862500", "151746.322500", "151746.782500", "151747.242500", "151747.702500", "151748.162500", "151748.622500", "151749.082500", "151749.542500", "151750.002500", "151750.462500", "151750.922500", "151751.382500", "151751.842500", "151752.302500", "151752.762500", "151753.222500", "151753.682500", "151754.142500", "151754.602500", "151755.062500", "151755.522500", "151755.982500", "151756.442500", "151756.902500", "151757.362500", "151757.822500", "151758.282500", "151758.742500", "151759.202500", "151759.662500", "151800.122500", "151800.582500", "151801.042500", "151801.502500", "151801.962500", "151802.422500", "151802.882500", "151803.342500", "151803.802500", "151804.262500", "151804.722500", "151805.182500", "151805.642500", "151806.102500", "151806.562500", "151807.022500", "151807.482500", "151807.942500", "151808.402500", "151808.862500", "151809.322500", "151809.782500", "151810.242500", "151810.702500", "151811.162500", "151811.622500", "151812.082500", "151812.542500", "151813.002500", "151813.462500", "151813.922500", "151814.382500", "151814.842500", "151815.302500", "151815.762500", "151816.222500", "151816.682500", "151817.142500", "151817.602500", "151818.062500", "151818.522500", "151818.982500", "151819.442500", "151819.902500", "151820.362500", "151820.822500", "151821.282500", "151821.742500", "151822.202500", "151822.662500", "151823.122500", "151823.582500", "151824.042500", "151824.502500", "151824.962500", "151825.422500", "151825.882500", "151826.342500", "151826.802500", "151827.262500", "151827.722500", "151828.182500", "151828.642500", "151829.102500", "151829.562500", "151830.022500", "151830.482500", "151830.942500", "151831.402500", "151831.862500", "151832.322500", "151832.782500", "151833.242500", "151833.702500", "151834.162500", "151834.622500", "151835.082500", "151835.542500", "151836.002500", "151836.462500", "151836.922500", "151837.382500", "151837.842500", "151838.302500", "151838.762500", "151839.222500", "151839.682500", "151840.142500", "151840.602500", "151841.062500", "151841.522500", "151841.982500", "151842.442500", "151842.902500", "151843.362500", "151843.822500", "151844.282500", "151844.742500", "151845.202500", "151845.662500", "151846.122500", "151846.582500", "151847.042500", "151847.502500", "151847.962500", "151848.422500", "151848.882500", "151849.342500", "151849.802500", "151850.262500", "151850.722500", "151851.182500", "151851.642500", "151852.102500", "151852.562500", "151853.022500", "151853.482500", "151853.942500", "151854.402500", "151854.862500", "151855.322500", "151855.782500", "151856.242500", "151856.702500", "151857.162500", "151857.622500", "151858.082500", "151858.542500", "151859.002500", "151859.462500", "151859.922500", "151900.382500", "151900.842500", "151901.302500", "151901.762500", "151902.222500", "151902.682500", "151903.142500", "151903.602500", "151904.062500", "151904.522500", "151904.982500", "151905.442500", "151905.902500", "151906.362500", "151906.822500", "151907.282500", "151907.742500", "151908.202500", "151908.662500", "151909.122500", "151909.582500", "151910.042500", "151910.502500", "151910.962500", "151911.422500", "151911.882500", "151912.342500", "151912.802500", "151913.262500", "151913.722500", "151914.182500", "151914.642500", "151915.102500", "151915.562500", "151916.022500", "151916.482500", "151916.942500", "151917.402500", "151917.862500", "151918.322500", "151918.782500", "151919.242500", "151919.702500", "151920.162500", "151920.622500", "151921.082500", "151921.542500", "151922.002500", "151922.462500", "151922.922500", "151923.382500", "151923.842500", "151924.302500", "151924.762500", "151925.222500", "151925.682500", "151926.142500", "151926.602500", "151927.062500", "151927.522500", "151927.982500", "151928.442500", "151928.902500", "151929.362500", "151929.822500", "151930.282500", "151930.742500", "151931.202500", "151931.662500", "151932.122500", "151932.582500", "151933.042500", "151933.502500", "151933.962500", "151934.422500", "151934.882500", "151935.342500", "151935.802500", "151936.262500", "151936.722500", "151937.182500", "151937.642500", "151938.102500", "151938.562500", "151939.022500", "151939.482500", "151939.942500", "151940.402500", "151940.862500", "151941.322500", "151941.782500", "151942.242500", "151942.702500", "151943.162500", "151943.622500", "151944.082500", "151944.542500", "151945.002500", "151945.462500", "151945.922500", "151946.382500", "151946.842500", "151947.302500", "151947.762500", "151948.222500", "151948.682500", "151949.142500", "151949.602500", "151950.062500", "151950.522500", "151950.982500", "151951.442500", "151951.902500", "151952.362500", "151952.822500", "151953.282500", "151953.742500", "151954.202500", "151954.662500", "151955.122500", "151955.582500", "151956.042500", "151956.502500", "151956.962500", "151957.422500", "151957.882500", "151958.342500", "151958.802500", "151959.262500", "151959.722500", "152000.182500", "152000.642500", "152001.102500", "152001.562500", "152002.022500", "152002.482500", "152002.942500", "152003.402500", "152003.862500", "152004.322500", "152004.782500", "152005.242500", "152005.702500", "152006.162500", "152006.622500", "152007.082500", "152007.542500", "152008.002500", "152008.462500", "152008.922500", "152009.382500", "152009.842500", "152010.302500", "152010.762500", "152011.222500", "152011.682500", "152012.142500", "152012.602500", "152013.062500", "152013.522500", "152013.982500", "152014.442500", "152014.902500", "152015.362500", "152015.822500", "152016.282500", "152016.742500", "152017.202500", "152017.662500", "152018.122500", "152018.582500", "152019.042500", "152019.502500", "152019.962500", "152020.422500", "152020.882500", "152021.342500", "152021.802500", "152022.262500", "152022.722500", "152023.182500", "152023.642500", "152024.102500", "152024.562500", "152025.022500", "152025.482500", "152025.942500", "152026.402500", "152026.862500", "152027.322500", "152027.782500", "152028.242500", "152028.702500", "152029.162500", "152029.622500", "152030.082500", "152030.542500", "152031.002500", "152031.462500", "152031.922500", "152032.382500", "152032.842500", "152033.302500", "152033.762500", "152034.222500", "152034.682500", "152035.142500", "152035.602500", "152036.062500", "152036.522500", "152036.982500", "152037.442500", "152037.902500", "152038.362500", "152038.822500", "152039.282500", "152039.742500", "152040.202500", "152040.662500", "152041.122500", "152041.582500", "152042.042500", "152042.502500", "152042.962500", "152043.422500", "152043.882500", "152044.342500", "152044.802500", "152045.262500", "152045.722500", "152046.182500", "152046.642500", "152047.102500", "152047.562500", "152048.022500", "152048.482500", "152048.942500", "152049.402500", "152049.862500", "152050.322500", "152050.782500", "152051.242500", "152051.702500", "152052.162500", "152052.622500", "152053.082500", "152053.542500", "152054.002500", "152054.462500", "152054.922500", "152055.382500", "152055.842500", "152056.302500", "152056.762500", "152057.222500", "152057.682500", "152058.142500", "152058.602500", "152059.062500", "152059.522500", "152059.982500", "152100.442500", "152100.902500", "152101.362500", "152101.822500", "152102.282500", "152102.742500", "152103.202500", "152103.662500", "152104.122500", "152104.582500", "152105.042500", "152105.502500", "152105.962500", "152106.422500", "152106.882500", "152107.342500", "152107.802500", "152108.262500", "152108.722500", "152109.182500", "152109.642500", "152110.102500", "152110.562500", "152111.022500", "152111.482500", "152111.942500", "152112.402500", "152112.862500", "152113.322500", "152113.782500", "152114.242500", "152114.702500", "152115.162500", "152115.622500", "152116.082500", "152116.542500", "152117.002500", "152117.462500", "152117.922500", "152118.382500", "152118.842500", "152119.302500", "152119.762500", "152120.222500", "152120.682500", "152121.142500", "152121.602500", "152122.062500", "152122.522500", "152122.982500", "152123.442500", "152123.902500", "152124.362500", "152124.822500", "152125.282500", "152125.742500", "152126.202500", "152126.662500", "152127.122500", "152127.582500", "152128.042500", "152128.502500", "152128.962500", "152129.422500", "152129.882500", "152130.342500", "152130.802500", "152131.262500", "152131.722500", "152132.182500", "152132.642500", "152133.102500", "152133.562500", "152134.022500", "152134.482500", "152134.942500", "152135.402500", "152135.862500", "152136.322500", "152136.782500", "152137.242500", "152137.702500", "152138.162500", "152138.622500", "152139.082500", "152139.542500", "152140.002500", "152140.462500", "152140.922500", "152141.382500", "152141.842500", "152142.302500", "152142.762500", "152143.222500", "152143.682500", "152144.142500", "152144.602500", "152145.062500", "152145.522500", "152145.982500", "152146.442500", "152146.902500", "152147.362500"],
