{
  "AcquisitionMatrixPE": 82,
  "AcquisitionNumber": 1,
  "AcquisitionTime": "16:17:15.690000",
  "BandwidthPerPixelPhaseEncode": 24.888,
  "BaseResolution": 82,
  "BodyPartExamined": "BRAIN",
  "ConsistencyInfo": "N4_VE11C_LATEST_20160120",
  "ConversionSoftware": "dcm2niix",
  "ConversionSoftwareVersion": "v1.0.20201102",
  "DerivedVendorReportedEchoSpacing": 0.00049,
  "DeviceSerialNumber": "66112",
  "DwellTime": 2e-06,
  "EchoTime": 0.0272,
  "EchoTrainLength": 82,
  "EffectiveEchoSpacing": 0.00049,
  "FlipAngle": 44,
  "ImageComments": "Unaliased MB8/PE3",
  "ImageOrientationPatientDICOM": [0.999292, -0.0373187, 0.00479621, 0.036817, 0.996125, 0.0798767],
  "ImageType": [
    "ORIGINAL",
    "PRIMARY",
    "M",
    "MB",
    "ND",
    "NORM",
    "MOSAIC"
],
  "ImagingFrequency": 123.252,
  "InPlanePhaseEncodingDirectionDICOM": "COL",
  "InstitutionAddress": "Maynard 3,Hanover,NH,US,03755",
  "InstitutionName": "Dartmouth College - PBS",
  "InstitutionalDepartmentName": "Department",
  "MRAcquisitionType": "2D",
  "MagneticFieldStrength": 3,
  "Manufacturer": "Siemens",
  "ManufacturersModelName": "Prisma",
  "Modality": "MR",
  "MultibandAccelerationFactor": 8,
  "PartialFourier": 1,
  "PatientPosition": "HFS",
  "PercentPhaseFOV": 100,
  "PercentSampling": 100,
  "PhaseEncodingDirection": "j-",
  "PhaseEncodingSteps": 82,
  "PhaseResolution": 1,
  "PixelBandwidth": 3050,
  "ProcedureStepDescription": "Wager_Wager^1076_spacetop",
  "ProtocolName": "func_run-01_task-alignvideo_acq-ap-mb8",
  "PulseSequenceDetails": "%CustomerSeq%\\cmrr_mbep2d_bold",
  "ReceiveCoilActiveElements": "HEA;HEP",
  "ReceiveCoilName": "Head_32",
  "ReconMatrixPE": 82,
  "RepetitionTime": 0.46,
  "SAR": 0.088525,
  "ScanOptions": "FS",
  "ScanningSequence": "EP",
  "SequenceName": "epfid2d1_82",
  "SequenceVariant": "SK\\SS",
  "SeriesDescription": "func_run-01_task-alignvideo_acq-ap-mb8",
  "SeriesNumber": 28,
  "ShimSetting": [4151, -7784, -7227, 587, -86, -223, 67, 62],
  "SliceThickness": 2.7,
  "SliceTiming": [0, 0.25, 0.0625, 0.3125, 0.125, 0.3775, 0.1875, 0, 0.25, 0.0625, 0.3125, 0.125, 0.3775, 0.1875, 0, 0.25, 0.0625, 0.3125, 0.125, 0.3775, 0.1875, 0, 0.25, 0.0625, 0.3125, 0.125, 0.3775, 0.1875, 0, 0.25, 0.0625, 0.3125, 0.125, 0.3775, 0.1875, 0, 0.25, 0.0625, 0.3125, 0.125, 0.3775, 0.1875, 0, 0.25, 0.0625, 0.3125, 0.125, 0.3775, 0.1875, 0, 0.25, 0.0625, 0.3125, 0.125, 0.3775, 0.1875],
  "SoftwareVersions": "syngo MR E11",
  "SpacingBetweenSlices": 2.7,
  "StationName": "AWP66112",
  "TaskName": "alignvideo",
  "TotalReadoutTime": 0.03969,
  "TxRefAmp": 250.856,
  "WipMemBlock": "a86c1059-1406-462e-88ff-16f68f72f552||Sequence: R016 ve11c/master r/e634e98; Dec 19 2017 11:00:25 by eja",
  "dcmmeta_affine": [
    [-2.6810271739959717, 0.09877731651067734, 0.020947979763150215, 106.22103118896484],
    [0.10012323409318924, 2.672529458999634, 0.215037539601326, -98.50517272949219],
    [0.012867875397205353, -0.21430328488349915, 2.6913416385650635, -61.857086181640625],
    [0.0, 0.0, 0.0, 1.0]
],
  "dcmmeta_reorient_transform": [
    [0.0, -1.0, 0.0, 81.0],
    [1.0, 0.0, 0.0, 0.0],
    [0.0, 0.0, 1.0, 0.0],
    [0.0, 0.0, 0.0, 1.0]
],
  "dcmmeta_shape": [82, 82, 56, 839],
  "dcmmeta_slice_dim": 2,
  "dcmmeta_version": 0.6,
  "global": {
    "const": {
      "AccessionNumber": "A003827",
      "AcquisitionMatrix": [82, 0, 0, 82],
      "AngioFlag": "N",
      "BitsAllocated": 16,
      "BitsStored": 16,
      "BodyPartExamined": "BRAIN",
      "Columns": 656,
      "EchoNumbers": 1,
      "EchoTime": 27.2,
      "EchoTrainLength": 82,
      "FlipAngle": 44.0,
      "HighBit": 15,
      "ImageOrientationPatient": [0.99929190636093, -0.0373186584824, 0.00479620794059, 0.0368169986234, 0.99612460340721, 0.07987667431226],
      "ImagePositionPatient": [-912.025870433, -856.25031213622, -144.41377237532],
      "ImageType": [
        "ORIGINAL",
        "PRIMARY",
        "M",
        "MB",
        "ND",
        "NORM",
        "MOSAIC"
],
      "ImagedNucleus": "1H",
      "ImagingFrequency": 123.252194,
      "InPlanePhaseEncodingDirection": "COL",
      "MRAcquisitionType": "2D",
      "MagneticFieldStrength": 3.0,
      "Manufacturer": "SIEMENS",
      "ManufacturerModelName": "Prisma",
      "Modality": "MR",
      "NumberOfAverages": 1.0,
      "NumberOfPhaseEncodingSteps": 82,
      "PercentPhaseFieldOfView": 100.0,
      "PercentSampling": 100.0,
      "PerformedProcedureStepStartTime": "150351.860000",
      "PhotometricInterpretation": "MONOCHROME2",
      "PixelBandwidth": 3050.0,
      "PixelRepresentation": 0,
      "PixelSpacing": [2.6829268932343, 2.6829268932343],
      "ProtocolName": "func_run-01_task-alignvideo_acq-ap-mb8",
      "RepetitionTime": 460.0,
      "Rows": 656,
      "SAR": 0.08852495827101,
      "SamplesPerPixel": 1,
      "ScanOptions": "FS",
      "ScanningSequence": "EP",
      "SequenceName": "epfid2d1_82",
      "SequenceVariant": [
        "SK",
        "SS"
],
      "SeriesDescription": "func_run-01_task-alignvideo_acq-ap-mb8",
      "SeriesNumber": 28,
      "SeriesTime": "161741.220000",
      "SliceLocation": -68.679906361748,
      "SliceThickness": 2.7000000476837,
      "SmallestImagePixelValue": 0,
      "SoftwareVersions": "syngo MR E11",
      "SpacingBetweenSlices": 2.7000000664692,
      "SpecificCharacterSet": "ISO_IR 100",
      "StudyID": "1",
      "StudyTime": "150351.801000",
      "TransmitCoilName": "Body",
      "VariableFlipAngleFlag": "N",
      "WindowCenterWidthExplanation": "Algo1",
      "dBdt": 0.0},
    "slices": {}
  },
  "time": {
    "samples": {
      "AcquisitionNumber": [1, 2, 3, 4, 5, 6, 7, 8, 9, 10, 11, 12, 13, 14, 15, 16, 17, 18, 19, 20, 21, 22, 23, 24, 25, 26, 27, 28, 29, 30, 31, 32, 33, 34, 35, 36, 37, 38, 39, 40, 41, 42, 43, 44, 45, 46, 47, 48, 49, 50, 51, 52, 53, 54, 55, 56, 57, 58, 59, 60, 61, 62, 63, 64, 65, 66, 67, 68, 69, 70, 71, 72, 73, 74, 75, 76, 77, 78, 79, 80, 81, 82, 83, 84, 85, 86, 87, 88, 89, 90, 91, 92, 93, 94, 95, 96, 97, 98, 99, 100, 101, 102, 103, 104, 105, 106, 107, 108, 109, 110, 111, 112, 113, 114, 115, 116, 117, 118, 119, 120, 121, 122, 123, 124, 125, 126, 127, 128, 129, 130, 131, 132, 133, 134, 135, 136, 137, 138, 139, 140, 141, 142, 143, 144, 145, 146, 147, 148, 149, 150, 151, 152, 153, 154, 155, 156, 157, 158, 159, 160, 161, 162, 163, 164, 165, 166, 167, 168, 169, 170, 171, 172, 173, 174, 175, 176, 177, 178, 179, 180, 181, 182, 183, 184, 185, 186, 187, 188, 189, 190, 191, 192, 193, 194, 195, 196, 197, 198, 199, 200, 201, 202, 203, 204, 205, 206, 207, 208, 209, 210, 211, 212, 213, 214, 215, 216, 217, 218, 219, 220, 221, 222, 223, 224, 225, 226, 227, 228, 229, 230, 231, 232, 233, 234, 235, 236, 237, 238, 239, 240, 241, 242, 243, 244, 245, 246, 247, 248, 249, 250, 251, 252, 253, 254, 255, 256, 257, 258, 259, 260, 261, 262, 263, 264, 265, 266, 267, 268, 269, 270, 271, 272, 273, 274, 275, 276, 277, 278, 279, 280, 281, 282, 283, 284, 285, 286, 287, 288, 289, 290, 291, 292, 293, 294, 295, 296, 297, 298, 299, 300, 301, 302, 303, 304, 305, 306, 307, 308, 309, 310, 311, 312, 313, 314, 315, 316, 317, 318, 319, 320, 321, 322, 323, 324, 325, 326, 327, 328, 329, 330, 331, 332, 333, 334, 335, 336, 337, 338, 339, 340, 341, 342, 343, 344, 345, 346, 347, 348, 349, 350, 351, 352, 353, 354, 355, 356, 357, 358, 359, 360, 361, 362, 363, 364, 365, 366, 367, 368, 369, 370, 371, 372, 373, 374, 375, 376, 377, 378, 379, 380, 381, 382, 383, 384, 385, 386, 387, 388, 389, 390, 391, 392, 393, 394, 395, 396, 397, 398, 399, 400, 401, 402, 403, 404, 405, 406, 407, 408, 409, 410, 411, 412, 413, 414, 415, 416, 417, 418, 419, 420, 421, 422, 423, 424, 425, 426, 427, 428, 429, 430, 431, 432, 433, 434, 435, 436, 437, 438, 439, 440, 441, 442, 443, 444, 445, 446, 447, 448, 449, 450, 451, 452, 453, 454, 455, 456, 457, 458, 459, 460, 461, 462, 463, 464, 465, 466, 467, 468, 469, 470, 471, 472, 473, 474, 475, 476, 477, 478, 479, 480, 481, 482, 483, 484, 485, 486, 487, 488, 489, 490, 491, 492, 493, 494, 495, 496, 497, 498, 499, 500, 501, 502, 503, 504, 505, 506, 507, 508, 509, 510, 511, 512, 513, 514, 515, 516, 517, 518, 519, 520, 521, 522, 523, 524, 525, 526, 527, 528, 529, 530, 531, 532, 533, 534, 535, 536, 537, 538, 539, 540, 541, 542, 543, 544, 545, 546, 547, 548, 549, 550, 551, 552, 553, 554, 555, 556, 557, 558, 559, 560, 561, 562, 563, 564, 565, 566, 567, 568, 569, 570, 571, 572, 573, 574, 575, 576, 577, 578, 579, 580, 581, 582, 583, 584, 585, 586, 587, 588, 589, 590, 591, 592, 593, 594, 595, 596, 597, 598, 599, 600, 601, 602, 603, 604, 605, 606, 607, 608, 609, 610, 611, 612, 613, 614, 615, 616, 617, 618, 619, 620, 621, 622, 623, 624, 625, 626, 627, 628, 629, 630, 631, 632, 633, 634, 635, 636, 637, 638, 639, 640, 641, 642, 643, 644, 645, 646, 647, 648, 649, 650, 651, 652, 653, 654, 655, 656, 657, 658, 659, 660, 661, 662, 663, 664, 665, 666, 667, 668, 669, 670, 671, 672, 673, 674, 675, 676, 677, 678, 679, 680, 681, 682, 683, 684, 685, 686, 687, 688, 689, 690, 691, 692, 693, 694, 695, 696, 697, 698, 699, 700, 701, 702, 703, 704, 705, 706, 707, 708, 709, 710, 711, 712, 713, 714, 715, 716, 717, 718, 719, 720, 721, 722, 723, 724, 725, 726, 727, 728, 729, 730, 731, 732, 733, 734, 735, 736, 737, 738, 739, 740, 741, 742, 743, 744, 745, 746, 747, 748, 749, 750, 751, 752, 753, 754, 755, 756, 757, 758, 759, 760, 761, 762, 763, 764, 765, 766, 767, 768, 769, 770, 771, 772, 773, 774, 775, 776, 777, 778, 779, 780, 781, 782, 783, 784, 785, 786, 787, 788, 789, 790, 791, 792, 793, 794, 795, 796, 797, 798, 799, 800, 801, 802, 803, 804, 805, 806, 807, 808, 809, 810, 811, 812, 813, 814, 815, 816, 817, 818, 819, 820, 821, 822, 823, 824, 825, 826, 827, 828, 829, 830, 831, 832, 833, 834, 835, 836, 837, 838, 839],
      "AcquisitionTime": ["161715.690000", "161716.150000", "161716.610000", "161717.070000", "161717.530000", "161717.990000", "161718.450000", "161718.910000", "161719.370000", "161719.830000", "161720.290000", "161720.750000", "161721.210000", "161721.670000", "161722.130000", "161722.590000", "161723.050000", "161723.510000", "161723.970000", "161724.430000", "161724.890000", "161725.350000", "161725.810000", "161726.270000", "161726.730000", "161727.190000", "161727.650000", "161728.110000", "161728.570000", "161729.030000", "161729.490000", "161729.950000", "161730.410000", "161730.870000", "161731.330000", "161731.790000", "161732.250000", "161732.710000", "161733.170000", "161733.630000", "161734.090000", "161734.550000", "161735.010000", "161735.470000", "161735.930000", "161736.390000", "161736.850000", "161737.310000", "161737.770000", "161738.230000", "161738.690000", "161739.150000", "161739.610000", "161740.070000", "161740.530000", "161740.990000", "161741.450000", "161741.910000", "161742.370000", "161742.830000", "161743.290000", "161743.750000", "161744.210000", "161744.670000", "161745.130000", "161745.590000", "161746.050000", "161746.510000", "161746.970000", "161747.430000", "161747.890000", "161748.350000", "161748.810000", "161749.270000", "161749.730000", "161750.190000", "161750.650000", "161751.110000", "161751.570000", "161752.030000", "161752.490000", "161752.950000", "161753.410000", "161753.870000", "161754.330000", "161754.790000", "161755.250000", "161755.710000", "161756.170000", "161756.630000", "161757.090000", "161757.550000", "161758.010000", "161758.470000", "161758.930000", "161759.390000", "161759.850000", "161800.310000", "161800.770000", "161801.230000", "161801.690000", "161802.150000", "161802.610000", "161803.070000", "161803.530000", "161803.990000", "161804.450000", "161804.910000", "161805.370000", "161805.830000", "161806.290000", "161806.750000", "161807.210000", "161807.670000", "161808.130000", "161808.590000", "161809.050000", "161809.510000", "161809.970000", "161810.430000", "161810.890000", "161811.350000", "161811.810000", "161812.270000", "161812.730000", "161813.190000", "161813.650000", "161814.110000", "161814.570000", "161815.030000", "161815.490000", "161815.950000", "161816.410000", "161816.870000", "161817.330000", "161817.790000", "161818.250000", "161818.710000", "161819.170000", "161819.630000", "161820.090000", "161820.550000", "161821.010000", "161821.470000", "161821.930000", "161822.390000", "161822.850000", "161823.310000", "161823.770000", "161824.230000", "161824.690000", "161825.150000", "161825.610000", "161826.070000", "161826.530000", "161826.990000", "161827.450000", "161827.910000", "161828.370000", "161828.830000", "161829.290000", "161829.750000", "161830.210000", "161830.670000", "161831.130000", "161831.590000", "161832.050000", "161832.510000", "161832.970000", "161833.430000", "161833.890000", "161834.350000", "161834.810000", "161835.270000", "161835.730000", "161836.190000", "161836.650000", "161837.110000", "161837.570000", "161838.030000", "161838.490000", "161838.950000", "161839.410000", "161839.870000", "161840.330000", "161840.790000", "161841.250000", "161841.710000", "161842.170000", "161842.630000", "161843.090000", "161843.550000", "161844.010000", "161844.470000", "161844.930000", "161845.390000", "161845.850000", "161846.310000", "161846.770000", "161847.230000", "161847.690000", "161848.150000", "161848.610000", "161849.070000", "161849.530000", "161849.990000", "161850.450000", "161850.910000", "161851.370000", "161851.830000", "161852.290000", "161852.750000", "161853.210000", "161853.670000", "161854.130000", "161854.590000", "161855.050000", "161855.510000", "161855.970000", "161856.430000", "161856.890000", "161857.350000", "161857.810000", "161858.270000", "161858.730000", "161859.190000", "161859.650000", "161900.110000", "161900.570000", "161901.030000", "161901.490000", "161901.950000", "161902.410000", "161902.870000", "161903.330000", "161903.790000", "161904.250000", "161904.710000", "161905.170000", "161905.630000", "161906.090000", "161906.550000", "161907.010000", "161907.470000", "161907.930000", "161908.390000", "161908.850000", "161909.310000", "161909.770000", "161910.230000", "161910.690000", "161911.150000", "161911.610000", "161912.070000", "161912.530000", "161912.990000", "161913.450000", "161913.910000", "161914.370000", "161914.830000", "161915.290000", "161915.750000", "161916.210000", "161916.670000", "161917.130000", "161917.590000", "161918.050000", "161918.510000", "161918.970000", "161919.430000", "161919.890000", "161920.350000", "161920.810000", "161921.270000", "161921.730000", "161922.190000", "161922.650000", "161923.110000", "161923.570000", "161924.030000", "161924.490000", "161924.950000", "161925.410000", "161925.870000", "161926.330000", "161926.790000", "161927.250000", "161927.710000", "161928.170000", "161928.630000", "161929.090000", "161929.550000", "161930.010000", "161930.470000", "161930.930000", "161931.390000", "161931.850000", "161932.310000", "161932.770000", "161933.230000", "161933.690000", "161934.150000", "161934.610000", "161935.070000", "161935.530000", "161935.990000", "161936.450000", "161936.910000", "161937.370000", "161937.830000", "161938.290000", "161938.750000", "161939.210000", "161939.670000", "161940.130000", "161940.590000", "161941.050000", "161941.510000", "161941.970000", "161942.430000", "161942.890000", "161943.350000", "161943.810000", "161944.270000", "161944.730000", "161945.190000", "161945.650000", "161946.110000", "161946.570000", "161947.030000", "161947.490000", "161947.950000", "161948.410000", "161948.870000", "161949.330000", "161949.790000", "161950.250000", "161950.710000", "161951.170000", "161951.630000", "161952.090000", "161952.550000", "161953.010000", "161953.470000", "161953.930000", "161954.390000", "161954.850000", "161955.310000", "161955.770000", "161956.230000", "161956.690000", "161957.150000", "161957.610000", "161958.070000", "161958.530000", "161958.990000", "161959.450000", "161959.910000", "162000.370000", "162000.830000", "162001.290000", "162001.750000", "162002.210000", "162002.670000", "162003.130000", "162003.590000", "162004.050000", "162004.510000", "162004.970000", "162005.430000", "162005.890000", "162006.350000", "162006.810000", "162007.270000", "162007.730000", "162008.190000", "162008.650000", "162009.110000", "162009.570000", "162010.030000", "162010.490000", "162010.950000", "162011.410000", "162011.870000", "162012.330000", "162012.790000", "162013.250000", "162013.710000", "162014.170000", "162014.630000", "162015.090000", "162015.550000", "162016.010000", "162016.470000", "162016.930000", "162017.390000", "162017.850000", "162018.310000", "162018.770000", "162019.230000", "162019.690000", "162020.150000", "162020.610000", "162021.070000", "162021.530000", "162021.990000", "162022.450000", "162022.910000", "162023.370000", "162023.830000", "162024.290000", "162024.750000", "162025.210000", "162025.670000", "162026.130000", "162026.590000", "162027.050000", "162027.510000", "162027.970000", "162028.430000", "162028.890000", "162029.350000", "162029.810000", "162030.270000", "162030.730000", "162031.190000", "162031.650000", "162032.110000", "162032.570000", "162033.030000", "162033.490000", "162033.950000", "162034.410000", "162034.870000", "162035.330000", "162035.790000", "162036.250000", "162036.710000", "162037.170000", "162037.630000", "162038.090000", "162038.550000", "162039.010000", "162039.470000", "162039.930000", "162040.390000", "162040.850000", "162041.310000", "162041.770000", "162042.230000", "162042.690000", "162043.150000", "162043.610000", "162044.070000", "162044.530000", "162044.990000", "162045.450000", "162045.910000", "162046.370000", "162046.830000", "162047.290000", "162047.750000", "162048.210000", "162048.670000", "162049.130000", "162049.590000", "162050.050000", "162050.510000", "162050.970000", "162051.430000", "162051.890000", "162052.350000", "162052.810000", "162053.270000", "162053.730000", "162054.190000", "162054.650000", "162055.110000", "162055.570000", "162056.030000", "162056.490000", "162056.950000", "162057.410000", "162057.870000", "162058.330000", "162058.790000", "162059.250000", "162059.710000", "162100.170000", "162100.630000", "162101.090000", "162101.550000", "162102.010000", "162102.470000", "162102.930000", "162103.390000", "162103.850000", "162104.310000", "162104.770000", "162105.230000", "162105.690000", "162106.150000", "162106.610000", "162107.070000", "162107.530000", "162107.990000", "162108.450000", "162108.910000", "162109.370000", "162109.830000", "162110.290000", "162110.750000", "162111.210000", "162111.670000", "162112.130000", "162112.590000", "162113.050000", "162113.510000", "162113.970000", "162114.430000", "162114.890000", "162115.350000", "162115.810000", "162116.270000", "162116.730000", "162117.190000", "162117.650000", "162118.110000", "162118.570000", "162119.030000", "162119.490000", "162119.950000", "162120.410000", "162120.870000", "162121.330000", "162121.790000", "162122.250000", "162122.710000", "162123.170000", "162123.630000", "162124.090000", "162124.550000", "162125.010000", "162125.470000", "162125.930000", "162126.390000", "162126.850000", "162127.310000", "162127.770000", "162128.230000", "162128.690000", "162129.150000", "162129.610000", "162130.070000", "162130.530000", "162130.990000", "162131.450000", "162131.910000", "162132.370000", "162132.830000", "162133.290000", "162133.750000", "162134.210000", "162134.670000", "162135.130000", "162135.590000", "162136.050000", "162136.510000", "162136.970000", "162137.430000", "162137.890000", "162138.350000", "162138.810000", "162139.270000", "162139.730000", "162140.190000", "162140.650000", "162141.110000", "162141.570000", "162142.030000", "162142.490000", "162142.950000", "162143.410000", "162143.870000", "162144.330000", "162144.790000", "162145.250000", "162145.710000", "162146.170000", "162146.630000", "162147.090000", "162147.550000", "162148.010000", "162148.470000", "162148.930000", "162149.390000", "162149.850000", "162150.310000", "162150.770000", "162151.230000", "162151.690000", "162152.150000", "162152.610000", "162153.070000", "162153.530000", "162153.990000", "162154.450000", "162154.910000", "162155.370000", "162155.830000", "162156.290000", "162156.750000", "162157.210000", "162157.670000", "162158.130000", "162158.590000", "162159.050000", "162159.510000", "162159.970000", "162200.430000", "162200.890000", "162201.350000", "162201.810000", "162202.270000", "162202.730000", "162203.190000", "162203.650000", "162204.110000", "162204.570000", "162205.030000", "162205.490000", "162205.950000", "162206.410000", "162206.870000", "162207.330000", "162207.790000", "162208.250000", "162208.710000", "162209.170000", "162209.630000", "162210.090000", "162210.550000", "162211.010000", "162211.470000", "162211.930000", "162212.390000", "162212.850000", "162213.310000", "162213.770000", "162214.230000", "162214.690000", "162215.150000", "162215.610000", "162216.070000", "162216.530000", "162216.990000", "162217.450000", "162217.910000", "162218.370000", "162218.830000", "162219.290000", "162219.750000", "162220.210000", "162220.670000", "162221.130000", "162221.590000", "162222.050000", "162222.510000", "162222.970000", "162223.430000", "162223.890000", "162224.350000", "162224.810000", "162225.270000", "162225.730000", "162226.190000", "162226.650000", "162227.110000", "162227.570000", "162228.030000", "162228.490000", "162228.950000", "162229.410000", "162229.870000", "162230.330000", "162230.790000", "162231.250000", "162231.710000", "162232.170000", "162232.630000", "162233.090000", "162233.550000", "162234.010000", "162234.470000", "162234.930000", "162235.390000", "162235.850000", "162236.310000", "162236.770000", "162237.230000", "162237.690000", "162238.150000", "162238.610000", "162239.070000", "162239.530000", "162239.990000", "162240.450000", "162240.910000", "162241.370000", "162241.830000", "162242.290000", "162242.750000", "162243.210000", "162243.670000", "162244.130000", "162244.590000", "162245.050000", "162245.510000", "162245.970000", "162246.430000", "162246.890000", "162247.350000", "162247.810000", "162248.270000", "162248.730000", "162249.190000", "162249.650000", "162250.110000", "162250.570000", "162251.030000", "162251.490000", "162251.950000", "162252.410000", "162252.870000", "162253.330000", "162253.790000", "162254.250000", "162254.710000", "162255.170000", "162255.630000", "162256.090000", "162256.550000", "162257.010000", "162257.470000", "162257.930000", "162258.390000", "162258.850000", "162259.310000", "162259.770000", "162300.230000", "162300.690000", "162301.150000", "162301.610000", "162302.070000", "162302.530000", "162302.990000", "162303.450000", "162303.910000", "162304.370000", "162304.830000", "162305.290000", "162305.750000", "162306.210000", "162306.670000", "162307.130000", "162307.590000", "162308.050000", "162308.510000", "162308.970000", "162309.430000", "162309.890000", "162310.350000", "162310.810000", "162311.270000", "162311.730000", "162312.190000", "162312.650000", "162313.110000", "162313.570000", "162314.030000", "162314.490000", "162314.950000", "162315.410000", "162315.870000", "162316.330000", "162316.790000", "162317.250000", "162317.710000", "162318.170000", "162318.630000", "162319.090000", "162319.550000", "162320.010000", "162320.470000", "162320.930000", "162321.390000", "162321.850000", "162322.310000", "162322.770000", "162323.230000", "162323.690000", "162324.150000", "162324.610000", "162325.070000", "162325.530000", "162325.990000", "162326.450000", "162326.910000", "162327.370000", "162327.830000", "162328.290000", "162328.750000", "162329.210000", "162329.670000", "162330.130000", "162330.590000", "162331.050000", "162331.510000", "162331.970000", "162332.430000", "162332.890000", "162333.350000", "162333.810000", "162334.270000", "162334.730000", "162335.190000", "162335.650000", "162336.110000", "162336.570000", "162337.030000", "162337.490000", "162337.950000", "162338.410000", "162338.870000", "162339.330000", "162339.790000", "162340.250000", "162340.710000", "162341.170000"],
