{
  "AcquisitionMatrixPE": 82,
  "AcquisitionNumber": 1,
  "AcquisitionTime": "15:58:56.020000",
  "BandwidthPerPixelPhaseEncode": 24.888,
  "BaseResolution": 82,
  "BodyPartExamined": "BRAIN",
  "ConsistencyInfo": "N4_VE11C_LATEST_20160120",
  "ConversionSoftware": "dcm2niix",
  "ConversionSoftwareVersion": "v1.0.20201102",
  "DerivedVendorReportedEchoSpacing": 0.00049,
  "DeviceSerialNumber": "66112",
  "DwellTime": 2e-06,
  "EchoTime": 0.0272,
  "EchoTrainLength": 82,
  "EffectiveEchoSpacing": 0.00049,
  "FlipAngle": 44,
  "ImageComments": "Unaliased MB8/PE3",
  "ImageOrientationPatientDICOM": [0.999622, -0.023906, 0.0135865, 0.0218118, 0.99025, 0.137585],
  "ImageType": [
    "ORIGINAL",
    "PRIMARY",
    "M",
    "MB",
    "ND",
    "NORM",
    "MOSAIC"
],
  "ImagingFrequency": 123.252,
  "InPlanePhaseEncodingDirectionDICOM": "COL",
  "InstitutionAddress": "Maynard 3,Hanover,NH,US,03755",
  "InstitutionName": "Dartmouth College - PBS",
  "InstitutionalDepartmentName": "Department",
  "MRAcquisitionType": "2D",
  "MagneticFieldStrength": 3,
  "Manufacturer": "Siemens",
  "ManufacturersModelName": "Prisma",
  "Modality": "MR",
  "MultibandAccelerationFactor": 8,
  "PartialFourier": 1,
  "PatientPosition": "HFS",
  "PercentPhaseFOV": 100,
  "PercentSampling": 100,
  "PhaseEncodingDirection": "j-",
  "PhaseEncodingSteps": 82,
  "PhaseResolution": 1,
  "PixelBandwidth": 3050,
  "ProcedureStepDescription": "Wager_Wager^1076_spacetop",
  "ProtocolName": "func_run-02_task-faces_acq-ap-mb8",
  "PulseSequenceDetails": "%CustomerSeq%\\cmrr_mbep2d_bold",
  "ReceiveCoilActiveElements": "HEA;HEP",
  "ReceiveCoilName": "Head_32",
  "ReconMatrixPE": 82,
  "RepetitionTime": 0.46,
  "SAR": 0.0885718,
  "ScanOptions": "FS",
  "ScanningSequence": "EP",
  "SequenceName": "epfid2d1_82",
  "SequenceVariant": "SK\\SS",
  "SeriesDescription": "func_run-02_task-faces_acq-ap-mb8",
  "SeriesNumber": 18,
  "ShimSetting": [4150, -7784, -7229, 560, -89, -215, 72, 61],
  "SliceThickness": 2.7,
  "SliceTiming": [0, 0.25, 0.0625, 0.3125, 0.125, 0.375, 0.1875, 0, 0.25, 0.0625, 0.3125, 0.125, 0.375, 0.1875, 0, 0.25, 0.0625, 0.3125, 0.125, 0.375, 0.1875, 0, 0.25, 0.0625, 0.3125, 0.125, 0.375, 0.1875, 0, 0.25, 0.0625, 0.3125, 0.125, 0.375, 0.1875, 0, 0.25, 0.0625, 0.3125, 0.125, 0.375, 0.1875, 0, 0.25, 0.0625, 0.3125, 0.125, 0.375, 0.1875, 0, 0.25, 0.0625, 0.3125, 0.125, 0.375, 0.1875],
  "SoftwareVersions": "syngo MR E11",
  "SpacingBetweenSlices": 2.7,
  "StationName": "AWP66112",
  "TaskName": "faces",
  "TotalReadoutTime": 0.03969,
  "TxRefAmp": 250.856,
  "WipMemBlock": "6485a093-27e1-4125-a56b-8853fab12f95||Sequence: R016 ve11c/master r/e634e98; Dec 19 2017 11:00:25 by eja",
  "dcmmeta_affine": [
    [-2.681912422180176, 0.05851955711841583, 0.045206472277641296, 107.15828704833984],
    [0.06413798779249191, 2.6567676067352295, 0.3705391585826874, -97.83098602294922],
    [0.03645159676671028, -0.3691307306289673, 2.6740713119506836, -55.41724395751953],
    [0.0, 0.0, 0.0, 1.0]
],
  "dcmmeta_reorient_transform": [
    [0.0, -1.0, 0.0, 81.0],
    [1.0, 0.0, 0.0, 0.0],
    [0.0, 0.0, 1.0, 0.0],
    [0.0, 0.0, 0.0, 1.0]
],
  "dcmmeta_shape": [82, 82, 56, 914],
  "dcmmeta_slice_dim": 2,
  "dcmmeta_version": 0.6,
  "global": {
    "const": {
      "AccessionNumber": "A003827",
      "AcquisitionMatrix": [82, 0, 0, 82],
      "AngioFlag": "N",
      "BitsAllocated": 16,
      "BitsStored": 16,
      "BodyPartExamined": "BRAIN",
      "Columns": 656,
      "EchoNumbers": 1,
      "EchoTime": 27.2,
      "EchoTrainLength": 82,
      "FlipAngle": 44.0,
      "HighBit": 15,
      "ImageOrientationPatient": [0.99962188411552, -0.0239059763235, 0.01358650408894, 0.02181183429509, 0.99024975959653, 0.1375850918657],
      "ImagePositionPatient": [-898.40235580133, -861.45193031514, -201.71896537546],
      "ImageType": [
        "ORIGINAL",
        "PRIMARY",
        "M",
        "MB",
        "ND",
        "NORM",
        "MOSAIC"
],
      "ImagedNucleus": "1H",
      "ImagingFrequency": 123.252198,
      "InPlanePhaseEncodingDirection": "COL",
      "MRAcquisitionType": "2D",
      "MagneticFieldStrength": 3.0,
      "Manufacturer": "SIEMENS",
      "ManufacturerModelName": "Prisma",
      "Modality": "MR",
      "NumberOfAverages": 1.0,
      "NumberOfPhaseEncodingSteps": 82,
      "PercentPhaseFieldOfView": 100.0,
      "PercentSampling": 100.0,
      "PerformedProcedureStepStartTime": "150351.860000",
      "PhotometricInterpretation": "MONOCHROME2",
      "PixelBandwidth": 3050.0,
      "PixelRepresentation": 0,
      "PixelSpacing": [2.6829268932343, 2.6829268932343],
      "ProtocolName": "func_run-02_task-faces_acq-ap-mb8",
      "RepetitionTime": 460.0,
      "Rows": 656,
      "SAR": 0.08857182038025,
      "SamplesPerPixel": 1,
      "ScanOptions": "FS",
      "ScanningSequence": "EP",
      "SequenceName": "epfid2d1_82",
      "SequenceVariant": [
        "SK",
        "SS"
],
      "SeriesDescription": "func_run-02_task-faces_acq-ap-mb8",
      "SeriesNumber": 18,
      "SeriesTime": "155921.299000",
      "SliceLocation": -66.516896294038,
      "SliceThickness": 2.7000000476837,
      "SmallestImagePixelValue": 0,
      "SoftwareVersions": "syngo MR E11",
      "SpacingBetweenSlices": 2.7000000317927,
      "SpecificCharacterSet": "ISO_IR 100",
      "StudyID": "1",
      "StudyTime": "150351.801000",
      "TransmitCoilName": "Body",
      "VariableFlipAngleFlag": "N",
      "WindowCenterWidthExplanation": "Algo1",
      "dBdt": 0.0},
    "slices": {}
  },
  "time": {
    "samples": {
      "AcquisitionNumber": [1, 2, 3, 4, 5, 6, 7, 8, 9, 10, 11, 12, 13, 14, 15, 16, 17, 18, 19, 20, 21, 22, 23, 24, 25, 26, 27, 28, 29, 30, 31, 32, 33, 34, 35, 36, 37, 38, 39, 40, 41, 42, 43, 44, 45, 46, 47, 48, 49, 50, 51, 52, 53, 54, 55, 56, 57, 58, 59, 60, 61, 62, 63, 64, 65, 66, 67, 68, 69, 70, 71, 72, 73, 74, 75, 76, 77, 78, 79, 80, 81, 82, 83, 84, 85, 86, 87, 88, 89, 90, 91, 92, 93, 94, 95, 96, 97, 98, 99, 100, 101, 102, 103, 104, 105, 106, 107, 108, 109, 110, 111, 112, 113, 114, 115, 116, 117, 118, 119, 120, 121, 122, 123, 124, 125, 126, 127, 128, 129, 130, 131, 132, 133, 134, 135, 136, 137, 138, 139, 140, 141, 142, 143, 144, 145, 146, 147, 148, 149, 150, 151, 152, 153, 154, 155, 156, 157, 158, 159, 160, 161, 162, 163, 164, 165, 166, 167, 168, 169, 170, 171, 172, 173, 174, 175, 176, 177, 178, 179, 180, 181, 182, 183, 184, 185, 186, 187, 188, 189, 190, 191, 192, 193, 194, 195, 196, 197, 198, 199, 200, 201, 202, 203, 204, 205, 206, 207, 208, 209, 210, 211, 212, 213, 214, 215, 216, 217, 218, 219, 220, 221, 222, 223, 224, 225, 226, 227, 228, 229, 230, 231, 232, 233, 234, 235, 236, 237, 238, 239, 240, 241, 242, 243, 244, 245, 246, 247, 248, 249, 250, 251, 252, 253, 254, 255, 256, 257, 258, 259, 260, 261, 262, 263, 264, 265, 266, 267, 268, 269, 270, 271, 272, 273, 274, 275, 276, 277, 278, 279, 280, 281, 282, 283, 284, 285, 286, 287, 288, 289, 290, 291, 292, 293, 294, 295, 296, 297, 298, 299, 300, 301, 302, 303, 304, 305, 306, 307, 308, 309, 310, 311, 312, 313, 314, 315, 316, 317, 318, 319, 320, 321, 322, 323, 324, 325, 326, 327, 328, 329, 330, 331, 332, 333, 334, 335, 336, 337, 338, 339, 340, 341, 342, 343, 344, 345, 346, 347, 348, 349, 350, 351, 352, 353, 354, 355, 356, 357, 358, 359, 360, 361, 362, 363, 364, 365, 366, 367, 368, 369, 370, 371, 372, 373, 374, 375, 376, 377, 378, 379, 380, 381, 382, 383, 384, 385, 386, 387, 388, 389, 390, 391, 392, 393, 394, 395, 396, 397, 398, 399, 400, 401, 402, 403, 404, 405, 406, 407, 408, 409, 410, 411, 412, 413, 414, 415, 416, 417, 418, 419, 420, 421, 422, 423, 424, 425, 426, 427, 428, 429, 430, 431, 432, 433, 434, 435, 436, 437, 438, 439, 440, 441, 442, 443, 444, 445, 446, 447, 448, 449, 450, 451, 452, 453, 454, 455, 456, 457, 458, 459, 460, 461, 462, 463, 464, 465, 466, 467, 468, 469, 470, 471, 472, 473, 474, 475, 476, 477, 478, 479, 480, 481, 482, 483, 484, 485, 486, 487, 488, 489, 490, 491, 492, 493, 494, 495, 496, 497, 498, 499, 500, 501, 502, 503, 504, 505, 506, 507, 508, 509, 510, 511, 512, 513, 514, 515, 516, 517, 518, 519, 520, 521, 522, 523, 524, 525, 526, 527, 528, 529, 530, 531, 532, 533, 534, 535, 536, 537, 538, 539, 540, 541, 542, 543, 544, 545, 546, 547, 548, 549, 550, 551, 552, 553, 554, 555, 556, 557, 558, 559, 560, 561, 562, 563, 564, 565, 566, 567, 568, 569, 570, 571, 572, 573, 574, 575, 576, 577, 578, 579, 580, 581, 582, 583, 584, 585, 586, 587, 588, 589, 590, 591, 592, 593, 594, 595, 596, 597, 598, 599, 600, 601, 602, 603, 604, 605, 606, 607, 608, 609, 610, 611, 612, 613, 614, 615, 616, 617, 618, 619, 620, 621, 622, 623, 624, 625, 626, 627, 628, 629, 630, 631, 632, 633, 634, 635, 636, 637, 638, 639, 640, 641, 642, 643, 644, 645, 646, 647, 648, 649, 650, 651, 652, 653, 654, 655, 656, 657, 658, 659, 660, 661, 662, 663, 664, 665, 666, 667, 668, 669, 670, 671, 672, 673, 674, 675, 676, 677, 678, 679, 680, 681, 682, 683, 684, 685, 686, 687, 688, 689, 690, 691, 692, 693, 694, 695, 696, 697, 698, 699, 700, 701, 702, 703, 704, 705, 706, 707, 708, 709, 710, 711, 712, 713, 714, 715, 716, 717, 718, 719, 720, 721, 722, 723, 724, 725, 726, 727, 728, 729, 730, 731, 732, 733, 734, 735, 736, 737, 738, 739, 740, 741, 742, 743, 744, 745, 746, 747, 748, 749, 750, 751, 752, 753, 754, 755, 756, 757, 758, 759, 760, 761, 762, 763, 764, 765, 766, 767, 768, 769, 770, 771, 772, 773, 774, 775, 776, 777, 778, 779, 780, 781, 782, 783, 784, 785, 786, 787, 788, 789, 790, 791, 792, 793, 794, 795, 796, 797, 798, 799, 800, 801, 802, 803, 804, 805, 806, 807, 808, 809, 810, 811, 812, 813, 814, 815, 816, 817, 818, 819, 820, 821, 822, 823, 824, 825, 826, 827, 828, 829, 830, 831, 832, 833, 834, 835, 836, 837, 838, 839, 840, 841, 842, 843, 844, 845, 846, 847, 848, 849, 850, 851, 852, 853, 854, 855, 856, 857, 858, 859, 860, 861, 862, 863, 864, 865, 866, 867, 868, 869, 870, 871, 872, 873, 874, 875, 876, 877, 878, 879, 880, 881, 882, 883, 884, 885, 886, 887, 888, 889, 890, 891, 892, 893, 894, 895, 896, 897, 898, 899, 900, 901, 902, 903, 904, 905, 906, 907, 908, 909, 910, 911, 912, 913, 914],
      "AcquisitionTime": ["155856.020000", "155856.480000", "155856.940000", "155857.400000", "155857.860000", "155858.320000", "155858.780000", "155859.240000", "155859.700000", "155900.160000", "155900.620000", "155901.080000", "155901.540000", "155902.000000", "155902.460000", "155902.920000", "155903.380000", "155903.840000", "155904.300000", "155904.760000", "155905.220000", "155905.680000", "155906.140000", "155906.600000", "155907.060000", "155907.520000", "155907.980000", "155908.440000", "155908.900000", "155909.360000", "155909.820000", "155910.280000", "155910.740000", "155911.200000", "155911.660000", "155912.120000", "155912.580000", "155913.040000", "155913.500000", "155913.960000", "155914.420000", "155914.880000", "155915.340000", "155915.800000", "155916.260000", "155916.720000", "155917.180000", "155917.640000", "155918.100000", "155918.560000", "155919.020000", "155919.480000", "155919.940000", "155920.400000", "155920.860000", "155921.320000", "155921.780000", "155922.240000", "155922.700000", "155923.160000", "155923.620000", "155924.080000", "155924.540000", "155925.000000", "155925.460000", "155925.920000", "155926.380000", "155926.840000", "155927.300000", "155927.760000", "155928.220000", "155928.680000", "155929.140000", "155929.600000", "155930.060000", "155930.520000", "155930.980000", "155931.440000", "155931.900000", "155932.360000", "155932.820000", "155933.280000", "155933.740000", "155934.200000", "155934.660000", "155935.120000", "155935.580000", "155936.040000", "155936.500000", "155936.960000", "155937.420000", "155937.880000", "155938.340000", "155938.800000", "155939.260000", "155939.720000", "155940.180000", "155940.640000", "155941.100000", "155941.560000", "155942.020000", "155942.480000", "155942.940000", "155943.400000", "155943.860000", "155944.320000", "155944.780000", "155945.240000", "155945.700000", "155946.160000", "155946.620000", "155947.080000", "155947.540000", "155948.000000", "155948.460000", "155948.920000", "155949.380000", "155949.840000", "155950.300000", "155950.760000", "155951.220000", "155951.680000", "155952.140000", "155952.600000", "155953.060000", "155953.520000", "155953.980000", "155954.440000", "155954.900000", "155955.360000", "155955.820000", "155956.280000", "155956.740000", "155957.200000", "155957.660000", "155958.120000", "155958.580000", "155959.040000", "155959.500000", "155959.960000", "160000.420000", "160000.880000", "160001.340000", "160001.800000", "160002.260000", "160002.720000", "160003.180000", "160003.640000", "160004.100000", "160004.560000", "160005.020000", "160005.480000", "160005.940000", "160006.400000", "160006.860000", "160007.320000", "160007.780000", "160008.240000", "160008.700000", "160009.160000", "160009.620000", "160010.080000", "160010.540000", "160011.000000", "160011.460000", "160011.920000", "160012.380000", "160012.840000", "160013.300000", "160013.760000", "160014.220000", "160014.680000", "160015.140000", "160015.600000", "160016.060000", "160016.520000", "160016.980000", "160017.440000", "160017.900000", "160018.360000", "160018.820000", "160019.280000", "160019.740000", "160020.200000", "160020.660000", "160021.120000", "160021.580000", "160022.040000", "160022.500000", "160022.960000", "160023.420000", "160023.880000", "160024.340000", "160024.800000", "160025.260000", "160025.720000", "160026.180000", "160026.640000", "160027.100000", "160027.560000", "160028.020000", "160028.480000", "160028.940000", "160029.400000", "160029.860000", "160030.320000", "160030.780000", "160031.240000", "160031.700000", "160032.160000", "160032.620000", "160033.080000", "160033.540000", "160034.000000", "160034.460000", "160034.920000", "160035.380000", "160035.840000", "160036.300000", "160036.760000", "160037.220000", "160037.680000", "160038.140000", "160038.600000", "160039.060000", "160039.520000", "160039.980000", "160040.440000", "160040.900000", "160041.360000", "160041.820000", "160042.280000", "160042.740000", "160043.200000", "160043.660000", "160044.120000", "160044.580000", "160045.040000", "160045.500000", "160045.960000", "160046.420000", "160046.880000", "160047.340000", "160047.800000", "160048.260000", "160048.720000", "160049.180000", "160049.640000", "160050.100000", "160050.560000", "160051.020000", "160051.480000", "160051.940000", "160052.400000", "160052.860000", "160053.320000", "160053.780000", "160054.240000", "160054.700000", "160055.160000", "160055.620000", "160056.080000", "160056.540000", "160057.000000", "160057.460000", "160057.920000", "160058.380000", "160058.840000", "160059.300000", "160059.760000", "160100.220000", "160100.680000", "160101.140000", "160101.600000", "160102.060000", "160102.520000", "160102.980000", "160103.440000", "160103.900000", "160104.360000", "160104.820000", "160105.280000", "160105.740000", "160106.200000", "160106.660000", "160107.120000", "160107.580000", "160108.040000", "160108.500000", "160108.960000", "160109.420000", "160109.880000", "160110.340000", "160110.800000", "160111.260000", "160111.720000", "160112.180000", "160112.640000", "160113.100000", "160113.560000", "160114.020000", "160114.480000", "160114.940000", "160115.400000", "160115.860000", "160116.320000", "160116.780000", "160117.240000", "160117.700000", "160118.160000", "160118.620000", "160119.080000", "160119.540000", "160120.000000", "160120.460000", "160120.920000", "160121.380000", "160121.840000", "160122.300000", "160122.760000", "160123.220000", "160123.680000", "160124.140000", "160124.600000", "160125.060000", "160125.520000", "160125.980000", "160126.440000", "160126.900000", "160127.360000", "160127.820000", "160128.280000", "160128.740000", "160129.200000", "160129.660000", "160130.120000", "160130.580000", "160131.040000", "160131.500000", "160131.960000", "160132.420000", "160132.880000", "160133.340000", "160133.800000", "160134.260000", "160134.720000", "160135.180000", "160135.640000", "160136.100000", "160136.560000", "160137.020000", "160137.480000", "160137.940000", "160138.400000", "160138.860000", "160139.320000", "160139.780000", "160140.240000", "160140.700000", "160141.160000", "160141.620000", "160142.080000", "160142.540000", "160143.000000", "160143.460000", "160143.920000", "160144.380000", "160144.840000", "160145.300000", "160145.760000", "160146.220000", "160146.680000", "160147.140000", "160147.600000", "160148.060000", "160148.520000", "160148.980000", "160149.440000", "160149.900000", "160150.360000", "160150.820000", "160151.280000", "160151.740000", "160152.200000", "160152.660000", "160153.120000", "160153.580000", "160154.040000", "160154.500000", "160154.960000", "160155.420000", "160155.880000", "160156.340000", "160156.800000", "160157.260000", "160157.720000", "160158.180000", "160158.640000", "160159.100000", "160159.560000", "160200.020000", "160200.480000", "160200.940000", "160201.400000", "160201.860000", "160202.320000", "160202.780000", "160203.240000", "160203.700000", "160204.160000", "160204.620000", "160205.080000", "160205.540000", "160206.000000", "160206.460000", "160206.920000", "160207.380000", "160207.840000", "160208.300000", "160208.760000", "160209.220000", "160209.680000", "160210.140000", "160210.600000", "160211.060000", "160211.520000", "160211.980000", "160212.440000", "160212.900000", "160213.360000", "160213.820000", "160214.280000", "160214.740000", "160215.200000", "160215.660000", "160216.120000", "160216.580000", "160217.040000", "160217.500000", "160217.960000", "160218.420000", "160218.880000", "160219.340000", "160219.800000", "160220.260000", "160220.720000", "160221.180000", "160221.640000", "160222.100000", "160222.560000", "160223.020000", "160223.480000", "160223.940000", "160224.400000", "160224.860000", "160225.320000", "160225.780000", "160226.240000", "160226.700000", "160227.160000", "160227.620000", "160228.080000", "160228.540000", "160229.000000", "160229.460000", "160229.920000", "160230.380000", "160230.840000", "160231.300000", "160231.760000", "160232.220000", "160232.680000", "160233.140000", "160233.600000", "160234.060000", "160234.520000", "160234.980000", "160235.440000", "160235.900000", "160236.360000", "160236.820000", "160237.280000", "160237.740000", "160238.200000", "160238.660000", "160239.120000", "160239.580000", "160240.040000", "160240.500000", "160240.960000", "160241.420000", "160241.880000", "160242.340000", "160242.800000", "160243.260000", "160243.720000", "160244.180000", "160244.640000", "160245.100000", "160245.560000", "160246.020000", "160246.480000", "160246.940000", "160247.400000", "160247.860000", "160248.320000", "160248.780000", "160249.240000", "160249.700000", "160250.160000", "160250.620000", "160251.080000", "160251.540000", "160252.000000", "160252.460000", "160252.920000", "160253.380000", "160253.840000", "160254.300000", "160254.760000", "160255.220000", "160255.680000", "160256.140000", "160256.600000", "160257.060000", "160257.520000", "160257.980000", "160258.440000", "160258.900000", "160259.360000", "160259.820000", "160300.280000", "160300.740000", "160301.200000", "160301.660000", "160302.120000", "160302.580000", "160303.040000", "160303.500000", "160303.960000", "160304.420000", "160304.880000", "160305.340000", "160305.800000", "160306.260000", "160306.720000", "160307.180000", "160307.640000", "160308.100000", "160308.560000", "160309.020000", "160309.480000", "160309.940000", "160310.400000", "160310.860000", "160311.320000", "160311.780000", "160312.240000", "160312.700000", "160313.160000", "160313.620000", "160314.080000", "160314.540000", "160315.000000", "160315.460000", "160315.920000", "160316.380000", "160316.840000", "160317.300000", "160317.760000", "160318.220000", "160318.680000", "160319.140000", "160319.600000", "160320.060000", "160320.520000", "160320.980000", "160321.440000", "160321.900000", "160322.360000", "160322.820000", "160323.280000", "160323.740000", "160324.200000", "160324.660000", "160325.120000", "160325.580000", "160326.040000", "160326.500000", "160326.960000", "160327.420000", "160327.880000", "160328.340000", "160328.800000", "160329.260000", "160329.720000", "160330.180000", "160330.640000", "160331.100000", "160331.560000", "160332.020000", "160332.480000", "160332.940000", "160333.400000", "160333.860000", "160334.320000", "160334.780000", "160335.240000", "160335.700000", "160336.160000", "160336.620000", "160337.080000", "160337.540000", "160338.000000", "160338.460000", "160338.920000", "160339.380000", "160339.840000", "160340.300000", "160340.760000", "160341.220000", "160341.680000", "160342.140000", "160342.600000", "160343.060000", "160343.520000", "160343.980000", "160344.440000", "160344.900000", "160345.360000", "160345.820000", "160346.280000", "160346.740000", "160347.200000", "160347.660000", "160348.120000", "160348.580000", "160349.040000", "160349.500000", "160349.960000", "160350.420000", "160350.880000", "160351.340000", "160351.800000", "160352.260000", "160352.720000", "160353.180000", "160353.640000", "160354.100000", "160354.560000", "160355.020000", "160355.480000", "160355.940000", "160356.400000", "160356.860000", "160357.320000", "160357.780000", "160358.240000", "160358.700000", "160359.160000", "160359.620000", "160400.080000", "160400.540000", "160401.000000", "160401.460000", "160401.920000", "160402.380000", "160402.840000", "160403.300000", "160403.760000", "160404.220000", "160404.680000", "160405.140000", "160405.600000", "160406.060000", "160406.520000", "160406.980000", "160407.440000", "160407.900000", "160408.360000", "160408.820000", "160409.280000", "160409.740000", "160410.200000", "160410.660000", "160411.120000", "160411.580000", "160412.040000", "160412.500000", "160412.960000", "160413.420000", "160413.880000", "160414.340000", "160414.800000", "160415.260000", "160415.720000", "160416.180000", "160416.640000", "160417.100000", "160417.560000", "160418.020000", "160418.480000", "160418.940000", "160419.400000", "160419.860000", "160420.320000", "160420.780000", "160421.240000", "160421.700000", "160422.160000", "160422.620000", "160423.080000", "160423.540000", "160424.000000", "160424.460000", "160424.920000", "160425.380000", "160425.840000", "160426.300000", "160426.760000", "160427.220000", "160427.680000", "160428.140000", "160428.600000", "160429.060000", "160429.520000", "160429.980000", "160430.440000", "160430.900000", "160431.360000", "160431.820000", "160432.280000", "160432.740000", "160433.200000", "160433.660000", "160434.120000", "160434.580000", "160435.040000", "160435.500000", "160435.960000", "160436.420000", "160436.880000", "160437.340000", "160437.800000", "160438.260000", "160438.720000", "160439.180000", "160439.640000", "160440.100000", "160440.560000", "160441.020000", "160441.480000", "160441.940000", "160442.400000", "160442.860000", "160443.320000", "160443.780000", "160444.240000", "160444.700000", "160445.160000", "160445.620000", "160446.080000", "160446.540000", "160447.000000", "160447.460000", "160447.920000", "160448.380000", "160448.840000", "160449.300000", "160449.760000", "160450.220000", "160450.680000", "160451.140000", "160451.600000", "160452.060000", "160452.520000", "160452.980000", "160453.440000", "160453.900000", "160454.360000", "160454.820000", "160455.280000", "160455.740000", "160456.200000", "160456.660000", "160457.120000", "160457.580000", "160458.040000", "160458.500000", "160458.960000", "160459.420000", "160459.880000", "160500.340000", "160500.800000", "160501.260000", "160501.720000", "160502.180000", "160502.640000", "160503.100000", "160503.560000", "160504.020000", "160504.480000", "160504.940000", "160505.400000", "160505.860000", "160506.320000", "160506.780000", "160507.240000", "160507.700000", "160508.160000", "160508.620000", "160509.080000", "160509.540000", "160510.000000", "160510.460000", "160510.920000", "160511.380000", "160511.840000", "160512.300000", "160512.760000", "160513.220000", "160513.680000", "160514.140000", "160514.600000", "160515.060000", "160515.520000", "160515.980000", "160516.440000", "160516.900000", "160517.360000", "160517.820000", "160518.280000", "160518.740000", "160519.200000", "160519.660000", "160520.120000", "160520.580000", "160521.040000", "160521.500000", "160521.960000", "160522.420000", "160522.880000", "160523.340000", "160523.800000", "160524.260000", "160524.720000", "160525.180000", "160525.640000", "160526.100000", "160526.560000", "160527.020000", "160527.480000", "160527.940000", "160528.400000", "160528.860000", "160529.320000", "160529.780000", "160530.240000", "160530.700000", "160531.160000", "160531.620000", "160532.080000", "160532.540000", "160533.000000", "160533.460000", "160533.920000", "160534.380000", "160534.840000", "160535.300000", "160535.760000", "160536.220000", "160536.680000", "160537.140000", "160537.600000", "160538.060000", "160538.520000", "160538.980000", "160539.440000", "160539.900000", "160540.360000", "160540.820000", "160541.280000", "160541.740000", "160542.200000", "160542.660000", "160543.120000", "160543.580000", "160544.040000", "160544.500000", "160544.960000", "160545.420000", "160545.880000", "160546.340000", "160546.800000", "160547.260000", "160547.720000", "160548.180000", "160548.640000", "160549.100000", "160549.560000", "160550.020000", "160550.480000", "160550.940000", "160551.400000", "160551.860000", "160552.320000", "160552.780000", "160553.240000", "160553.700000", "160554.160000", "160554.620000", "160555.080000", "160555.540000", "160556.000000"],
