{
  "AcquisitionMatrixPE": 82,
  "AcquisitionNumber": 1,
  "AcquisitionTime": "15:22:15.807500",
  "BandwidthPerPixelPhaseEncode": 24.888,
  "BaseResolution": 82,
  "BodyPartExamined": "BRAIN",
  "ConsistencyInfo": "N4_VE11C_LATEST_20160120",
  "ConversionSoftware": "dcm2niix",
  "ConversionSoftwareVersion": "v1.0.20201102",
  "DerivedVendorReportedEchoSpacing": 0.00049,
  "DeviceSerialNumber": "66112",
  "DwellTime": 2e-06,
  "EchoTime": 0.0272,
  "EchoTrainLength": 82,
  "EffectiveEchoSpacing": 0.00049,
  "FlipAngle": 44,
  "ImageComments": "Unaliased MB8/PE3",
  "ImageOrientationPatientDICOM": [0.999622, -0.023906, 0.0135865, 0.0218118, 0.99025, 0.137585],
  "ImageType": [
    "ORIGINAL",
    "PRIMARY",
    "M",
    "MB",
    "ND",
    "NORM",
    "MOSAIC"
],
  "ImagingFrequency": 123.252,
  "InPlanePhaseEncodingDirectionDICOM": "COL",
  "InstitutionAddress": "Maynard 3,Hanover,NH,US,03755",
  "InstitutionName": "Dartmouth College - PBS",
  "InstitutionalDepartmentName": "Department",
  "MRAcquisitionType": "2D",
  "MagneticFieldStrength": 3,
  "Manufacturer": "Siemens",
  "ManufacturersModelName": "Prisma",
  "Modality": "MR",
  "MultibandAccelerationFactor": 8,
  "PartialFourier": 1,
  "PatientPosition": "HFS",
  "PercentPhaseFOV": 100,
  "PercentSampling": 100,
  "PhaseEncodingDirection": "j-",
  "PhaseEncodingSteps": 82,
  "PhaseResolution": 1,
  "PixelBandwidth": 3050,
  "ProcedureStepDescription": "Wager_Wager^1076_spacetop",
  "ProtocolName": "func_run-02_task-narratives_acq-ap-mb8",
  "PulseSequenceDetails": "%CustomerSeq%\\cmrr_mbep2d_bold",
  "ReceiveCoilActiveElements": "HEA;HEP",
  "ReceiveCoilName": "Head_32",
  "ReconMatrixPE": 82,
  "RepetitionTime": 0.46,
  "SAR": 0.08866,
  "ScanOptions": "FS",
  "ScanningSequence": "EP",
  "SequenceName": "epfid2d1_82",
  "SequenceVariant": "SK\\SS",
  "SeriesDescription": "func_run-02_task-narratives_acq-ap-mb8",
  "SeriesNumber": 10,
  "ShimSetting": [4150, -7784, -7229, 560, -89, -215, 72, 61],
  "SliceThickness": 2.7,
  "SliceTiming": [0, 0.25, 0.0625, 0.315, 0.125, 0.3775, 0.1875, 0, 0.25, 0.0625, 0.315, 0.125, 0.3775, 0.1875, 0, 0.25, 0.0625, 0.315, 0.125, 0.3775, 0.1875, 0, 0.25, 0.0625, 0.315, 0.125, 0.3775, 0.1875, 0, 0.25, 0.0625, 0.315, 0.125, 0.3775, 0.1875, 0, 0.25, 0.0625, 0.315, 0.125, 0.3775, 0.1875, 0, 0.25, 0.0625, 0.315, 0.125, 0.3775, 0.1875, 0, 0.25, 0.0625, 0.315, 0.125, 0.3775, 0.1875],
  "SoftwareVersions": "syngo MR E11",
  "SpacingBetweenSlices": 2.7,
  "StationName": "AWP66112",
  "TaskName": "narratives",
  "TotalReadoutTime": 0.03969,
  "TxRefAmp": 250.856,
  "WipMemBlock": "df8bc8bb-83cf-4dcd-a6d7-9d0812d04912||Sequence: R016 ve11c/master r/e634e98; Dec 19 2017 11:00:25 by eja",
  "dcmmeta_affine": [
    [-2.681912422180176, 0.05851955711841583, 0.045206472277641296, 107.15828704833984],
    [0.06413798779249191, 2.6567676067352295, 0.3705391585826874, -97.83098602294922],
    [0.03645159676671028, -0.3691307306289673, 2.6740713119506836, -55.41724395751953],
    [0.0, 0.0, 0.0, 1.0]
],
  "dcmmeta_reorient_transform": [
    [0.0, -1.0, 0.0, 81.0],
    [1.0, 0.0, 0.0, 0.0],
    [0.0, 0.0, 1.0, 0.0],
    [0.0, 0.0, 0.0, 1.0]
],
  "dcmmeta_shape": [82, 82, 56, 1098],
  "dcmmeta_slice_dim": 2,
  "dcmmeta_version": 0.6,
  "global": {
    "const": {
      "AccessionNumber": "A003827",
      "AcquisitionMatrix": [82, 0, 0, 82],
      "AngioFlag": "N",
      "BitsAllocated": 16,
      "BitsStored": 16,
      "BodyPartExamined": "BRAIN",
      "Columns": 656,
      "EchoNumbers": 1,
      "EchoTime": 27.2,
      "EchoTrainLength": 82,
      "FlipAngle": 44.0,
      "HighBit": 15,
      "ImageOrientationPatient": [0.99962188411552, -0.0239059763235, 0.01358650408894, 0.02181183429509, 0.99024975959653, 0.1375850918657],
      "ImagePositionPatient": [-898.40235580133, -861.45193031514, -201.71896537546],
      "ImageType": [
        "ORIGINAL",
        "PRIMARY",
        "M",
        "MB",
        "ND",
        "NORM",
        "MOSAIC"
],
      "ImagedNucleus": "1H",
      "ImagingFrequency": 123.252186,
      "InPlanePhaseEncodingDirection": "COL",
      "MRAcquisitionType": "2D",
      "MagneticFieldStrength": 3.0,
      "Manufacturer": "SIEMENS",
      "ManufacturerModelName": "Prisma",
      "Modality": "MR",
      "NumberOfAverages": 1.0,
      "NumberOfPhaseEncodingSteps": 82,
      "PercentPhaseFieldOfView": 100.0,
      "PercentSampling": 100.0,
      "PerformedProcedureStepStartTime": "150351.860000",
      "PhotometricInterpretation": "MONOCHROME2",
      "PixelBandwidth": 3050.0,
      "PixelRepresentation": 0,
      "PixelSpacing": [2.6829268932343, 2.6829268932343],
      "ProtocolName": "func_run-02_task-narratives_acq-ap-mb8",
      "RepetitionTime": 460.0,
      "Rows": 656,
      "SAR": 0.08866004903309,
      "SamplesPerPixel": 1,
      "ScanOptions": "FS",
      "ScanningSequence": "EP",
      "SequenceName": "epfid2d1_82",
      "SequenceVariant": [
        "SK",
        "SS"
],
      "SeriesDescription": "func_run-02_task-narratives_acq-ap-mb8",
      "SeriesNumber": 10,
      "SeriesTime": "152241.217000",
      "SliceLocation": -66.516896294038,
      "SliceThickness": 2.7000000476837,
      "SmallestImagePixelValue": 0,
      "SoftwareVersions": "syngo MR E11",
      "SpacingBetweenSlices": 2.7000000317927,
      "SpecificCharacterSet": "ISO_IR 100",
      "StudyID": "1",
      "StudyTime": "150351.801000",
      "TransmitCoilName": "Body",
      "VariableFlipAngleFlag": "N",
      "WindowCenterWidthExplanation": "Algo1",
      "dBdt": 0.0},
    "slices": {}
  },
  "time": {
    "samples": {
      "AcquisitionNumber": [1, 2, 3, 4, 5, 6, 7, 8, 9, 10, 11, 12, 13, 14, 15, 16, 17, 18, 19, 20, 21, 22, 23, 24, 25, 26, 27, 28, 29, 30, 31, 32, 33, 34, 35, 36, 37, 38, 39, 40, 41, 42, 43, 44, 45, 46, 47, 48, 49, 50, 51, 52, 53, 54, 55, 56, 57, 58, 59, 60, 61, 62, 63, 64, 65, 66, 67, 68, 69, 70, 71, 72, 73, 74, 75, 76, 77, 78, 79, 80, 81, 82, 83, 84, 85, 86, 87, 88, 89, 90, 91, 92, 93, 94, 95, 96, 97, 98, 99, 100, 101, 102, 103, 104, 105, 106, 107, 108, 109, 110, 111, 112, 113, 114, 115, 116, 117, 118, 119, 120, 121, 122, 123, 124, 125, 126, 127, 128, 129, 130, 131, 132, 133, 134, 135, 136, 137, 138, 139, 140, 141, 142, 143, 144, 145, 146, 147, 148, 149, 150, 151, 152, 153, 154, 155, 156, 157, 158, 159, 160, 161, 162, 163, 164, 165, 166, 167, 168, 169, 170, 171, 172, 173, 174, 175, 176, 177, 178, 179, 180, 181, 182, 183, 184, 185, 186, 187, 188, 189, 190, 191, 192, 193, 194, 195, 196, 197, 198, 199, 200, 201, 202, 203, 204, 205, 206, 207, 208, 209, 210, 211, 212, 213, 214, 215, 216, 217, 218, 219, 220, 221, 222, 223, 224, 225, 226, 227, 228, 229, 230, 231, 232, 233, 234, 235, 236, 237, 238, 239, 240, 241, 242, 243, 244, 245, 246, 247, 248, 249, 250, 251, 252, 253, 254, 255, 256, 257, 258, 259, 260, 261, 262, 263, 264, 265, 266, 267, 268, 269, 270, 271, 272, 273, 274, 275, 276, 277, 278, 279, 280, 281, 282, 283, 284, 285, 286, 287, 288, 289, 290, 291, 292, 293, 294, 295, 296, 297, 298, 299, 300, 301, 302, 303, 304, 305, 306, 307, 308, 309, 310, 311, 312, 313, 314, 315, 316, 317, 318, 319, 320, 321, 322, 323, 324, 325, 326, 327, 328, 329, 330, 331, 332, 333, 334, 335, 336, 337, 338, 339, 340, 341, 342, 343, 344, 345, 346, 347, 348, 349, 350, 351, 352, 353, 354, 355, 356, 357, 358, 359, 360, 361, 362, 363, 364, 365, 366, 367, 368, 369, 370, 371, 372, 373, 374, 375, 376, 377, 378, 379, 380, 381, 382, 383, 384, 385, 386, 387, 388, 389, 390, 391, 392, 393, 394, 395, 396, 397, 398, 399, 400, 401, 402, 403, 404, 405, 406, 407, 408, 409, 410, 411, 412, 413, 414, 415, 416, 417, 418, 419, 420, 421, 422, 423, 424, 425, 426, 427, 428, 429, 430, 431, 432, 433, 434, 435, 436, 437, 438, 439, 440, 441, 442, 443, 444, 445, 446, 447, 448, 449, 450, 451, 452, 453, 454, 455, 456, 457, 458, 459, 460, 461, 462, 463, 464, 465, 466, 467, 468, 469, 470, 471, 472, 473, 474, 475, 476, 477, 478, 479, 480, 481, 482, 483, 484, 485, 486, 487, 488, 489, 490, 491, 492, 493, 494, 495, 496, 497, 498, 499, 500, 501, 502, 503, 504, 505, 506, 507, 508, 509, 510, 511, 512, 513, 514, 515, 516, 517, 518, 519, 520, 521, 522, 523, 524, 525, 526, 527, 528, 529, 530, 531, 532, 533, 534, 535, 536, 537, 538, 539, 540, 541, 542, 543, 544, 545, 546, 547, 548, 549, 550, 551, 552, 553, 554, 555, 556, 557, 558, 559, 560, 561, 562, 563, 564, 565, 566, 567, 568, 569, 570, 571, 572, 573, 574, 575, 576, 577, 578, 579, 580, 581, 582, 583, 584, 585, 586, 587, 588, 589, 590, 591, 592, 593, 594, 595, 596, 597, 598, 599, 600, 601, 602, 603, 604, 605, 606, 607, 608, 609, 610, 611, 612, 613, 614, 615, 616, 617, 618, 619, 620, 621, 622, 623, 624, 625, 626, 627, 628, 629, 630, 631, 632, 633, 634, 635, 636, 637, 638, 639, 640, 641, 642, 643, 644, 645, 646, 647, 648, 649, 650, 651, 652, 653, 654, 655, 656, 657, 658, 659, 660, 661, 662, 663, 664, 665, 666, 667, 668, 669, 670, 671, 672, 673, 674, 675, 676, 677, 678, 679, 680, 681, 682, 683, 684, 685, 686, 687, 688, 689, 690, 691, 692, 693, 694, 695, 696, 697, 698, 699, 700, 701, 702, 703, 704, 705, 706, 707, 708, 709, 710, 711, 712, 713, 714, 715, 716, 717, 718, 719, 720, 721, 722, 723, 724, 725, 726, 727, 728, 729, 730, 731, 732, 733, 734, 735, 736, 737, 738, 739, 740, 741, 742, 743, 744, 745, 746, 747, 748, 749, 750, 751, 752, 753, 754, 755, 756, 757, 758, 759, 760, 761, 762, 763, 764, 765, 766, 767, 768, 769, 770, 771, 772, 773, 774, 775, 776, 777, 778, 779, 780, 781, 782, 783, 784, 785, 786, 787, 788, 789, 790, 791, 792, 793, 794, 795, 796, 797, 798, 799, 800, 801, 802, 803, 804, 805, 806, 807, 808, 809, 810, 811, 812, 813, 814, 815, 816, 817, 818, 819, 820, 821, 822, 823, 824, 825, 826, 827, 828, 829, 830, 831, 832, 833, 834, 835, 836, 837, 838, 839, 840, 841, 842, 843, 844, 845, 846, 847, 848, 849, 850, 851, 852, 853, 854, 855, 856, 857, 858, 859, 860, 861, 862, 863, 864, 865, 866, 867, 868, 869, 870, 871, 872, 873, 874, 875, 876, 877, 878, 879, 880, 881, 882, 883, 884, 885, 886, 887, 888, 889, 890, 891, 892, 893, 894, 895, 896, 897, 898, 899, 900, 901, 902, 903, 904, 905, 906, 907, 908, 909, 910, 911, 912, 913, 914, 915, 916, 917, 918, 919, 920, 921, 922, 923, 924, 925, 926, 927, 928, 929, 930, 931, 932, 933, 934, 935, 936, 937, 938, 939, 940, 941, 942, 943, 944, 945, 946, 947, 948, 949, 950, 951, 952, 953, 954, 955, 956, 957, 958, 959, 960, 961, 962, 963, 964, 965, 966, 967, 968, 969, 970, 971, 972, 973, 974, 975, 976, 977, 978, 979, 980, 981, 982, 983, 984, 985, 986, 987, 988, 989, 990, 991, 992, 993, 994, 995, 996, 997, 998, 999, 1000, 1001, 1002, 1003, 1004, 1005, 1006, 1007, 1008, 1009, 1010, 1011, 1012, 1013, 1014, 1015, 1016, 1017, 1018, 1019, 1020, 1021, 1022, 1023, 1024, 1025, 1026, 1027, 1028, 1029, 1030, 1031, 1032, 1033, 1034, 1035, 1036, 1037, 1038, 1039, 1040, 1041, 1042, 1043, 1044, 1045, 1046, 1047, 1048, 1049, 1050, 1051, 1052, 1053, 1054, 1055, 1056, 1057, 1058, 1059, 1060, 1061, 1062, 1063, 1064, 1065, 1066, 1067, 1068, 1069, 1070, 1071, 1072, 1073, 1074, 1075, 1076, 1077, 1078, 1079, 1080, 1081, 1082, 1083, 1084, 1085, 1086, 1087, 1088, 1089, 1090, 1091, 1092, 1093, 1094, 1095, 1096, 1097, 1098],
      "AcquisitionTime": ["152215.807500", "152216.267500", "152216.727500", "152217.187500", "152217.647500", "152218.107500", "152218.567500", "152219.027500", "152219.487500", "152219.947500", "152220.407500", "152220.867500", "152221.327500", "152221.787500", "152222.247500", "152222.707500", "152223.167500", "152223.627500", "152224.087500", "152224.547500", "152225.007500", "152225.467500", "152225.927500", "152226.387500", "152226.847500", "152227.307500", "152227.767500", "152228.227500", "152228.687500", "152229.147500", "152229.607500", "152230.067500", "152230.527500", "152230.987500", "152231.447500", "152231.907500", "152232.367500", "152232.827500", "152233.287500", "152233.747500", "152234.207500", "152234.667500", "152235.127500", "152235.587500", "152236.047500", "152236.507500", "152236.967500", "152237.427500", "152237.887500", "152238.347500", "152238.807500", "152239.267500", "152239.727500", "152240.187500", "152240.647500", "152241.107500", "152241.567500", "152242.027500", "152242.487500", "152242.947500", "152243.407500", "152243.867500", "152244.327500", "152244.787500", "152245.247500", "152245.707500", "152246.167500", "152246.627500", "152247.087500", "152247.547500", "152248.007500", "152248.467500", "152248.927500", "152249.387500", "152249.847500", "152250.307500", "152250.767500", "152251.227500", "152251.687500", "152252.147500", "152252.607500", "152253.067500", "152253.527500", "152253.987500", "152254.447500", "152254.907500", "152255.367500", "152255.827500", "152256.287500", "152256.747500", "152257.207500", "152257.667500", "152258.127500", "152258.587500", "152259.047500", "152259.507500", "152259.967500", "152300.427500", "152300.887500", "152301.347500", "152301.807500", "152302.267500", "152302.727500", "152303.187500", "152303.647500", "152304.107500", "152304.567500", "152305.027500", "152305.487500", "152305.947500", "152306.407500", "152306.867500", "152307.327500", "152307.787500", "152308.247500", "152308.707500", "152309.167500", "152309.627500", "152310.087500", "152310.547500", "152311.007500", "152311.467500", "152311.927500", "152312.387500", "152312.847500", "152313.307500", "152313.767500", "152314.227500", "152314.687500", "152315.147500", "152315.607500", "152316.067500", "152316.527500", "152316.987500", "152317.447500", "152317.907500", "152318.367500", "152318.827500", "152319.287500", "152319.747500", "152320.207500", "152320.667500", "152321.127500", "152321.587500", "152322.047500", "152322.507500", "152322.967500", "152323.427500", "152323.887500", "152324.347500", "152324.807500", "152325.267500", "152325.727500", "152326.187500", "152326.647500", "152327.107500", "152327.567500", "152328.027500", "152328.487500", "152328.947500", "152329.407500", "152329.867500", "152330.327500", "152330.787500", "152331.247500", "152331.707500", "152332.167500", "152332.627500", "152333.087500", "152333.547500", "152334.007500", "152334.467500", "152334.927500", "152335.387500", "152335.847500", "152336.307500", "152336.767500", "152337.227500", "152337.687500", "152338.147500", "152338.607500", "152339.067500", "152339.527500", "152339.987500", "152340.447500", "152340.907500", "152341.367500", "152341.827500", "152342.287500", "152342.747500", "152343.207500", "152343.667500", "152344.127500", "152344.587500", "152345.047500", "152345.507500", "152345.967500", "152346.427500", "152346.887500", "152347.347500", "152347.807500", "152348.267500", "152348.727500", "152349.187500", "152349.647500", "152350.107500", "152350.567500", "152351.027500", "152351.487500", "152351.947500", "152352.407500", "152352.867500", "152353.327500", "152353.787500", "152354.247500", "152354.707500", "152355.167500", "152355.627500", "152356.087500", "152356.547500", "152357.007500", "152357.467500", "152357.927500", "152358.387500", "152358.847500", "152359.307500", "152359.767500", "152400.227500", "152400.687500", "152401.147500", "152401.607500", "152402.067500", "152402.527500", "152402.987500", "152403.447500", "152403.907500", "152404.367500", "152404.827500", "152405.287500", "152405.747500", "152406.207500", "152406.667500", "152407.127500", "152407.587500", "152408.047500", "152408.507500", "152408.967500", "152409.427500", "152409.887500", "152410.347500", "152410.807500", "152411.267500", "152411.727500", "152412.187500", "152412.647500", "152413.107500", "152413.567500", "152414.027500", "152414.487500", "152414.947500", "152415.407500", "152415.867500", "152416.327500", "152416.787500", "152417.247500", "152417.707500", "152418.167500", "152418.627500", "152419.087500", "152419.547500", "152420.007500", "152420.467500", "152420.927500", "152421.387500", "152421.847500", "152422.307500", "152422.767500", "152423.227500", "152423.687500", "152424.147500", "152424.607500", "152425.067500", "152425.527500", "152425.987500", "152426.447500", "152426.907500", "152427.367500", "152427.827500", "152428.287500", "152428.747500", "152429.207500", "152429.667500", "152430.127500", "152430.587500", "152431.047500", "152431.507500", "152431.967500", "152432.427500", "152432.887500", "152433.347500", "152433.807500", "152434.267500", "152434.727500", "152435.187500", "152435.647500", "152436.107500", "152436.567500", "152437.027500", "152437.487500", "152437.947500", "152438.407500", "152438.867500", "152439.327500", "152439.787500", "152440.247500", "152440.707500", "152441.167500", "152441.627500", "152442.087500", "152442.547500", "152443.007500", "152443.467500", "152443.927500", "152444.387500", "152444.847500", "152445.307500", "152445.767500", "152446.227500", "152446.687500", "152447.147500", "152447.607500", "152448.067500", "152448.527500", "152448.987500", "152449.447500", "152449.907500", "152450.367500", "152450.827500", "152451.287500", "152451.747500", "152452.207500", "152452.667500", "152453.127500", "152453.587500", "152454.047500", "152454.507500", "152454.967500", "152455.427500", "152455.887500", "152456.347500", "152456.807500", "152457.267500", "152457.727500", "152458.187500", "152458.647500", "152459.107500", "152459.567500", "152500.027500", "152500.487500", "152500.947500", "152501.407500", "152501.867500", "152502.327500", "152502.787500", "152503.247500", "152503.707500", "152504.167500", "152504.627500", "152505.087500", "152505.547500", "152506.007500", "152506.467500", "152506.927500", "152507.387500", "152507.847500", "152508.307500", "152508.767500", "152509.227500", "152509.687500", "152510.147500", "152510.607500", "152511.067500", "152511.527500", "152511.987500", "152512.447500", "152512.907500", "152513.367500", "152513.827500", "152514.287500", "152514.747500", "152515.207500", "152515.667500", "152516.127500", "152516.587500", "152517.047500", "152517.507500", "152517.967500", "152518.427500", "152518.887500", "152519.347500", "152519.807500", "152520.267500", "152520.727500", "152521.187500", "152521.647500", "152522.107500", "152522.567500", "152523.027500", "152523.487500", "152523.947500", "152524.407500", "152524.867500", "152525.327500", "152525.787500", "152526.247500", "152526.707500", "152527.167500", "152527.627500", "152528.087500", "152528.547500", "152529.007500", "152529.467500", "152529.927500", "152530.387500", "152530.847500", "152531.307500", "152531.767500", "152532.227500", "152532.687500", "152533.147500", "152533.607500", "152534.067500", "152534.527500", "152534.987500", "152535.447500", "152535.907500", "152536.367500", "152536.827500", "152537.287500", "152537.747500", "152538.207500", "152538.667500", "152539.127500", "152539.587500", "152540.047500", "152540.507500", "152540.967500", "152541.427500", "152541.887500", "152542.347500", "152542.807500", "152543.267500", "152543.727500", "152544.187500", "152544.647500", "152545.107500", "152545.567500", "152546.027500", "152546.487500", "152546.947500", "152547.407500", "152547.867500", "152548.327500", "152548.787500", "152549.247500", "152549.707500", "152550.167500", "152550.627500", "152551.087500", "152551.547500", "152552.007500", "152552.467500", "152552.927500", "152553.387500", "152553.847500", "152554.307500", "152554.767500", "152555.227500", "152555.687500", "152556.147500", "152556.607500", "152557.067500", "152557.527500", "152557.987500", "152558.447500", "152558.907500", "152559.367500", "152559.827500", "152600.287500", "152600.747500", "152601.207500", "152601.667500", "152602.127500", "152602.587500", "152603.047500", "152603.507500", "152603.967500", "152604.427500", "152604.887500", "152605.347500", "152605.807500", "152606.267500", "152606.727500", "152607.187500", "152607.647500", "152608.107500", "152608.567500", "152609.027500", "152609.487500", "152609.947500", "152610.407500", "152610.867500", "152611.327500", "152611.787500", "152612.247500", "152612.707500", "152613.167500", "152613.627500", "152614.087500", "152614.547500", "152615.007500", "152615.467500", "152615.927500", "152616.387500", "152616.847500", "152617.307500", "152617.767500", "152618.227500", "152618.687500", "152619.147500", "152619.607500", "152620.067500", "152620.527500", "152620.987500", "152621.447500", "152621.907500", "152622.367500", "152622.827500", "152623.287500", "152623.747500", "152624.207500", "152624.667500", "152625.127500", "152625.587500", "152626.047500", "152626.507500", "152626.967500", "152627.427500", "152627.887500", "152628.347500", "152628.807500", "152629.267500", "152629.727500", "152630.187500", "152630.647500", "152631.107500", "152631.567500", "152632.027500", "152632.487500", "152632.947500", "152633.407500", "152633.867500", "152634.327500", "152634.787500", "152635.247500", "152635.707500", "152636.167500", "152636.627500", "152637.087500", "152637.547500", "152638.007500", "152638.467500", "152638.927500", "152639.387500", "152639.847500", "152640.307500", "152640.767500", "152641.227500", "152641.687500", "152642.147500", "152642.607500", "152643.067500", "152643.527500", "152643.987500", "152644.447500", "152644.907500", "152645.367500", "152645.827500", "152646.287500", "152646.747500", "152647.207500", "152647.667500", "152648.127500", "152648.587500", "152649.047500", "152649.507500", "152649.967500", "152650.427500", "152650.887500", "152651.347500", "152651.807500", "152652.267500", "152652.727500", "152653.187500", "152653.647500", "152654.107500", "152654.567500", "152655.027500", "152655.487500", "152655.947500", "152656.407500", "152656.867500", "152657.327500", "152657.787500", "152658.247500", "152658.707500", "152659.167500", "152659.627500", "152700.087500", "152700.547500", "152701.007500", "152701.467500", "152701.927500", "152702.387500", "152702.847500", "152703.307500", "152703.767500", "152704.227500", "152704.687500", "152705.147500", "152705.607500", "152706.067500", "152706.527500", "152706.987500", "152707.447500", "152707.907500", "152708.367500", "152708.827500", "152709.287500", "152709.747500", "152710.207500", "152710.667500", "152711.127500", "152711.587500", "152712.047500", "152712.507500", "152712.967500", "152713.427500", "152713.887500", "152714.347500", "152714.807500", "152715.267500", "152715.727500", "152716.187500", "152716.647500", "152717.107500", "152717.567500", "152718.027500", "152718.487500", "152718.947500", "152719.407500", "152719.867500", "152720.327500", "152720.787500", "152721.247500", "152721.707500", "152722.167500", "152722.627500", "152723.087500", "152723.547500", "152724.007500", "152724.467500", "152724.927500", "152725.387500", "152725.847500", "152726.307500", "152726.767500", "152727.227500", "152727.687500", "152728.147500", "152728.607500", "152729.067500", "152729.527500", "152729.987500", "152730.447500", "152730.907500", "152731.367500", "152731.827500", "152732.287500", "152732.747500", "152733.207500", "152733.667500", "152734.127500", "152734.587500", "152735.047500", "152735.507500", "152735.967500", "152736.427500", "152736.887500", "152737.347500", "152737.807500", "152738.267500", "152738.727500", "152739.187500", "152739.647500", "152740.107500", "152740.567500", "152741.027500", "152741.487500", "152741.947500", "152742.407500", "152742.867500", "152743.327500", "152743.787500", "152744.247500", "152744.707500", "152745.167500", "152745.627500", "152746.087500", "152746.547500", "152747.007500", "152747.467500", "152747.927500", "152748.387500", "152748.847500", "152749.307500", "152749.767500", "152750.227500", "152750.687500", "152751.147500", "152751.607500", "152752.067500", "152752.527500", "152752.987500", "152753.447500", "152753.907500", "152754.367500", "152754.827500", "152755.287500", "152755.747500", "152756.207500", "152756.667500", "152757.127500", "152757.587500", "152758.047500", "152758.507500", "152758.967500", "152759.427500", "152759.887500", "152800.347500", "152800.807500", "152801.267500", "152801.727500", "152802.187500", "152802.647500", "152803.107500", "152803.567500", "152804.027500", "152804.487500", "152804.947500", "152805.407500", "152805.867500", "152806.327500", "152806.787500", "152807.247500", "152807.707500", "152808.167500", "152808.627500", "152809.087500", "152809.547500", "152810.007500", "152810.467500", "152810.927500", "152811.387500", "152811.847500", "152812.307500", "152812.767500", "152813.227500", "152813.687500", "152814.147500", "152814.607500", "152815.067500", "152815.527500", "152815.987500", "152816.447500", "152816.907500", "152817.367500", "152817.827500", "152818.287500", "152818.747500", "152819.207500", "152819.667500", "152820.127500", "152820.587500", "152821.047500", "152821.507500", "152821.967500", "152822.427500", "152822.887500", "152823.347500", "152823.807500", "152824.267500", "152824.727500", "152825.187500", "152825.647500", "152826.107500", "152826.567500", "152827.027500", "152827.487500", "152827.947500", "152828.407500", "152828.867500", "152829.327500", "152829.787500", "152830.247500", "152830.707500", "152831.167500", "152831.627500", "152832.087500", "152832.547500", "152833.007500", "152833.467500", "152833.927500", "152834.387500", "152834.847500", "152835.307500", "152835.767500", "152836.227500", "152836.687500", "152837.147500", "152837.607500", "152838.067500", "152838.527500", "152838.987500", "152839.447500", "152839.907500", "152840.367500", "152840.827500", "152841.287500", "152841.747500", "152842.207500", "152842.667500", "152843.127500", "152843.587500", "152844.047500", "152844.507500", "152844.967500", "152845.427500", "152845.887500", "152846.347500", "152846.807500", "152847.267500", "152847.727500", "152848.187500", "152848.647500", "152849.107500", "152849.567500", "152850.027500", "152850.487500", "152850.947500", "152851.407500", "152851.867500", "152852.327500", "152852.787500", "152853.247500", "152853.707500", "152854.167500", "152854.627500", "152855.087500", "152855.547500", "152856.007500", "152856.467500", "152856.927500", "152857.387500", "152857.847500", "152858.307500", "152858.767500", "152859.227500", "152859.687500", "152900.147500", "152900.607500", "152901.067500", "152901.527500", "152901.987500", "152902.447500", "152902.907500", "152903.367500", "152903.827500", "152904.287500", "152904.747500", "152905.207500", "152905.667500", "152906.127500", "152906.587500", "152907.047500", "152907.507500", "152907.967500", "152908.427500", "152908.887500", "152909.347500", "152909.807500", "152910.267500", "152910.727500", "152911.187500", "152911.647500", "152912.107500", "152912.567500", "152913.027500", "152913.487500", "152913.947500", "152914.407500", "152914.867500", "152915.327500", "152915.787500", "152916.247500", "152916.707500", "152917.167500", "152917.627500", "152918.087500", "152918.547500", "152919.007500", "152919.467500", "152919.927500", "152920.387500", "152920.847500", "152921.307500", "152921.767500", "152922.227500", "152922.687500", "152923.147500", "152923.607500", "152924.067500", "152924.527500", "152924.987500", "152925.447500", "152925.907500", "152926.367500", "152926.827500", "152927.287500", "152927.747500", "152928.207500", "152928.667500", "152929.127500", "152929.587500", "152930.047500", "152930.507500", "152930.967500", "152931.427500", "152931.887500", "152932.347500", "152932.807500", "152933.267500", "152933.727500", "152934.187500", "152934.647500", "152935.107500", "152935.567500", "152936.027500", "152936.487500", "152936.947500", "152937.407500", "152937.867500", "152938.327500", "152938.787500", "152939.247500", "152939.707500", "152940.167500", "152940.627500", "152941.087500", "152941.547500", "152942.007500", "152942.467500", "152942.927500", "152943.387500", "152943.847500", "152944.307500", "152944.767500", "152945.227500", "152945.687500", "152946.147500", "152946.607500", "152947.067500", "152947.527500", "152947.987500", "152948.447500", "152948.907500", "152949.367500", "152949.827500", "152950.287500", "152950.747500", "152951.207500", "152951.667500", "152952.127500", "152952.587500", "152953.047500", "152953.507500", "152953.967500", "152954.427500", "152954.887500", "152955.347500", "152955.807500", "152956.267500", "152956.727500", "152957.187500", "152957.647500", "152958.107500", "152958.567500", "152959.027500", "152959.487500", "152959.947500", "153000.407500", "153000.867500", "153001.327500", "153001.787500", "153002.247500", "153002.707500", "153003.167500", "153003.627500", "153004.087500", "153004.547500", "153005.007500", "153005.467500", "153005.927500", "153006.387500", "153006.847500", "153007.307500", "153007.767500", "153008.227500", "153008.687500", "153009.147500", "153009.607500", "153010.067500", "153010.527500", "153010.987500", "153011.447500", "153011.907500", "153012.367500", "153012.827500", "153013.287500", "153013.747500", "153014.207500", "153014.667500", "153015.127500", "153015.587500", "153016.047500", "153016.507500", "153016.967500", "153017.427500", "153017.887500", "153018.347500", "153018.807500", "153019.267500", "153019.727500", "153020.187500", "153020.647500", "153021.107500", "153021.567500", "153022.027500", "153022.487500", "153022.947500", "153023.407500", "153023.867500", "153024.327500", "153024.787500", "153025.247500", "153025.707500", "153026.167500", "153026.627500", "153027.087500", "153027.547500", "153028.007500", "153028.467500", "153028.927500", "153029.387500", "153029.847500", "153030.307500", "153030.767500", "153031.227500", "153031.687500", "153032.147500", "153032.607500", "153033.067500", "153033.527500", "153033.987500", "153034.447500", "153034.907500", "153035.367500", "153035.827500", "153036.287500", "153036.747500", "153037.207500", "153037.667500", "153038.127500", "153038.587500", "153039.047500", "153039.507500", "153039.967500", "153040.427500"],
