{
  "AcquisitionMatrixPE": 82,
  "AcquisitionNumber": 1,
  "AcquisitionTime": "16:47:43.192500",
  "BandwidthPerPixelPhaseEncode": 24.888,
  "BaseResolution": 82,
  "BodyPartExamined": "BRAIN",
  "ConsistencyInfo": "N4_VE11C_LATEST_20160120",
  "ConversionSoftware": "dcm2niix",
  "ConversionSoftwareVersion": "v1.0.20201102",
  "DerivedVendorReportedEchoSpacing": 0.00049,
  "DeviceSerialNumber": "66112",
  "DwellTime": 2e-06,
  "EchoTime": 0.0272,
  "EchoTrainLength": 82,
  "EffectiveEchoSpacing": 0.00049,
  "FlipAngle": 44,
  "ImageComments": "Unaliased MB8/PE3",
  "ImageOrientationPatientDICOM": [0.999292, -0.0373187, 0.00479621, 0.036817, 0.996125, 0.0798767],
  "ImageType": [
    "ORIGINAL",
    "PRIMARY",
    "M",
    "MB",
    "ND",
    "NORM",
    "MOSAIC"
],
  "ImagingFrequency": 123.252,
  "InPlanePhaseEncodingDirectionDICOM": "COL",
  "InstitutionAddress": "Maynard 3,Hanover,NH,US,03755",
  "InstitutionName": "Dartmouth College - PBS",
  "InstitutionalDepartmentName": "Department",
  "MRAcquisitionType": "2D",
  "MagneticFieldStrength": 3,
  "Manufacturer": "Siemens",
  "ManufacturersModelName": "Prisma",
  "Modality": "MR",
  "MultibandAccelerationFactor": 8,
  "PartialFourier": 1,
  "PatientPosition": "HFS",
  "PercentPhaseFOV": 100,
  "PercentSampling": 100,
  "PhaseEncodingDirection": "j-",
  "PhaseEncodingSteps": 82,
  "PhaseResolution": 1,
  "PixelBandwidth": 3050,
  "ProcedureStepDescription": "Wager_Wager^1076_spacetop",
  "ProtocolName": "func_run-04_task-alignvideo_acq-ap-mb8",
  "PulseSequenceDetails": "%CustomerSeq%\\cmrr_mbep2d_bold",
  "ReceiveCoilActiveElements": "HEA;HEP",
  "ReceiveCoilName": "Head_32",
  "ReconMatrixPE": 82,
  "RepetitionTime": 0.46,
  "SAR": 0.0885718,
  "ScanOptions": "FS",
  "ScanningSequence": "EP",
  "SequenceName": "epfid2d1_82",
  "SequenceVariant": "SK\\SS",
  "SeriesDescription": "func_run-04_task-alignvideo_acq-ap-mb8",
  "SeriesNumber": 34,
  "ShimSetting": [4151, -7784, -7227, 587, -86, -223, 67, 62],
  "SliceThickness": 2.7,
  "SliceTiming": [0, 0.2525, 0.0625, 0.315, 0.125, 0.3775, 0.19, 0, 0.2525, 0.0625, 0.315, 0.125, 0.3775, 0.19, 0, 0.2525, 0.0625, 0.315, 0.125, 0.3775, 0.19, 0, 0.2525, 0.0625, 0.315, 0.125, 0.3775, 0.19, 0, 0.2525, 0.0625, 0.315, 0.125, 0.3775, 0.19, 0, 0.2525, 0.0625, 0.315, 0.125, 0.3775, 0.19, 0, 0.2525, 0.0625, 0.315, 0.125, 0.3775, 0.19, 0, 0.2525, 0.0625, 0.315, 0.125, 0.3775, 0.19],
  "SoftwareVersions": "syngo MR E11",
  "SpacingBetweenSlices": 2.7,
  "StationName": "AWP66112",
  "TaskName": "alignvideo",
  "TotalReadoutTime": 0.03969,
  "TxRefAmp": 250.856,
  "WipMemBlock": "d726e365-44a0-4bd7-9f90-2b2bb27e037e||Sequence: R016 ve11c/master r/e634e98; Dec 19 2017 11:00:25 by eja",
  "dcmmeta_affine": [
    [-2.6810271739959717, 0.09877731651067734, 0.020947979763150215, 106.22103118896484],
    [0.10012323409318924, 2.672529458999634, 0.215037539601326, -98.50517272949219],
    [0.012867875397205353, -0.21430328488349915, 2.6913416385650635, -61.857086181640625],
    [0.0, 0.0, 0.0, 1.0]
],
  "dcmmeta_reorient_transform": [
    [0.0, -1.0, 0.0, 81.0],
    [1.0, 0.0, 0.0, 0.0],
    [0.0, 0.0, 1.0, 0.0],
    [0.0, 0.0, 0.0, 1.0]
],
  "dcmmeta_shape": [82, 82, 56, 914],
  "dcmmeta_slice_dim": 2,
  "dcmmeta_version": 0.6,
  "global": {
    "const": {
      "AccessionNumber": "A003827",
      "AcquisitionMatrix": [82, 0, 0, 82],
      "AngioFlag": "N",
      "BitsAllocated": 16,
      "BitsStored": 16,
      "BodyPartExamined": "BRAIN",
      "Columns": 656,
      "EchoNumbers": 1,
      "EchoTime": 27.2,
      "EchoTrainLength": 82,
      "FlipAngle": 44.0,
      "HighBit": 15,
      "ImageOrientationPatient": [0.99929190636093, -0.0373186584824, 0.00479620794059, 0.0368169986234, 0.99612460340721, 0.07987667431226],
      "ImagePositionPatient": [-912.025870433, -856.25031213622, -144.41377237532],
      "ImageType": [
        "ORIGINAL",
        "PRIMARY",
        "M",
        "MB",
        "ND",
        "NORM",
        "MOSAIC"
],
      "ImagedNucleus": "1H",
      "ImagingFrequency": 123.252197,
      "InPlanePhaseEncodingDirection": "COL",
      "MRAcquisitionType": "2D",
      "MagneticFieldStrength": 3.0,
      "Manufacturer": "SIEMENS",
      "ManufacturerModelName": "Prisma",
      "Modality": "MR",
      "NumberOfAverages": 1.0,
      "NumberOfPhaseEncodingSteps": 82,
      "PercentPhaseFieldOfView": 100.0,
      "PercentSampling": 100.0,
      "PerformedProcedureStepStartTime": "150351.860000",
      "PhotometricInterpretation": "MONOCHROME2",
      "PixelBandwidth": 3050.0,
      "PixelRepresentation": 0,
      "PixelSpacing": [2.6829268932343, 2.6829268932343],
      "ProtocolName": "func_run-04_task-alignvideo_acq-ap-mb8",
      "RepetitionTime": 460.0,
      "Rows": 656,
      "SAR": 0.08857182038025,
      "SamplesPerPixel": 1,
      "ScanOptions": "FS",
      "ScanningSequence": "EP",
      "SequenceName": "epfid2d1_82",
      "SequenceVariant": [
        "SK",
        "SS"
],
      "SeriesDescription": "func_run-04_task-alignvideo_acq-ap-mb8",
      "SeriesNumber": 34,
      "SeriesTime": "164801.222000",
      "SliceLocation": -68.679906361748,
      "SliceThickness": 2.7000000476837,
      "SmallestImagePixelValue": 0,
      "SoftwareVersions": "syngo MR E11",
      "SpacingBetweenSlices": 2.7000000664692,
      "SpecificCharacterSet": "ISO_IR 100",
      "StudyID": "1",
      "StudyTime": "150351.801000",
      "TransmitCoilName": "Body",
      "VariableFlipAngleFlag": "N",
      "WindowCenterWidthExplanation": "Algo1",
      "dBdt": 0.0},
    "slices": {}
  },
  "time": {
    "samples": {
      "AcquisitionNumber": [1, 2, 3, 4, 5, 6, 7, 8, 9, 10, 11, 12, 13, 14, 15, 16, 17, 18, 19, 20, 21, 22, 23, 24, 25, 26, 27, 28, 29, 30, 31, 32, 33, 34, 35, 36, 37, 38, 39, 40, 41, 42, 43, 44, 45, 46, 47, 48, 49, 50, 51, 52, 53, 54, 55, 56, 57, 58, 59, 60, 61, 62, 63, 64, 65, 66, 67, 68, 69, 70, 71, 72, 73, 74, 75, 76, 77, 78, 79, 80, 81, 82, 83, 84, 85, 86, 87, 88, 89, 90, 91, 92, 93, 94, 95, 96, 97, 98, 99, 100, 101, 102, 103, 104, 105, 106, 107, 108, 109, 110, 111, 112, 113, 114, 115, 116, 117, 118, 119, 120, 121, 122, 123, 124, 125, 126, 127, 128, 129, 130, 131, 132, 133, 134, 135, 136, 137, 138, 139, 140, 141, 142, 143, 144, 145, 146, 147, 148, 149, 150, 151, 152, 153, 154, 155, 156, 157, 158, 159, 160, 161, 162, 163, 164, 165, 166, 167, 168, 169, 170, 171, 172, 173, 174, 175, 176, 177, 178, 179, 180, 181, 182, 183, 184, 185, 186, 187, 188, 189, 190, 191, 192, 193, 194, 195, 196, 197, 198, 199, 200, 201, 202, 203, 204, 205, 206, 207, 208, 209, 210, 211, 212, 213, 214, 215, 216, 217, 218, 219, 220, 221, 222, 223, 224, 225, 226, 227, 228, 229, 230, 231, 232, 233, 234, 235, 236, 237, 238, 239, 240, 241, 242, 243, 244, 245, 246, 247, 248, 249, 250, 251, 252, 253, 254, 255, 256, 257, 258, 259, 260, 261, 262, 263, 264, 265, 266, 267, 268, 269, 270, 271, 272, 273, 274, 275, 276, 277, 278, 279, 280, 281, 282, 283, 284, 285, 286, 287, 288, 289, 290, 291, 292, 293, 294, 295, 296, 297, 298, 299, 300, 301, 302, 303, 304, 305, 306, 307, 308, 309, 310, 311, 312, 313, 314, 315, 316, 317, 318, 319, 320, 321, 322, 323, 324, 325, 326, 327, 328, 329, 330, 331, 332, 333, 334, 335, 336, 337, 338, 339, 340, 341, 342, 343, 344, 345, 346, 347, 348, 349, 350, 351, 352, 353, 354, 355, 356, 357, 358, 359, 360, 361, 362, 363, 364, 365, 366, 367, 368, 369, 370, 371, 372, 373, 374, 375, 376, 377, 378, 379, 380, 381, 382, 383, 384, 385, 386, 387, 388, 389, 390, 391, 392, 393, 394, 395, 396, 397, 398, 399, 400, 401, 402, 403, 404, 405, 406, 407, 408, 409, 410, 411, 412, 413, 414, 415, 416, 417, 418, 419, 420, 421, 422, 423, 424, 425, 426, 427, 428, 429, 430, 431, 432, 433, 434, 435, 436, 437, 438, 439, 440, 441, 442, 443, 444, 445, 446, 447, 448, 449, 450, 451, 452, 453, 454, 455, 456, 457, 458, 459, 460, 461, 462, 463, 464, 465, 466, 467, 468, 469, 470, 471, 472, 473, 474, 475, 476, 477, 478, 479, 480, 481, 482, 483, 484, 485, 486, 487, 488, 489, 490, 491, 492, 493, 494, 495, 496, 497, 498, 499, 500, 501, 502, 503, 504, 505, 506, 507, 508, 509, 510, 511, 512, 513, 514, 515, 516, 517, 518, 519, 520, 521, 522, 523, 524, 525, 526, 527, 528, 529, 530, 531, 532, 533, 534, 535, 536, 537, 538, 539, 540, 541, 542, 543, 544, 545, 546, 547, 548, 549, 550, 551, 552, 553, 554, 555, 556, 557, 558, 559, 560, 561, 562, 563, 564, 565, 566, 567, 568, 569, 570, 571, 572, 573, 574, 575, 576, 577, 578, 579, 580, 581, 582, 583, 584, 585, 586, 587, 588, 589, 590, 591, 592, 593, 594, 595, 596, 597, 598, 599, 600, 601, 602, 603, 604, 605, 606, 607, 608, 609, 610, 611, 612, 613, 614, 615, 616, 617, 618, 619, 620, 621, 622, 623, 624, 625, 626, 627, 628, 629, 630, 631, 632, 633, 634, 635, 636, 637, 638, 639, 640, 641, 642, 643, 644, 645, 646, 647, 648, 649, 650, 651, 652, 653, 654, 655, 656, 657, 658, 659, 660, 661, 662, 663, 664, 665, 666, 667, 668, 669, 670, 671, 672, 673, 674, 675, 676, 677, 678, 679, 680, 681, 682, 683, 684, 685, 686, 687, 688, 689, 690, 691, 692, 693, 694, 695, 696, 697, 698, 699, 700, 701, 702, 703, 704, 705, 706, 707, 708, 709, 710, 711, 712, 713, 714, 715, 716, 717, 718, 719, 720, 721, 722, 723, 724, 725, 726, 727, 728, 729, 730, 731, 732, 733, 734, 735, 736, 737, 738, 739, 740, 741, 742, 743, 744, 745, 746, 747, 748, 749, 750, 751, 752, 753, 754, 755, 756, 757, 758, 759, 760, 761, 762, 763, 764, 765, 766, 767, 768, 769, 770, 771, 772, 773, 774, 775, 776, 777, 778, 779, 780, 781, 782, 783, 784, 785, 786, 787, 788, 789, 790, 791, 792, 793, 794, 795, 796, 797, 798, 799, 800, 801, 802, 803, 804, 805, 806, 807, 808, 809, 810, 811, 812, 813, 814, 815, 816, 817, 818, 819, 820, 821, 822, 823, 824, 825, 826, 827, 828, 829, 830, 831, 832, 833, 834, 835, 836, 837, 838, 839, 840, 841, 842, 843, 844, 845, 846, 847, 848, 849, 850, 851, 852, 853, 854, 855, 856, 857, 858, 859, 860, 861, 862, 863, 864, 865, 866, 867, 868, 869, 870, 871, 872, 873, 874, 875, 876, 877, 878, 879, 880, 881, 882, 883, 884, 885, 886, 887, 888, 889, 890, 891, 892, 893, 894, 895, 896, 897, 898, 899, 900, 901, 902, 903, 904, 905, 906, 907, 908, 909, 910, 911, 912, 913, 914],
      "AcquisitionTime": ["164743.192500", "164743.652500", "164744.112500", "164744.572500", "164745.032500", "164745.492500", "164745.952500", "164746.412500", "164746.872500", "164747.332500", "164747.792500", "164748.252500", "164748.712500", "164749.172500", "164749.632500", "164750.092500", "164750.552500", "164751.012500", "164751.472500", "164751.932500", "164752.392500", "164752.852500", "164753.312500", "164753.772500", "164754.232500", "164754.692500", "164755.152500", "164755.612500", "164756.072500", "164756.532500", "164756.992500", "164757.452500", "164757.912500", "164758.372500", "164758.832500", "164759.292500", "164759.752500", "164800.212500", "164800.672500", "164801.132500", "164801.592500", "164802.052500", "164802.512500", "164802.972500", "164803.432500", "164803.892500", "164804.352500", "164804.812500", "164805.272500", "164805.732500", "164806.192500", "164806.652500", "164807.112500", "164807.572500", "164808.032500", "164808.492500", "164808.952500", "164809.412500", "164809.872500", "164810.332500", "164810.792500", "164811.252500", "164811.712500", "164812.172500", "164812.632500", "164813.092500", "164813.552500", "164814.012500", "164814.472500", "164814.932500", "164815.392500", "164815.852500", "164816.312500", "164816.772500", "164817.232500", "164817.692500", "164818.152500", "164818.612500", "164819.072500", "164819.532500", "164819.992500", "164820.452500", "164820.912500", "164821.372500", "164821.832500", "164822.292500", "164822.752500", "164823.212500", "164823.672500", "164824.132500", "164824.592500", "164825.052500", "164825.512500", "164825.972500", "164826.432500", "164826.892500", "164827.352500", "164827.812500", "164828.272500", "164828.732500", "164829.192500", "164829.652500", "164830.112500", "164830.572500", "164831.032500", "164831.492500", "164831.952500", "164832.412500", "164832.872500", "164833.332500", "164833.792500", "164834.252500", "164834.712500", "164835.172500", "164835.632500", "164836.092500", "164836.552500", "164837.012500", "164837.472500", "164837.932500", "164838.392500", "164838.852500", "164839.312500", "164839.772500", "164840.232500", "164840.692500", "164841.152500", "164841.612500", "164842.072500", "164842.532500", "164842.992500", "164843.452500", "164843.912500", "164844.372500", "164844.832500", "164845.292500", "164845.752500", "164846.212500", "164846.672500", "164847.132500", "164847.592500", "164848.052500", "164848.512500", "164848.972500", "164849.432500", "164849.892500", "164850.352500", "164850.812500", "164851.272500", "164851.732500", "164852.192500", "164852.652500", "164853.112500", "164853.572500", "164854.032500", "164854.492500", "164854.952500", "164855.412500", "164855.872500", "164856.332500", "164856.792500", "164857.252500", "164857.712500", "164858.172500", "164858.632500", "164859.092500", "164859.552500", "164900.012500", "164900.472500", "164900.932500", "164901.392500", "164901.852500", "164902.312500", "164902.772500", "164903.232500", "164903.692500", "164904.152500", "164904.612500", "164905.072500", "164905.532500", "164905.992500", "164906.452500", "164906.912500", "164907.372500", "164907.832500", "164908.292500", "164908.752500", "164909.212500", "164909.672500", "164910.132500", "164910.592500", "164911.052500", "164911.512500", "164911.972500", "164912.432500", "164912.892500", "164913.352500", "164913.812500", "164914.272500", "164914.732500", "164915.192500", "164915.652500", "164916.112500", "164916.572500", "164917.032500", "164917.492500", "164917.952500", "164918.412500", "164918.872500", "164919.332500", "164919.792500", "164920.252500", "164920.712500", "164921.172500", "164921.632500", "164922.092500", "164922.552500", "164923.012500", "164923.472500", "164923.932500", "164924.392500", "164924.852500", "164925.312500", "164925.772500", "164926.232500", "164926.692500", "164927.152500", "164927.612500", "164928.072500", "164928.532500", "164928.992500", "164929.452500", "164929.912500", "164930.372500", "164930.832500", "164931.292500", "164931.752500", "164932.212500", "164932.672500", "164933.132500", "164933.592500", "164934.052500", "164934.512500", "164934.972500", "164935.432500", "164935.892500", "164936.352500", "164936.812500", "164937.272500", "164937.732500", "164938.192500", "164938.652500", "164939.112500", "164939.572500", "164940.032500", "164940.492500", "164940.952500", "164941.412500", "164941.872500", "164942.332500", "164942.792500", "164943.252500", "164943.712500", "164944.172500", "164944.632500", "164945.092500", "164945.552500", "164946.012500", "164946.472500", "164946.932500", "164947.392500", "164947.852500", "164948.312500", "164948.772500", "164949.232500", "164949.692500", "164950.152500", "164950.612500", "164951.072500", "164951.532500", "164951.992500", "164952.452500", "164952.912500", "164953.372500", "164953.832500", "164954.292500", "164954.752500", "164955.212500", "164955.672500", "164956.132500", "164956.592500", "164957.052500", "164957.512500", "164957.972500", "164958.432500", "164958.892500", "164959.352500", "164959.812500", "165000.272500", "165000.732500", "165001.192500", "165001.652500", "165002.112500", "165002.572500", "165003.032500", "165003.492500", "165003.952500", "165004.412500", "165004.872500", "165005.332500", "165005.792500", "165006.252500", "165006.712500", "165007.172500", "165007.632500", "165008.092500", "165008.552500", "165009.012500", "165009.472500", "165009.932500", "165010.392500", "165010.852500", "165011.312500", "165011.772500", "165012.232500", "165012.692500", "165013.152500", "165013.612500", "165014.072500", "165014.532500", "165014.992500", "165015.452500", "165015.912500", "165016.372500", "165016.832500", "165017.292500", "165017.752500", "165018.212500", "165018.672500", "165019.132500", "165019.592500", "165020.052500", "165020.512500", "165020.972500", "165021.432500", "165021.892500", "165022.352500", "165022.812500", "165023.272500", "165023.732500", "165024.192500", "165024.652500", "165025.112500", "165025.572500", "165026.032500", "165026.492500", "165026.952500", "165027.412500", "165027.872500", "165028.332500", "165028.792500", "165029.252500", "165029.712500", "165030.172500", "165030.632500", "165031.092500", "165031.552500", "165032.012500", "165032.472500", "165032.932500", "165033.392500", "165033.852500", "165034.312500", "165034.772500", "165035.232500", "165035.692500", "165036.152500", "165036.612500", "165037.072500", "165037.532500", "165037.992500", "165038.452500", "165038.912500", "165039.372500", "165039.832500", "165040.292500", "165040.752500", "165041.212500", "165041.672500", "165042.132500", "165042.592500", "165043.052500", "165043.512500", "165043.972500", "165044.432500", "165044.892500", "165045.352500", "165045.812500", "165046.272500", "165046.732500", "165047.192500", "165047.652500", "165048.112500", "165048.572500", "165049.032500", "165049.492500", "165049.952500", "165050.412500", "165050.872500", "165051.332500", "165051.792500", "165052.252500", "165052.712500", "165053.172500", "165053.632500", "165054.092500", "165054.552500", "165055.012500", "165055.472500", "165055.932500", "165056.392500", "165056.852500", "165057.312500", "165057.772500", "165058.232500", "165058.692500", "165059.152500", "165059.612500", "165100.072500", "165100.532500", "165100.992500", "165101.452500", "165101.912500", "165102.372500", "165102.832500", "165103.292500", "165103.752500", "165104.212500", "165104.672500", "165105.132500", "165105.592500", "165106.052500", "165106.512500", "165106.972500", "165107.432500", "165107.892500", "165108.352500", "165108.812500", "165109.272500", "165109.732500", "165110.192500", "165110.652500", "165111.112500", "165111.572500", "165112.032500", "165112.492500", "165112.952500", "165113.412500", "165113.872500", "165114.332500", "165114.792500", "165115.252500", "165115.712500", "165116.172500", "165116.632500", "165117.092500", "165117.552500", "165118.012500", "165118.472500", "165118.932500", "165119.392500", "165119.852500", "165120.312500", "165120.772500", "165121.232500", "165121.692500", "165122.152500", "165122.612500", "165123.072500", "165123.532500", "165123.992500", "165124.452500", "165124.912500", "165125.372500", "165125.832500", "165126.292500", "165126.752500", "165127.212500", "165127.672500", "165128.132500", "165128.592500", "165129.052500", "165129.512500", "165129.972500", "165130.432500", "165130.892500", "165131.352500", "165131.812500", "165132.272500", "165132.732500", "165133.192500", "165133.652500", "165134.112500", "165134.572500", "165135.032500", "165135.492500", "165135.952500", "165136.412500", "165136.872500", "165137.332500", "165137.792500", "165138.252500", "165138.712500", "165139.172500", "165139.632500", "165140.092500", "165140.552500", "165141.012500", "165141.472500", "165141.932500", "165142.392500", "165142.852500", "165143.312500", "165143.772500", "165144.232500", "165144.692500", "165145.152500", "165145.612500", "165146.072500", "165146.532500", "165146.992500", "165147.452500", "165147.912500", "165148.372500", "165148.832500", "165149.292500", "165149.752500", "165150.212500", "165150.672500", "165151.132500", "165151.592500", "165152.052500", "165152.512500", "165152.972500", "165153.432500", "165153.892500", "165154.352500", "165154.812500", "165155.272500", "165155.732500", "165156.192500", "165156.652500", "165157.112500", "165157.572500", "165158.032500", "165158.492500", "165158.952500", "165159.412500", "165159.872500", "165200.332500", "165200.792500", "165201.252500", "165201.712500", "165202.172500", "165202.632500", "165203.092500", "165203.552500", "165204.012500", "165204.472500", "165204.932500", "165205.392500", "165205.852500", "165206.312500", "165206.772500", "165207.232500", "165207.692500", "165208.152500", "165208.612500", "165209.072500", "165209.532500", "165209.992500", "165210.452500", "165210.912500", "165211.372500", "165211.832500", "165212.292500", "165212.752500", "165213.212500", "165213.672500", "165214.132500", "165214.592500", "165215.052500", "165215.512500", "165215.972500", "165216.432500", "165216.892500", "165217.352500", "165217.812500", "165218.272500", "165218.732500", "165219.192500", "165219.652500", "165220.112500", "165220.572500", "165221.032500", "165221.492500", "165221.952500", "165222.412500", "165222.872500", "165223.332500", "165223.792500", "165224.252500", "165224.712500", "165225.172500", "165225.632500", "165226.092500", "165226.552500", "165227.012500", "165227.472500", "165227.932500", "165228.392500", "165228.852500", "165229.312500", "165229.772500", "165230.232500", "165230.692500", "165231.152500", "165231.612500", "165232.072500", "165232.532500", "165232.992500", "165233.452500", "165233.912500", "165234.372500", "165234.832500", "165235.292500", "165235.752500", "165236.212500", "165236.672500", "165237.132500", "165237.592500", "165238.052500", "165238.512500", "165238.972500", "165239.432500", "165239.892500", "165240.352500", "165240.812500", "165241.272500", "165241.732500", "165242.192500", "165242.652500", "165243.112500", "165243.572500", "165244.032500", "165244.492500", "165244.952500", "165245.412500", "165245.872500", "165246.332500", "165246.792500", "165247.252500", "165247.712500", "165248.172500", "165248.632500", "165249.092500", "165249.552500", "165250.012500", "165250.472500", "165250.932500", "165251.392500", "165251.852500", "165252.312500", "165252.772500", "165253.232500", "165253.692500", "165254.152500", "165254.612500", "165255.072500", "165255.532500", "165255.992500", "165256.452500", "165256.912500", "165257.372500", "165257.832500", "165258.292500", "165258.752500", "165259.212500", "165259.672500", "165300.132500", "165300.592500", "165301.052500", "165301.512500", "165301.972500", "165302.432500", "165302.892500", "165303.352500", "165303.812500", "165304.272500", "165304.732500", "165305.192500", "165305.652500", "165306.112500", "165306.572500", "165307.032500", "165307.492500", "165307.952500", "165308.412500", "165308.872500", "165309.332500", "165309.792500", "165310.252500", "165310.712500", "165311.172500", "165311.632500", "165312.092500", "165312.552500", "165313.012500", "165313.472500", "165313.932500", "165314.392500", "165314.852500", "165315.312500", "165315.772500", "165316.232500", "165316.692500", "165317.152500", "165317.612500", "165318.072500", "165318.532500", "165318.992500", "165319.452500", "165319.912500", "165320.372500", "165320.832500", "165321.292500", "165321.752500", "165322.212500", "165322.672500", "165323.132500", "165323.592500", "165324.052500", "165324.512500", "165324.972500", "165325.432500", "165325.892500", "165326.352500", "165326.812500", "165327.272500", "165327.732500", "165328.192500", "165328.652500", "165329.112500", "165329.572500", "165330.032500", "165330.492500", "165330.952500", "165331.412500", "165331.872500", "165332.332500", "165332.792500", "165333.252500", "165333.712500", "165334.172500", "165334.632500", "165335.092500", "165335.552500", "165336.012500", "165336.472500", "165336.932500", "165337.392500", "165337.852500", "165338.312500", "165338.772500", "165339.232500", "165339.692500", "165340.152500", "165340.612500", "165341.072500", "165341.532500", "165341.992500", "165342.452500", "165342.912500", "165343.372500", "165343.832500", "165344.292500", "165344.752500", "165345.212500", "165345.672500", "165346.132500", "165346.592500", "165347.052500", "165347.512500", "165347.972500", "165348.432500", "165348.892500", "165349.352500", "165349.812500", "165350.272500", "165350.732500", "165351.192500", "165351.652500", "165352.112500", "165352.572500", "165353.032500", "165353.492500", "165353.952500", "165354.412500", "165354.872500", "165355.332500", "165355.792500", "165356.252500", "165356.712500", "165357.172500", "165357.632500", "165358.092500", "165358.552500", "165359.012500", "165359.472500", "165359.932500", "165400.392500", "165400.852500", "165401.312500", "165401.772500", "165402.232500", "165402.692500", "165403.152500", "165403.612500", "165404.072500", "165404.532500", "165404.992500", "165405.452500", "165405.912500", "165406.372500", "165406.832500", "165407.292500", "165407.752500", "165408.212500", "165408.672500", "165409.132500", "165409.592500", "165410.052500", "165410.512500", "165410.972500", "165411.432500", "165411.892500", "165412.352500", "165412.812500", "165413.272500", "165413.732500", "165414.192500", "165414.652500", "165415.112500", "165415.572500", "165416.032500", "165416.492500", "165416.952500", "165417.412500", "165417.872500", "165418.332500", "165418.792500", "165419.252500", "165419.712500", "165420.172500", "165420.632500", "165421.092500", "165421.552500", "165422.012500", "165422.472500", "165422.932500", "165423.392500", "165423.852500", "165424.312500", "165424.772500", "165425.232500", "165425.692500", "165426.152500", "165426.612500", "165427.072500", "165427.532500", "165427.992500", "165428.452500", "165428.912500", "165429.372500", "165429.832500", "165430.292500", "165430.752500", "165431.212500", "165431.672500", "165432.132500", "165432.592500", "165433.052500", "165433.512500", "165433.972500", "165434.432500", "165434.892500", "165435.352500", "165435.812500", "165436.272500", "165436.732500", "165437.192500", "165437.652500", "165438.112500", "165438.572500", "165439.032500", "165439.492500", "165439.952500", "165440.412500", "165440.872500", "165441.332500", "165441.792500", "165442.252500", "165442.712500", "165443.172500"],
