{
  "AcquisitionMatrixPE": 140,
  "AcquisitionNumber": 1,
  "AcquisitionTime": "16:41:19.075000",
  "BandwidthPerPixelPhaseEncode": 10.352,
  "BaseResolution": 140,
  "BodyPartExamined": "BRAIN",
  "ConsistencyInfo": "N4_VE11E_LATEST_20181129",
  "ConversionSoftware": "dcm2niix",
  "ConversionSoftwareVersion": "v1.0.20201102",
  "DerivedVendorReportedEchoSpacing": 0.000689998,
  "DeviceSerialNumber": "66112",
  "DiffusionScheme": "Monopolar",
  "DwellTime": 2.1e-06,
  "EchoTime": 0.0884,
  "EchoTrainLength": 105,
  "EffectiveEchoSpacing": 0.000689998,
  "FlipAngle": 90,
  "ImageComments": "Unaliased MB3/PE3 SENSE1",
  "ImageOrientationPatientDICOM": [0.996524, -0.0408865, -0.0725831, 0.0585063, 0.963731, 0.260382],
  "ImageType": [
    "ORIGINAL",
    "PRIMARY",
    "DIFFUSION",
    "NONE",
    "MB",
    "ND",
    "MOSAIC"
],
  "ImagingFrequency": 123.259,
  "InPlanePhaseEncodingDirectionDICOM": "COL",
  "InstitutionAddress": "Maynard 3,Hanover,NH,US,03755",
  "InstitutionName": "Dartmouth College - PBS",
  "InstitutionalDepartmentName": "Department",
  "MRAcquisitionType": "2D",
  "MagneticFieldStrength": 3,
  "Manufacturer": "Siemens",
  "ManufacturersModelName": "Prisma",
  "Modality": "MR",
  "MultibandAccelerationFactor": 3,
  "PartialFourier": 0.75,
  "PatientPosition": "HFS",
  "PercentPhaseFOV": 100,
  "PercentSampling": 100,
  "PhaseEncodingDirection": "j-",
  "PhaseEncodingSteps": 105,
  "PhaseResolution": 1,
  "PixelBandwidth": 1700,
  "ProcedureStepDescription": "Wager_Wager^1076_spacetop",
  "ProtocolName": "dwi_acq-96dir-6b0-mb",
  "PulseSequenceDetails": "%CustomerSeq%\\cmrr_mbep2d_diff",
  "ReceiveCoilActiveElements": "HEA;HEP",
  "ReceiveCoilName": "Head_32",
  "ReconMatrixPE": 140,
  "RepetitionTime": 4.11,
  "SAR": 0.299341,
  "ScanOptions": "PFP\\FS",
  "ScanningSequence": "EP",
  "SequenceName": "ep_b5#1",
  "SequenceVariant": "SK\\SS",
  "SeriesDescription": "dwi_acq-96dir-6b0-mb",
  "SeriesNumber": 8,
  "ShimSetting": [4205, -7799, -7205, 343, -114, -119, -7, 125],
  "SliceThickness": 1.7,
  "SliceTiming": [0, 2.12, 0.1525, 2.2725, 0.3025, 2.425, 0.455, 2.575, 0.6075, 2.7275, 0.7575, 2.8775, 0.91, 3.03, 1.06, 3.1825, 1.2125, 3.3325, 1.365, 3.485, 1.515, 3.635, 1.6675, 3.7875, 1.8175, 3.94, 1.97, 0, 2.12, 0.1525, 2.2725, 0.3025, 2.425, 0.455, 2.575, 0.6075, 2.7275, 0.7575, 2.8775, 0.91, 3.03, 1.06, 3.1825, 1.2125, 3.3325, 1.365, 3.485, 1.515, 3.635, 1.6675, 3.7875, 1.8175, 3.94, 1.97, 0, 2.12, 0.1525, 2.2725, 0.3025, 2.425, 0.455, 2.575, 0.6075, 2.7275, 0.7575, 2.8775, 0.91, 3.03, 1.06, 3.1825, 1.2125, 3.3325, 1.365, 3.485, 1.515, 3.635, 1.6675, 3.7875, 1.8175, 3.94, 1.97],
  "SoftwareVersions": "syngo MR E11",
  "SpacingBetweenSlices": 1.7,
  "StationName": "AWP66112",
  "TotalReadoutTime": 0.0959097,
  "TxRefAmp": 266.038,
  "WipMemBlock": "3cba4ff7-165a-4a0e-8c8c-2a4b9793c760||Sequence: R016 ve11e/master r/434b28f1; Aug  7 2019 19:06:17 by eja",
  "dcmmeta_affine": [
    [-1.708326816558838, 0.1002965047955513, -0.10081767290830612, 120.57337188720703],
    [0.0700911283493042, 1.6521110534667969, 0.4483298063278198, -113.99290466308594],
    [-0.1244281753897667, -0.4463690519332886, 1.636715054512024, -13.077253341674805],
    [0.0, 0.0, 0.0, 1.0]
],
  "dcmmeta_reorient_transform": [
    [0.0, -1.0, 0.0, 139.0],
    [1.0, 0.0, 0.0, 0.0],
    [0.0, 0.0, 1.0, 0.0],
    [0.0, 0.0, 0.0, 1.0]
],
  "dcmmeta_shape": [140, 140, 81, 103],
  "dcmmeta_slice_dim": 2,
  "dcmmeta_version": 0.6,
  "global": {
    "const": {
      "AccessionNumber": "A004367",
      "AcquisitionMatrix": [140, 0, 0, 140],
      "AngioFlag": "N",
      "BitsAllocated": 16,
      "BitsStored": 16,
      "BodyPartExamined": "BRAIN",
      "Columns": 1260,
      "EchoNumbers": 1,
      "EchoTime": 88.4,
      "EchoTrainLength": 105,
      "FlipAngle": 90.0,
      "HighBit": 15,
      "ImageOrientationPatient": [0.99652395279376, -0.0408864900895, -0.0725831002126, 0.05850629420039, 0.96373142565074, 0.26038193630152],
      "ImagePositionPatient": [-1147.3436296873, -1001.5816780331, -255.40943398631],
      "ImageType": [
        "ORIGINAL",
        "PRIMARY",
        "DIFFUSION",
        "NONE",
        "MB",
        "ND",
        "MOSAIC"
],
      "ImagedNucleus": "1H",
      "ImagingFrequency": 123.25907,
      "InPlanePhaseEncodingDirection": "COL",
      "MRAcquisitionType": "2D",
      "MagneticFieldStrength": 3.0,
      "Manufacturer": "SIEMENS",
      "ManufacturerModelName": "Prisma",
      "Modality": "MR",
      "NumberOfAverages": 1.0,
      "NumberOfPhaseEncodingSteps": 105,
      "PercentPhaseFieldOfView": 100.0,
      "PercentSampling": 100.0,
      "PerformedProcedureStepStartTime": "162534.667000",
      "PhotometricInterpretation": "MONOCHROME2",
      "PixelBandwidth": 1700.0,
      "PixelRepresentation": 0,
      "PixelSpacing": [1.7142857313156, 1.7142857313156],
      "ProtocolName": "dwi_acq-96dir-6b0-mb",
      "RepetitionTime": 4110.0,
      "Rows": 1260,
      "SAR": 0.29934101281656,
      "SamplesPerPixel": 1,
      "ScanOptions": [
        "PFP",
        "FS"
],
      "ScanningSequence": "EP",
      "SequenceVariant": [
        "SK",
        "SS"
],
      "SeriesDescription": "dwi_acq-96dir-6b0-mb",
      "SeriesNumber": 8,
      "SeriesTime": "164253.115000",
      "SliceLocation": -49.803574730806,
      "SliceThickness": 1.7000000476837,
      "SmallestImagePixelValue": 0,
      "SoftwareVersions": "syngo MR E11",
      "SpacingBetweenSlices": 1.7000000261997,
      "SpecificCharacterSet": "ISO_IR 100",
      "StudyID": "1",
      "StudyTime": "162534.600000",
      "TransmitCoilName": "Body",
      "VariableFlipAngleFlag": "N",
      "WindowCenterWidthExplanation": "Algo1"
    },
    "slices": {}
  },
  "time": {
    "samples": {
      "AcquisitionNumber": [1, 2, 3, 4, 5, 6, 7, 8, 9, 10, 11, 12, 13, 14, 15, 16, 17, 18, 19, 20, 21, 22, 23, 24, 25, 26, 27, 28, 29, 30, 31, 32, 33, 34, 35, 36, 37, 38, 39, 40, 41, 42, 43, 44, 45, 46, 47, 48, 49, 50, 51, 52, 53, 54, 55, 56, 57, 58, 59, 60, 61, 62, 63, 64, 65, 66, 67, 68, 69, 70, 71, 72, 73, 74, 75, 76, 77, 78, 79, 80, 81, 82, 83, 84, 85, 86, 87, 88, 89, 90, 91, 92, 93, 94, 95, 96, 97, 98, 99, 100, 101, 102, 103],
      "AcquisitionTime": ["164119.075000", "164123.185000", "164127.295000", "164131.405000", "164135.515000", "164139.625000", "164143.735000", "164147.845000", "164151.955000", "164156.065000", "164200.175000", "164204.285000", "164208.395000", "164212.505000", "164216.615000", "164220.725000", "164224.835000", "164228.945000", "164233.055000", "164237.165000", "164241.275000", "164245.385000", "164249.495000", "164253.605000", "164257.715000", "164301.825000", "164305.935000", "164310.045000", "164314.155000", "164318.265000", "164322.375000", "164326.485000", "164330.595000", "164334.705000", "164338.815000", "164342.925000", "164347.035000", "164351.145000", "164355.255000", "164359.365000", "164403.475000", "164407.585000", "164411.695000", "164415.805000", "164419.915000", "164424.025000", "164428.135000", "164432.245000", "164436.355000", "164440.465000", "164444.575000", "164448.685000", "164452.795000", "164456.905000", "164501.015000", "164505.125000", "164509.235000", "164513.345000", "164517.455000", "164521.565000", "164525.675000", "164529.785000", "164533.895000", "164538.005000", "164542.115000", "164546.225000", "164550.335000", "164554.445000", "164558.555000", "164602.665000", "164606.775000", "164610.885000", "164614.995000", "164619.105000", "164623.215000", "164627.325000", "164631.435000", "164635.545000", "164639.655000", "164643.765000", "164647.875000", "164651.985000", "164656.095000", "164700.205000", "164704.315000", "164708.425000", "164712.535000", "164716.645000", "164720.755000", "164724.865000", "164728.975000", "164733.085000", "164737.195000", "164741.305000", "164745.415000", "164749.525000", "164753.635000", "164757.745000", "164801.855000", "164805.965000", "164810.075000", "164814.185000", "164818.295000"],
      "ContentTime": ["164253.119000", "164253.123000", "164253.126000", "164253.129000", "164253.132000", "164253.135000", "164253.138000", "164253.141000", "164253.144000", "164253.147000", "164253.150000", "164253.153000", "164253.156000", "164253.160000", "164253.170000", "164253.176000", "164253.179000", "164253.182000", "164253.185000", "164253.188000", "164253.191000", "164253.194000", "164413.115000", "164413.118000", "164413.122000", "164413.125000", "164413.133000", "164413.136000", "164413.140000", "164413.143000", "164413.146000", "164413.149000", "164413.152000", "164413.155000", "164413.158000", "164413.161000", "164413.164000", "164413.167000", "164413.170000", "164413.173000", "164413.176000", "164413.179000", "164453.124000", "164453.128000", "164453.130000", "164453.133000", "164453.137000", "164453.139000", "164453.142000", "164453.145000", "164453.149000", "164613.115000", "164613.118000", "164613.121000", "164613.125000", "164613.132000", "164613.135000", "164613.138000", "164613.141000", "164613.144000", "164613.147000", "164613.150000", "164613.153000", "164613.156000", "164613.159000", "164613.162000", "164613.165000", "164613.168000", "164613.171000", "164613.174000", "164613.178000", "164753.115000", "164753.118000", "164753.122000", "164753.125000", "164753.128000", "164753.131000", "164753.134000", "164753.137000", "164753.140000", "164753.143000", "164753.146000", "164753.149000", "164753.152000", "164753.155000", "164753.158000", "164753.161000", "164753.164000", "164753.167000", "164753.170000", "164753.173000", "164753.176000", "164753.179000", "164753.182000", "164753.185000", "164823.250000", "164823.253000", "164823.256000", "164823.260000", "164823.263000", "164823.266000", "164823.269000", "164823.272000"],
      "InstanceCreationTime": ["164253.119000", "164253.123000", "164253.126000", "164253.129000", "164253.132000", "164253.135000", "164253.138000", "164253.141000", "164253.144000", "164253.147000", "164253.150000", "164253.153000", "164253.156000", "164253.160000", "164253.170000", "164253.176000", "164253.179000", "164253.182000", "164253.185000", "164253.188000", "164253.191000", "164253.194000", "164413.115000", "164413.118000", "164413.122000", "164413.125000", "164413.133000", "164413.136000", "164413.140000", "164413.143000", "164413.146000", "164413.149000", "164413.152000", "164413.155000", "164413.158000", "164413.161000", "164413.164000", "164413.167000", "164413.170000", "164413.173000", "164413.176000", "164413.179000", "164453.124000", "164453.128000", "164453.130000", "164453.133000", "164453.137000", "164453.139000", "164453.142000", "164453.145000", "164453.149000", "164613.115000", "164613.118000", "164613.121000", "164613.125000", "164613.132000", "164613.135000", "164613.138000", "164613.141000", "164613.144000", "164613.147000", "164613.150000", "164613.153000", "164613.156000", "164613.159000", "164613.162000", "164613.165000", "164613.168000", "164613.171000", "164613.174000", "164613.178000", "164753.115000", "164753.118000", "164753.122000", "164753.125000", "164753.128000", "164753.131000", "164753.134000", "164753.137000", "164753.140000", "164753.143000", "164753.146000", "164753.149000", "164753.152000", "164753.155000", "164753.158000", "164753.161000", "164753.164000", "164753.167000", "164753.170000", "164753.173000", "164753.176000", "164753.179000", "164753.182000", "164753.185000", "164823.250000", "164823.253000", "164823.256000", "164823.260000", "164823.263000", "164823.266000", "164823.269000", "164823.272000"],
      "InstanceNumber": [1, 2, 3, 4, 5, 6, 7, 8, 9, 10, 11, 12, 13, 14, 15, 16, 17, 18, 19, 20, 21, 22, 23, 24, 25, 26, 27, 28, 29, 30, 31, 32, 33, 34, 35, 36, 37, 38, 39, 40, 41, 42, 43, 44, 45, 46, 47, 48, 49, 50, 51, 52, 53, 54, 55, 56, 57, 58, 59, 60, 61, 62, 63, 64, 65, 66, 67, 68, 69, 70, 71, 72, 73, 74, 75, 76, 77, 78, 79, 80, 81, 82, 83, 84, 85, 86, 87, 88, 89, 90, 91, 92, 93, 94, 95, 96, 97, 98, 99, 100, 101, 102, 103],
      "LargestImagePixelValue": [65535, 65535, 61031, 59988, 59862, 62267, 56818, 58494, 65535, 40665, 43107, 39574, 41607, 40909, 41809, 40849, 38998, 42855, 38862, 40431, 40927, 38994, 42000, 40417, 65535, 20626, 21237, 23452, 20810, 22372, 22784, 19686, 23840, 23037, 20654, 20262, 20457, 22261, 20811, 22913, 65535, 11316, 13478, 12534, 13135, 13551, 11997, 11181, 12176, 11974, 13107, 11930, 11152, 11643, 12298, 12285, 11653, 12505, 12327, 13146, 11392, 12459, 11191, 10753, 11859, 11458, 11227, 12162, 13430, 12949, 12902, 11034, 11417, 65535, 12920, 12157, 12586, 11349, 13913, 12277, 10793, 13771, 12085, 12134, 12481, 12192, 13289, 13996, 12122, 12526, 12414, 12699, 13117, 12227, 12889, 12140, 12649, 12372, 12879, 11664, 12064, 11223, 65535],
      "SequenceName": [
 "ep_b5#1",
 "ep_b5#1",
 "ep_b500#2",
 "ep_b500#3",
 "ep_b500#4",
 "ep_b505#5",
 "ep_b495#6",
 "ep_b500#7",
 "ep_b5#8",
 "ep_b1000#9",
 "ep_b1005#10",
 "ep_b995#11",
 "ep_b1005#12",
 "ep_b995#13",
 "ep_b995#14",
 "ep_b1005#15",
 "ep_b1000#16",
 "ep_b1000#17",
 "ep_b995#18",
 "ep_b1000#19",
 "ep_b995#20",
 "ep_b1000#21",
 "ep_b1005#22",
 "ep_b1005#23",
 "ep_b5#24",
 "ep_b2000#25",
 "ep_b1995#26",
 "ep_b1995#27",
 "ep_b1995#28",
 "ep_b2005#29",
 "ep_b2010#30",
 "ep_b2005#31",
 "ep_b2005#32",
 "ep_b1995#33",
 "ep_b1990#34",
 "ep_b1995#35",
 "ep_b2000#36",
 "ep_b2000#37",
 "ep_b2010#38",
 "ep_b2000#39",
 "ep_b5#40",
 "ep_b3000#41",
 "ep_b3005#42",
 "ep_b3010#43",
 "ep_b3010#44",
 "ep_b3000#45",
 "ep_b2995#46",
 "ep_b2990#47",
 "ep_b3000#48",
 "ep_b3000#49",
 "ep_b2990#50",
 "ep_b2990#51",
 "ep_b2995#52",
 "ep_b2995#53",
 "ep_b3010#54",
 "ep_b3000#55",
 "ep_b2995#56",
 "ep_b3000#57",
 "ep_b2990#58",
 "ep_b2990#59",
 "ep_b3000#60",
 "ep_b2990#61",
 "ep_b2990#62",
 "ep_b2995#63",
 "ep_b3005#64",
 "ep_b3010#65",
 "ep_b3000#66",
 "ep_b3005#67",
 "ep_b3010#68",
 "ep_b3005#69",
 "ep_b3005#70",
 "ep_b3010#71",
 "ep_b2990#72",
 "ep_b5#73",
 "ep_b3010#74",
 "ep_b3000#75",
 "ep_b3005#76",
 "ep_b3005#77",
 "ep_b2995#78",
 "ep_b3005#79",
 "ep_b3000#80",
 "ep_b3010#81",
 "ep_b3010#82",
 "ep_b3005#83",
 "ep_b3000#84",
 "ep_b3005#85",
 "ep_b3005#86",
 "ep_b3005#87",
 "ep_b2990#88",
 "ep_b3010#89",
 "ep_b2995#90",
 "ep_b2995#91",
 "ep_b2995#92",
 "ep_b2995#93",
 "ep_b3005#94",
 "ep_b3005#95",
 "ep_b2995#96",
 "ep_b3000#97",
 "ep_b2990#98",
 "ep_b3000#99",
 "ep_b2995#100",
 "ep_b2990#101",
 "ep_b5#102"
],
      "WindowCenter": [10386.0, 10396.0, 7304.0, 7314.0, 7290.0, 7268.0, 7313.0, 7309.0, 10403.0, 5486.0, 5453.0, 5461.0, 5460.0, 5468.0, 5477.0, 5431.0, 5511.0, 5524.0, 5488.0, 5450.0, 5516.0, 5470.0, 5474.0, 5497.0, 10415.0, 3477.0, 3459.0, 3458.0, 3540.0, 3472.0, 3459.0, 3471.0, 3481.0, 3541.0, 3499.0, 3455.0, 3436.0, 3476.0, 3458.0, 3489.0, 10430.0, 2411.0, 2418.0, 2440.0, 2433.0, 2465.0, 2452.0, 2414.0, 2405.0, 2394.0, 2403.0, 2382.0, 2408.0, 2422.0, 2428.0, 2418.0, 2411.0, 2419.0, 2437.0, 2421.0, 2409.0, 2411.0, 2429.0, 2431.0, 2451.0, 2428.0, 2378.0, 2438.0, 2452.0, 2432.0, 2432.0, 2417.0, 2426.0, 10395.0, 2419.0, 2461.0, 2406.0, 2403.0, 2427.0, 2410.0, 2380.0, 2428.0, 2451.0, 2404.0, 2444.0, 2434.0, 2416.0, 2442.0, 2425.0, 2408.0, 2459.0, 2418.0, 2406.0, 2457.0, 2425.0, 2443.0, 2506.0, 2423.0, 2450.0, 2388.0, 2418.0, 2433.0, 10436.0],
      "WindowWidth": [23458.0, 23489.0, 15461.0, 15471.0, 15418.0, 15404.0, 15495.0, 15466.0, 23511.0, 11807.0, 11756.0, 11764.0, 11766.0, 11787.0, 11794.0, 11708.0, 11851.0, 11871.0, 11810.0, 11729.0, 11851.0, 11773.0, 11790.0, 11805.0, 23542.0, 7902.0, 7861.0, 7853.0, 7996.0, 7882.0, 7860.0, 7884.0, 7906.0, 8002.0, 7930.0, 7863.0, 7831.0, 7876.0, 7852.0, 7899.0, 23597.0, 5822.0, 5794.0, 5849.0, 5818.0, 5901.0, 5877.0, 5797.0, 5773.0, 5784.0, 5751.0, 5721.0, 5814.0, 5837.0, 5834.0, 5824.0, 5819.0, 5793.0, 5831.0, 5793.0, 5788.0, 5786.0, 5831.0, 5852.0, 5875.0, 5830.0, 5746.0, 5844.0, 5871.0, 5850.0, 5850.0, 5818.0, 5813.0, 23449.0, 5788.0, 5886.0, 5778.0, 5795.0, 5794.0, 5791.0, 5759.0, 5802.0, 5867.0, 5797.0, 5872.0, 5863.0, 5782.0, 5830.0, 5814.0, 5771.0, 5898.0, 5789.0, 5768.0, 5894.0, 5823.0, 5868.0, 5976.0, 5812.0, 5854.0, 5762.0, 5820.0, 5855.0, 23555.0]
    },
    "slices": {}
  }
}