{
  "AcquisitionMatrixPE": 82,
  "AcquisitionNumber": 1,
  "AcquisitionTime": "18:27:22.440000",
  "BandwidthPerPixelPhaseEncode": 24.888,
  "BaseResolution": 82,
  "BodyPartExamined": "BRAIN",
  "ConsistencyInfo": "N4_VE11E_LATEST_20181129",
  "ConversionSoftware": "dcm2niix",
  "ConversionSoftwareVersion": "v1.0.20201102",
  "DerivedVendorReportedEchoSpacing": 0.00049,
  "DeviceSerialNumber": "66112",
  "DwellTime": 2e-06,
  "EchoTime": 0.0272,
  "EchoTrainLength": 82,
  "EffectiveEchoSpacing": 0.00049,
  "FlipAngle": 44,
  "ImageComments": "Unaliased MB8/PE3",
  "ImageOrientationPatientDICOM": [0.999731, 0.00598351, 0.0224018, -0.00593262, 0.99998, -0.00233768],
  "ImageType": [
    "ORIGINAL",
    "PRIMARY",
    "M",
    "MB",
    "ND",
    "NORM",
    "MOSAIC"
],
  "ImagingFrequency": 123.252,
  "InPlanePhaseEncodingDirectionDICOM": "COL",
  "InstitutionAddress": "Maynard 3,Hanover,NH,US,03755",
  "InstitutionName": "Dartmouth College - PBS",
  "InstitutionalDepartmentName": "Department",
  "MRAcquisitionType": "2D",
  "MagneticFieldStrength": 3,
  "Manufacturer": "Siemens",
  "ManufacturersModelName": "Prisma",
  "Modality": "MR",
  "MultibandAccelerationFactor": 8,
  "PartialFourier": 1,
  "PatientPosition": "HFS",
  "PercentPhaseFOV": 100,
  "PercentSampling": 100,
  "PhaseEncodingDirection": "j-",
  "PhaseEncodingSteps": 82,
  "PhaseResolution": 1,
  "PixelBandwidth": 3050,
  "ProcedureStepDescription": "Wager_Wager^1076_spacetop",
  "ProtocolName": "func_run-06_task-social_acq-ap-mb8",
  "PulseSequenceDetails": "%CustomerSeq%\\cmrr_mbep2d_bold",
  "ReceiveCoilActiveElements": "HEA;HEP",
  "ReceiveCoilName": "Head_32",
  "ReconMatrixPE": 82,
  "RepetitionTime": 0.46,
  "SAR": 0.0910527,
  "ScanOptions": "FS",
  "ScanningSequence": "EP",
  "SequenceName": "epfid2d1_82",
  "SequenceVariant": "SK\\SS",
  "SeriesDescription": "func_run-06_task-social_acq-ap-mb8",
  "SeriesNumber": 18,
  "ShimSetting": [4163, -7707, -7262, 589, 17, -111, -127, -1],
  "SliceThickness": 2.7,
  "SliceTiming": [0, 0.25, 0.0625, 0.315, 0.125, 0.3775, 0.1875, 0, 0.25, 0.0625, 0.315, 0.125, 0.3775, 0.1875, 0, 0.25, 0.0625, 0.315, 0.125, 0.3775, 0.1875, 0, 0.25, 0.0625, 0.315, 0.125, 0.3775, 0.1875, 0, 0.25, 0.0625, 0.315, 0.125, 0.3775, 0.1875, 0, 0.25, 0.0625, 0.315, 0.125, 0.3775, 0.1875, 0, 0.25, 0.0625, 0.315, 0.125, 0.3775, 0.1875, 0, 0.25, 0.0625, 0.315, 0.125, 0.3775, 0.1875],
  "SoftwareVersions": "syngo MR E11",
  "SpacingBetweenSlices": 2.7,
  "StationName": "AWP66112",
  "TaskName": "social",
  "TotalReadoutTime": 0.03969,
  "TxRefAmp": 251.455,
  "WipMemBlock": "0bd97f5c-a639-4094-a223-fe50cfa91d23||Sequence: R016 ve11e/master r/434b28f1; Aug  7 2019 18:53:46 by eja",
  "dcmmeta_affine": [
    [-2.6822056770324707, -0.01591677777469158, 0.06052127853035927, 110.47282409667969],
    [-0.016053322702646255, 2.6828722953796387, -0.005951198283582926, -92.42729949951172],
    [0.060102272778749466, 0.006271816790103912, 2.699315071105957, -79.33183288574219],
    [0.0, 0.0, 0.0, 1.0]
],
  "dcmmeta_reorient_transform": [
    [0.0, -1.0, 0.0, 81.0],
    [1.0, 0.0, 0.0, 0.0],
    [0.0, 0.0, 1.0, 0.0],
    [0.0, 0.0, 0.0, 1.0]
],
  "dcmmeta_shape": [82, 82, 56, 872],
  "dcmmeta_slice_dim": 2,
  "dcmmeta_version": 0.6,
  "global": {
    "const": {
      "AccessionNumber": "A004255",
      "AcquisitionMatrix": [82, 0, 0, 82],
      "AngioFlag": "N",
      "BitsAllocated": 16,
      "BitsStored": 16,
      "BodyPartExamined": "BRAIN",
      "Columns": 656,
      "EchoNumbers": 1,
      "EchoTime": 27.2,
      "EchoTrainLength": 82,
      "FlipAngle": 44.0,
      "HighBit": 15,
      "ImageOrientationPatient": [0.99973114331233, 0.00598351138296, 0.02240175624713, -0.0059326166871, 0.99997966945596, -0.00233767705],
      "ImagePositionPatient": [-874.4084488743, -899.4770304157, -94.273157997771],
      "ImageType": [
        "ORIGINAL",
        "PRIMARY",
        "M",
        "MB",
        "ND",
        "NORM",
        "MOSAIC"
],
      "ImagedNucleus": "1H",
      "ImagingFrequency": 123.252195,
      "InPlanePhaseEncodingDirection": "COL",
      "MRAcquisitionType": "2D",
      "MagneticFieldStrength": 3.0,
      "Manufacturer": "SIEMENS",
      "ManufacturerModelName": "Prisma",
      "Modality": "MR",
      "NumberOfAverages": 1.0,
      "NumberOfPhaseEncodingSteps": 82,
      "PercentPhaseFieldOfView": 100.0,
      "PercentSampling": 100.0,
      "PerformedProcedureStepStartTime": "173526.660000",
      "PhotometricInterpretation": "MONOCHROME2",
      "PixelBandwidth": 3050.0,
      "PixelRepresentation": 0,
      "PixelSpacing": [2.6829268932343, 2.6829268932343],
      "ProtocolName": "func_run-06_task-social_acq-ap-mb8",
      "RepetitionTime": 460.0,
      "Rows": 656,
      "SAR": 0.09105265681225,
      "SamplesPerPixel": 1,
      "ScanOptions": "FS",
      "ScanningSequence": "EP",
      "SequenceName": "epfid2d1_82",
      "SequenceVariant": [
        "SK",
        "SS"
],
      "SeriesDescription": "func_run-06_task-social_acq-ap-mb8",
      "SeriesNumber": 18,
      "SeriesTime": "182748.398000",
      "SliceLocation": -76.631704984924,
      "SliceThickness": 2.7000000476837,
      "SmallestImagePixelValue": 0,
      "SoftwareVersions": "syngo MR E11",
      "SpacingBetweenSlices": 2.6999999656675,
      "SpecificCharacterSet": "ISO_IR 100",
      "StudyID": "3",
      "StudyTime": "173526.607000",
      "TransmitCoilName": "Body",
      "VariableFlipAngleFlag": "N",
      "WindowCenterWidthExplanation": "Algo1"
    },
    "slices": {}
  },
  "time": {
    "samples": {
      "AcquisitionNumber": [1, 2, 3, 4, 5, 6, 7, 8, 9, 10, 11, 12, 13, 14, 15, 16, 17, 18, 19, 20, 21, 22, 23, 24, 25, 26, 27, 28, 29, 30, 31, 32, 33, 34, 35, 36, 37, 38, 39, 40, 41, 42, 43, 44, 45, 46, 47, 48, 49, 50, 51, 52, 53, 54, 55, 56, 57, 58, 59, 60, 61, 62, 63, 64, 65, 66, 67, 68, 69, 70, 71, 72, 73, 74, 75, 76, 77, 78, 79, 80, 81, 82, 83, 84, 85, 86, 87, 88, 89, 90, 91, 92, 93, 94, 95, 96, 97, 98, 99, 100, 101, 102, 103, 104, 105, 106, 107, 108, 109, 110, 111, 112, 113, 114, 115, 116, 117, 118, 119, 120, 121, 122, 123, 124, 125, 126, 127, 128, 129, 130, 131, 132, 133, 134, 135, 136, 137, 138, 139, 140, 141, 142, 143, 144, 145, 146, 147, 148, 149, 150, 151, 152, 153, 154, 155, 156, 157, 158, 159, 160, 161, 162, 163, 164, 165, 166, 167, 168, 169, 170, 171, 172, 173, 174, 175, 176, 177, 178, 179, 180, 181, 182, 183, 184, 185, 186, 187, 188, 189, 190, 191, 192, 193, 194, 195, 196, 197, 198, 199, 200, 201, 202, 203, 204, 205, 206, 207, 208, 209, 210, 211, 212, 213, 214, 215, 216, 217, 218, 219, 220, 221, 222, 223, 224, 225, 226, 227, 228, 229, 230, 231, 232, 233, 234, 235, 236, 237, 238, 239, 240, 241, 242, 243, 244, 245, 246, 247, 248, 249, 250, 251, 252, 253, 254, 255, 256, 257, 258, 259, 260, 261, 262, 263, 264, 265, 266, 267, 268, 269, 270, 271, 272, 273, 274, 275, 276, 277, 278, 279, 280, 281, 282, 283, 284, 285, 286, 287, 288, 289, 290, 291, 292, 293, 294, 295, 296, 297, 298, 299, 300, 301, 302, 303, 304, 305, 306, 307, 308, 309, 310, 311, 312, 313, 314, 315, 316, 317, 318, 319, 320, 321, 322, 323, 324, 325, 326, 327, 328, 329, 330, 331, 332, 333, 334, 335, 336, 337, 338, 339, 340, 341, 342, 343, 344, 345, 346, 347, 348, 349, 350, 351, 352, 353, 354, 355, 356, 357, 358, 359, 360, 361, 362, 363, 364, 365, 366, 367, 368, 369, 370, 371, 372, 373, 374, 375, 376, 377, 378, 379, 380, 381, 382, 383, 384, 385, 386, 387, 388, 389, 390, 391, 392, 393, 394, 395, 396, 397, 398, 399, 400, 401, 402, 403, 404, 405, 406, 407, 408, 409, 410, 411, 412, 413, 414, 415, 416, 417, 418, 419, 420, 421, 422, 423, 424, 425, 426, 427, 428, 429, 430, 431, 432, 433, 434, 435, 436, 437, 438, 439, 440, 441, 442, 443, 444, 445, 446, 447, 448, 449, 450, 451, 452, 453, 454, 455, 456, 457, 458, 459, 460, 461, 462, 463, 464, 465, 466, 467, 468, 469, 470, 471, 472, 473, 474, 475, 476, 477, 478, 479, 480, 481, 482, 483, 484, 485, 486, 487, 488, 489, 490, 491, 492, 493, 494, 495, 496, 497, 498, 499, 500, 501, 502, 503, 504, 505, 506, 507, 508, 509, 510, 511, 512, 513, 514, 515, 516, 517, 518, 519, 520, 521, 522, 523, 524, 525, 526, 527, 528, 529, 530, 531, 532, 533, 534, 535, 536, 537, 538, 539, 540, 541, 542, 543, 544, 545, 546, 547, 548, 549, 550, 551, 552, 553, 554, 555, 556, 557, 558, 559, 560, 561, 562, 563, 564, 565, 566, 567, 568, 569, 570, 571, 572, 573, 574, 575, 576, 577, 578, 579, 580, 581, 582, 583, 584, 585, 586, 587, 588, 589, 590, 591, 592, 593, 594, 595, 596, 597, 598, 599, 600, 601, 602, 603, 604, 605, 606, 607, 608, 609, 610, 611, 612, 613, 614, 615, 616, 617, 618, 619, 620, 621, 622, 623, 624, 625, 626, 627, 628, 629, 630, 631, 632, 633, 634, 635, 636, 637, 638, 639, 640, 641, 642, 643, 644, 645, 646, 647, 648, 649, 650, 651, 652, 653, 654, 655, 656, 657, 658, 659, 660, 661, 662, 663, 664, 665, 666, 667, 668, 669, 670, 671, 672, 673, 674, 675, 676, 677, 678, 679, 680, 681, 682, 683, 684, 685, 686, 687, 688, 689, 690, 691, 692, 693, 694, 695, 696, 697, 698, 699, 700, 701, 702, 703, 704, 705, 706, 707, 708, 709, 710, 711, 712, 713, 714, 715, 716, 717, 718, 719, 720, 721, 722, 723, 724, 725, 726, 727, 728, 729, 730, 731, 732, 733, 734, 735, 736, 737, 738, 739, 740, 741, 742, 743, 744, 745, 746, 747, 748, 749, 750, 751, 752, 753, 754, 755, 756, 757, 758, 759, 760, 761, 762, 763, 764, 765, 766, 767, 768, 769, 770, 771, 772, 773, 774, 775, 776, 777, 778, 779, 780, 781, 782, 783, 784, 785, 786, 787, 788, 789, 790, 791, 792, 793, 794, 795, 796, 797, 798, 799, 800, 801, 802, 803, 804, 805, 806, 807, 808, 809, 810, 811, 812, 813, 814, 815, 816, 817, 818, 819, 820, 821, 822, 823, 824, 825, 826, 827, 828, 829, 830, 831, 832, 833, 834, 835, 836, 837, 838, 839, 840, 841, 842, 843, 844, 845, 846, 847, 848, 849, 850, 851, 852, 853, 854, 855, 856, 857, 858, 859, 860, 861, 862, 863, 864, 865, 866, 867, 868, 869, 870, 871, 872],
      "AcquisitionTime": ["182722.440000", "182722.900000", "182723.360000", "182723.820000", "182724.280000", "182724.740000", "182725.200000", "182725.660000", "182726.120000", "182726.580000", "182727.040000", "182727.500000", "182727.960000", "182728.420000", "182728.880000", "182729.340000", "182729.800000", "182730.260000", "182730.720000", "182731.180000", "182731.640000", "182732.100000", "182732.560000", "182733.020000", "182733.480000", "182733.940000", "182734.400000", "182734.860000", "182735.320000", "182735.780000", "182736.240000", "182736.700000", "182737.160000", "182737.620000", "182738.080000", "182738.540000", "182739.000000", "182739.460000", "182739.920000", "182740.380000", "182740.840000", "182741.300000", "182741.760000", "182742.220000", "182742.680000", "182743.140000", "182743.600000", "182744.060000", "182744.520000", "182744.980000", "182745.440000", "182745.900000", "182746.360000", "182746.820000", "182747.280000", "182747.740000", "182748.200000", "182748.660000", "182749.120000", "182749.580000", "182750.040000", "182750.500000", "182750.960000", "182751.420000", "182751.880000", "182752.340000", "182752.800000", "182753.260000", "182753.720000", "182754.180000", "182754.640000", "182755.100000", "182755.560000", "182756.020000", "182756.480000", "182756.940000", "182757.400000", "182757.860000", "182758.320000", "182758.780000", "182759.240000", "182759.700000", "182800.160000", "182800.620000", "182801.080000", "182801.540000", "182802.000000", "182802.460000", "182802.920000", "182803.380000", "182803.840000", "182804.300000", "182804.760000", "182805.220000", "182805.680000", "182806.140000", "182806.600000", "182807.060000", "182807.520000", "182807.980000", "182808.440000", "182808.900000", "182809.360000", "182809.820000", "182810.280000", "182810.740000", "182811.200000", "182811.660000", "182812.120000", "182812.580000", "182813.040000", "182813.500000", "182813.960000", "182814.420000", "182814.880000", "182815.340000", "182815.800000", "182816.260000", "182816.720000", "182817.180000", "182817.640000", "182818.100000", "182818.560000", "182819.020000", "182819.480000", "182819.940000", "182820.400000", "182820.860000", "182821.320000", "182821.780000", "182822.240000", "182822.700000", "182823.160000", "182823.620000", "182824.080000", "182824.540000", "182825.000000", "182825.460000", "182825.920000", "182826.380000", "182826.840000", "182827.300000", "182827.760000", "182828.220000", "182828.680000", "182829.140000", "182829.600000", "182830.060000", "182830.520000", "182830.980000", "182831.440000", "182831.900000", "182832.360000", "182832.820000", "182833.280000", "182833.740000", "182834.200000", "182834.660000", "182835.120000", "182835.580000", "182836.040000", "182836.500000", "182836.960000", "182837.420000", "182837.880000", "182838.340000", "182838.800000", "182839.260000", "182839.720000", "182840.180000", "182840.640000", "182841.100000", "182841.560000", "182842.020000", "182842.480000", "182842.940000", "182843.400000", "182843.860000", "182844.320000", "182844.780000", "182845.240000", "182845.700000", "182846.160000", "182846.620000", "182847.080000", "182847.540000", "182848.000000", "182848.460000", "182848.920000", "182849.380000", "182849.840000", "182850.300000", "182850.760000", "182851.220000", "182851.680000", "182852.140000", "182852.600000", "182853.060000", "182853.520000", "182853.980000", "182854.440000", "182854.900000", "182855.360000", "182855.820000", "182856.280000", "182856.740000", "182857.200000", "182857.660000", "182858.120000", "182858.580000", "182859.040000", "182859.500000", "182859.960000", "182900.420000", "182900.880000", "182901.340000", "182901.800000", "182902.260000", "182902.720000", "182903.180000", "182903.640000", "182904.100000", "182904.560000", "182905.020000", "182905.480000", "182905.940000", "182906.400000", "182906.860000", "182907.320000", "182907.780000", "182908.240000", "182908.700000", "182909.160000", "182909.620000", "182910.080000", "182910.540000", "182911.000000", "182911.460000", "182911.920000", "182912.380000", "182912.840000", "182913.300000", "182913.760000", "182914.220000", "182914.680000", "182915.140000", "182915.600000", "182916.060000", "182916.520000", "182916.980000", "182917.440000", "182917.900000", "182918.360000", "182918.820000", "182919.280000", "182919.740000", "182920.200000", "182920.660000", "182921.120000", "182921.580000", "182922.040000", "182922.500000", "182922.960000", "182923.420000", "182923.880000", "182924.340000", "182924.800000", "182925.260000", "182925.720000", "182926.180000", "182926.640000", "182927.100000", "182927.560000", "182928.020000", "182928.480000", "182928.940000", "182929.400000", "182929.860000", "182930.320000", "182930.780000", "182931.240000", "182931.700000", "182932.160000", "182932.620000", "182933.080000", "182933.540000", "182934.000000", "182934.460000", "182934.920000", "182935.380000", "182935.840000", "182936.300000", "182936.760000", "182937.220000", "182937.680000", "182938.140000", "182938.600000", "182939.060000", "182939.520000", "182939.980000", "182940.440000", "182940.900000", "182941.360000", "182941.820000", "182942.280000", "182942.740000", "182943.200000", "182943.660000", "182944.120000", "182944.580000", "182945.040000", "182945.500000", "182945.960000", "182946.420000", "182946.880000", "182947.340000", "182947.800000", "182948.260000", "182948.720000", "182949.180000", "182949.640000", "182950.100000", "182950.560000", "182951.020000", "182951.480000", "182951.940000", "182952.400000", "182952.860000", "182953.320000", "182953.780000", "182954.240000", "182954.700000", "182955.160000", "182955.620000", "182956.080000", "182956.540000", "182957.000000", "182957.460000", "182957.920000", "182958.380000", "182958.840000", "182959.300000", "182959.760000", "183000.220000", "183000.680000", "183001.140000", "183001.600000", "183002.060000", "183002.520000", "183002.980000", "183003.440000", "183003.900000", "183004.360000", "183004.820000", "183005.280000", "183005.740000", "183006.200000", "183006.660000", "183007.120000", "183007.580000", "183008.040000", "183008.500000", "183008.960000", "183009.420000", "183009.880000", "183010.340000", "183010.800000", "183011.260000", "183011.720000", "183012.180000", "183012.640000", "183013.100000", "183013.560000", "183014.020000", "183014.480000", "183014.940000", "183015.400000", "183015.860000", "183016.320000", "183016.780000", "183017.240000", "183017.700000", "183018.160000", "183018.620000", "183019.080000", "183019.540000", "183020.000000", "183020.460000", "183020.920000", "183021.380000", "183021.840000", "183022.300000", "183022.760000", "183023.220000", "183023.680000", "183024.140000", "183024.600000", "183025.060000", "183025.520000", "183025.980000", "183026.440000", "183026.900000", "183027.360000", "183027.820000", "183028.280000", "183028.740000", "183029.200000", "183029.660000", "183030.120000", "183030.580000", "183031.040000", "183031.500000", "183031.960000", "183032.420000", "183032.880000", "183033.340000", "183033.800000", "183034.260000", "183034.720000", "183035.180000", "183035.640000", "183036.100000", "183036.560000", "183037.020000", "183037.480000", "183037.940000", "183038.400000", "183038.860000", "183039.320000", "183039.780000", "183040.240000", "183040.700000", "183041.160000", "183041.620000", "183042.080000", "183042.540000", "183043.000000", "183043.460000", "183043.920000", "183044.380000", "183044.840000", "183045.300000", "183045.760000", "183046.220000", "183046.680000", "183047.140000", "183047.600000", "183048.060000", "183048.520000", "183048.980000", "183049.440000", "183049.900000", "183050.360000", "183050.820000", "183051.280000", "183051.740000", "183052.200000", "183052.660000", "183053.120000", "183053.580000", "183054.040000", "183054.500000", "183054.960000", "183055.420000", "183055.880000", "183056.340000", "183056.800000", "183057.260000", "183057.720000", "183058.180000", "183058.640000", "183059.100000", "183059.560000", "183100.020000", "183100.480000", "183100.940000", "183101.400000", "183101.860000", "183102.320000", "183102.780000", "183103.240000", "183103.700000", "183104.160000", "183104.620000", "183105.080000", "183105.540000", "183106.000000", "183106.460000", "183106.920000", "183107.380000", "183107.840000", "183108.300000", "183108.760000", "183109.220000", "183109.680000", "183110.140000", "183110.600000", "183111.060000", "183111.520000", "183111.980000", "183112.440000", "183112.900000", "183113.360000", "183113.820000", "183114.280000", "183114.740000", "183115.200000", "183115.660000", "183116.120000", "183116.580000", "183117.040000", "183117.500000", "183117.960000", "183118.420000", "183118.880000", "183119.340000", "183119.800000", "183120.260000", "183120.720000", "183121.180000", "183121.640000", "183122.100000", "183122.560000", "183123.020000", "183123.480000", "183123.940000", "183124.400000", "183124.860000", "183125.320000", "183125.780000", "183126.240000", "183126.700000", "183127.160000", "183127.620000", "183128.080000", "183128.540000", "183129.000000", "183129.460000", "183129.920000", "183130.380000", "183130.840000", "183131.300000", "183131.760000", "183132.220000", "183132.680000", "183133.140000", "183133.600000", "183134.060000", "183134.520000", "183134.980000", "183135.440000", "183135.900000", "183136.360000", "183136.820000", "183137.280000", "183137.740000", "183138.200000", "183138.660000", "183139.120000", "183139.580000", "183140.040000", "183140.500000", "183140.960000", "183141.420000", "183141.880000", "183142.340000", "183142.800000", "183143.260000", "183143.720000", "183144.180000", "183144.640000", "183145.100000", "183145.560000", "183146.020000", "183146.480000", "183146.940000", "183147.400000", "183147.860000", "183148.320000", "183148.780000", "183149.240000", "183149.700000", "183150.160000", "183150.620000", "183151.080000", "183151.540000", "183152.000000", "183152.460000", "183152.920000", "183153.380000", "183153.840000", "183154.300000", "183154.760000", "183155.220000", "183155.680000", "183156.140000", "183156.600000", "183157.060000", "183157.520000", "183157.980000", "183158.440000", "183158.900000", "183159.360000", "183159.820000", "183200.280000", "183200.740000", "183201.200000", "183201.660000", "183202.120000", "183202.580000", "183203.040000", "183203.500000", "183203.960000", "183204.420000", "183204.880000", "183205.340000", "183205.800000", "183206.260000", "183206.720000", "183207.180000", "183207.640000", "183208.100000", "183208.560000", "183209.020000", "183209.480000", "183209.940000", "183210.400000", "183210.860000", "183211.320000", "183211.780000", "183212.240000", "183212.700000", "183213.160000", "183213.620000", "183214.080000", "183214.540000", "183215.000000", "183215.460000", "183215.920000", "183216.380000", "183216.840000", "183217.300000", "183217.760000", "183218.220000", "183218.680000", "183219.140000", "183219.600000", "183220.060000", "183220.520000", "183220.980000", "183221.440000", "183221.900000", "183222.360000", "183222.820000", "183223.280000", "183223.740000", "183224.200000", "183224.660000", "183225.120000", "183225.580000", "183226.040000", "183226.500000", "183226.960000", "183227.420000", "183227.880000", "183228.340000", "183228.800000", "183229.260000", "183229.720000", "183230.180000", "183230.640000", "183231.100000", "183231.560000", "183232.020000", "183232.480000", "183232.940000", "183233.400000", "183233.860000", "183234.320000", "183234.780000", "183235.240000", "183235.700000", "183236.160000", "183236.620000", "183237.080000", "183237.540000", "183238.000000", "183238.460000", "183238.920000", "183239.380000", "183239.840000", "183240.300000", "183240.760000", "183241.220000", "183241.680000", "183242.140000", "183242.600000", "183243.060000", "183243.520000", "183243.980000", "183244.440000", "183244.900000", "183245.360000", "183245.820000", "183246.280000", "183246.740000", "183247.200000", "183247.660000", "183248.120000", "183248.580000", "183249.040000", "183249.500000", "183249.960000", "183250.420000", "183250.880000", "183251.340000", "183251.800000", "183252.260000", "183252.720000", "183253.180000", "183253.640000", "183254.100000", "183254.560000", "183255.020000", "183255.480000", "183255.940000", "183256.400000", "183256.860000", "183257.320000", "183257.780000", "183258.240000", "183258.700000", "183259.160000", "183259.620000", "183300.080000", "183300.540000", "183301.000000", "183301.460000", "183301.920000", "183302.380000", "183302.840000", "183303.300000", "183303.760000", "183304.220000", "183304.680000", "183305.140000", "183305.600000", "183306.060000", "183306.520000", "183306.980000", "183307.440000", "183307.900000", "183308.360000", "183308.820000", "183309.280000", "183309.740000", "183310.200000", "183310.660000", "183311.120000", "183311.580000", "183312.040000", "183312.500000", "183312.960000", "183313.420000", "183313.880000", "183314.340000", "183314.800000", "183315.260000", "183315.720000", "183316.180000", "183316.640000", "183317.100000", "183317.560000", "183318.020000", "183318.480000", "183318.940000", "183319.400000", "183319.860000", "183320.320000", "183320.780000", "183321.240000", "183321.700000", "183322.160000", "183322.620000", "183323.080000", "183323.540000", "183324.000000", "183324.460000", "183324.920000", "183325.380000", "183325.840000", "183326.300000", "183326.760000", "183327.220000", "183327.680000", "183328.140000", "183328.600000", "183329.060000", "183329.520000", "183329.980000", "183330.440000", "183330.900000", "183331.360000", "183331.820000", "183332.280000", "183332.740000", "183333.200000", "183333.660000", "183334.120000", "183334.580000", "183335.040000", "183335.500000", "183335.960000", "183336.420000", "183336.880000", "183337.340000", "183337.800000", "183338.260000", "183338.720000", "183339.180000", "183339.640000", "183340.100000", "183340.560000", "183341.020000", "183341.480000", "183341.940000", "183342.400000", "183342.860000", "183343.320000", "183343.780000", "183344.240000", "183344.700000", "183345.160000", "183345.620000", "183346.080000", "183346.540000", "183347.000000", "183347.460000", "183347.920000", "183348.380000", "183348.840000", "183349.300000", "183349.760000", "183350.220000", "183350.680000", "183351.140000", "183351.600000", "183352.060000", "183352.520000", "183352.980000", "183353.440000", "183353.900000", "183354.360000", "183354.820000", "183355.280000", "183355.740000", "183356.200000", "183356.660000", "183357.120000", "183357.580000", "183358.040000", "183358.500000", "183358.960000", "183359.420000", "183359.880000", "183400.340000", "183400.800000", "183401.260000", "183401.720000", "183402.180000", "183402.640000", "183403.100000"],
