{
  "AcquisitionMatrixPE": 82,
  "AcquisitionNumber": 1,
  "AcquisitionTime": "14:02:51.797500",
  "BandwidthPerPixelPhaseEncode": 24.888,
  "BaseResolution": 82,
  "BodyPartExamined": "BRAIN",
  "ConsistencyInfo": "N4_VE11C_LATEST_20160120",
  "ConversionSoftware": "dcm2niix",
  "ConversionSoftwareVersion": "v1.0.20201102",
  "DerivedVendorReportedEchoSpacing": 0.00049,
  "DeviceSerialNumber": "66112",
  "DwellTime": 2e-06,
  "EchoTime": 0.0272,
  "EchoTrainLength": 82,
  "EffectiveEchoSpacing": 0.00049,
  "FlipAngle": 44,
  "ImageComments": "Unaliased MB8/PE3",
  "ImageOrientationPatientDICOM": [0.99709, -0.073896, -0.0187402, 0.0746216, 0.996346, 0.0415377],
  "ImageType": [
    "ORIGINAL",
    "PRIMARY",
    "M",
    "MB",
    "ND",
    "NORM",
    "MOSAIC"
],
  "ImagingFrequency": 123.252,
  "InPlanePhaseEncodingDirectionDICOM": "COL",
  "InstitutionAddress": "Maynard 3,Hanover,NH,US,03755",
  "InstitutionName": "Dartmouth College - PBS",
  "InstitutionalDepartmentName": "Department",
  "MRAcquisitionType": "2D",
  "MagneticFieldStrength": 3,
  "Manufacturer": "Siemens",
  "ManufacturersModelName": "Prisma",
  "Modality": "MR",
  "MultibandAccelerationFactor": 8,
  "PartialFourier": 1,
  "PatientPosition": "HFS",
  "PercentPhaseFOV": 100,
  "PercentSampling": 100,
  "PhaseEncodingDirection": "j-",
  "PhaseEncodingSteps": 82,
  "PhaseResolution": 1,
  "PixelBandwidth": 3050,
  "ProcedureStepDescription": "Wager_Wager^1076_spacetop",
  "ProtocolName": "func_run-01_task-faces_acq-ap-mb8",
  "PulseSequenceDetails": "%CustomerSeq%\\cmrr_mbep2d_bold",
  "ReceiveCoilActiveElements": "HEA;HEP",
  "ReceiveCoilName": "Head_32",
  "ReconMatrixPE": 82,
  "RepetitionTime": 0.46,
  "SAR": 0.0974969,
  "ScanOptions": "FS",
  "ScanningSequence": "EP",
  "SequenceName": "epfid2d1_82",
  "SequenceVariant": "SK\\SS",
  "SeriesDescription": "func_run-01_task-faces_acq-ap-mb8",
  "SeriesNumber": 16,
  "ShimSetting": [4145, -7775, -7252, 571, -16, -62, -20, 59],
  "SliceThickness": 2.7,
  "SliceTiming": [0, 0.2525, 0.0625, 0.315, 0.1275, 0.3775, 0.19, 0, 0.2525, 0.0625, 0.315, 0.1275, 0.3775, 0.19, 0, 0.2525, 0.0625, 0.315, 0.1275, 0.3775, 0.19, 0, 0.2525, 0.0625, 0.315, 0.1275, 0.3775, 0.19, 0, 0.2525, 0.0625, 0.315, 0.1275, 0.3775, 0.19, 0, 0.2525, 0.0625, 0.315, 0.1275, 0.3775, 0.19, 0, 0.2525, 0.0625, 0.315, 0.1275, 0.3775, 0.19, 0, 0.2525, 0.0625, 0.315, 0.1275, 0.3775, 0.19],
  "SoftwareVersions": "syngo MR E11",
  "SpacingBetweenSlices": 2.7,
  "StationName": "AWP66112",
  "TaskName": "faces",
  "TotalReadoutTime": 0.03969,
  "TxRefAmp": 241.491,
  "WipMemBlock": "6b4a29ef-d430-4cef-b245-a579b5f17923||Sequence: R016 ve11c/master r/e634e98; Dec 19 2017 11:00:25 by eja",
  "dcmmeta_affine": [
    [-2.675119161605835, 0.20020417869091034, -0.042126040905714035, 103.12435913085938],
    [0.1982574462890625, 2.6731247901916504, 0.11560112982988358, -104.11991882324219],
    [-0.05027851462364197, -0.11144258826971054, 2.697195053100586, -53.94114303588867],
    [0.0, 0.0, 0.0, 1.0]
],
  "dcmmeta_reorient_transform": [
    [0.0, -1.0, 0.0, 81.0],
    [1.0, 0.0, 0.0, 0.0],
    [0.0, 0.0, 1.0, 0.0],
    [0.0, 0.0, 0.0, 1.0]
],
  "dcmmeta_shape": [82, 82, 56, 914],
  "dcmmeta_slice_dim": 2,
  "dcmmeta_version": 0.6,
  "global": {
    "const": {
      "AccessionNumber": "A003612",
      "AcquisitionMatrix": [82, 0, 0, 82],
      "AngioFlag": "N",
      "BitsAllocated": 16,
      "BitsStored": 16,
      "BodyPartExamined": "BRAIN",
      "Columns": 656,
      "EchoNumbers": 1,
      "EchoTime": 27.2,
      "EchoTrainLength": 82,
      "FlipAngle": 44.0,
      "HighBit": 15,
      "ImageOrientationPatient": [0.99708986231003, -0.0738959566437, -0.018740172632, 0.07462155641444, 0.99634644749536, 0.04153769230072],
      "ImagePositionPatient": [-944.55870768168, -822.69007366351, -80.522083900065],
      "ImageType": [
        "ORIGINAL",
        "PRIMARY",
        "M",
        "MB",
        "ND",
        "NORM",
        "MOSAIC"
],
      "ImagedNucleus": "1H",
      "ImagingFrequency": 123.252179,
      "InPlanePhaseEncodingDirection": "COL",
      "MRAcquisitionType": "2D",
      "MagneticFieldStrength": 3.0,
      "Manufacturer": "SIEMENS",
      "ManufacturerModelName": "Prisma",
      "Modality": "MR",
      "NumberOfAverages": 1.0,
      "NumberOfPhaseEncodingSteps": 82,
      "PercentPhaseFieldOfView": 100.0,
      "PercentSampling": 100.0,
      "PerformedProcedureStepStartTime": "130251.971000",
      "PhotometricInterpretation": "MONOCHROME2",
      "PixelBandwidth": 3050.0,
      "PixelRepresentation": 0,
      "PixelSpacing": [2.6829268932343, 2.6829268932343],
      "ProtocolName": "func_run-01_task-faces_acq-ap-mb8",
      "RepetitionTime": 460.0,
      "Rows": 656,
      "SAR": 0.09749687520162,
      "SamplesPerPixel": 1,
      "ScanOptions": "FS",
      "ScanningSequence": "EP",
      "SequenceName": "epfid2d1_82",
      "SequenceVariant": [
        "SK",
        "SS"
],
      "SeriesDescription": "func_run-01_task-faces_acq-ap-mb8",
      "SeriesNumber": 16,
      "SeriesTime": "140306.297000",
      "SliceLocation": -59.951997179374,
      "SliceThickness": 2.7000000476837,
      "SmallestImagePixelValue": 0,
      "SoftwareVersions": "syngo MR E11",
      "SpacingBetweenSlices": 2.6999999879531,
      "SpecificCharacterSet": "ISO_IR 100",
      "StudyID": "1",
      "StudyTime": "130251.915000",
      "TransmitCoilName": "Body",
      "VariableFlipAngleFlag": "N",
      "WindowCenterWidthExplanation": "Algo1",
      "dBdt": 0.0},
    "slices": {}
  },
  "time": {
    "samples": {
      "AcquisitionNumber": [1, 2, 3, 4, 5, 6, 7, 8, 9, 10, 11, 12, 13, 14, 15, 16, 17, 18, 19, 20, 21, 22, 23, 24, 25, 26, 27, 28, 29, 30, 31, 32, 33, 34, 35, 36, 37, 38, 39, 40, 41, 42, 43, 44, 45, 46, 47, 48, 49, 50, 51, 52, 53, 54, 55, 56, 57, 58, 59, 60, 61, 62, 63, 64, 65, 66, 67, 68, 69, 70, 71, 72, 73, 74, 75, 76, 77, 78, 79, 80, 81, 82, 83, 84, 85, 86, 87, 88, 89, 90, 91, 92, 93, 94, 95, 96, 97, 98, 99, 100, 101, 102, 103, 104, 105, 106, 107, 108, 109, 110, 111, 112, 113, 114, 115, 116, 117, 118, 119, 120, 121, 122, 123, 124, 125, 126, 127, 128, 129, 130, 131, 132, 133, 134, 135, 136, 137, 138, 139, 140, 141, 142, 143, 144, 145, 146, 147, 148, 149, 150, 151, 152, 153, 154, 155, 156, 157, 158, 159, 160, 161, 162, 163, 164, 165, 166, 167, 168, 169, 170, 171, 172, 173, 174, 175, 176, 177, 178, 179, 180, 181, 182, 183, 184, 185, 186, 187, 188, 189, 190, 191, 192, 193, 194, 195, 196, 197, 198, 199, 200, 201, 202, 203, 204, 205, 206, 207, 208, 209, 210, 211, 212, 213, 214, 215, 216, 217, 218, 219, 220, 221, 222, 223, 224, 225, 226, 227, 228, 229, 230, 231, 232, 233, 234, 235, 236, 237, 238, 239, 240, 241, 242, 243, 244, 245, 246, 247, 248, 249, 250, 251, 252, 253, 254, 255, 256, 257, 258, 259, 260, 261, 262, 263, 264, 265, 266, 267, 268, 269, 270, 271, 272, 273, 274, 275, 276, 277, 278, 279, 280, 281, 282, 283, 284, 285, 286, 287, 288, 289, 290, 291, 292, 293, 294, 295, 296, 297, 298, 299, 300, 301, 302, 303, 304, 305, 306, 307, 308, 309, 310, 311, 312, 313, 314, 315, 316, 317, 318, 319, 320, 321, 322, 323, 324, 325, 326, 327, 328, 329, 330, 331, 332, 333, 334, 335, 336, 337, 338, 339, 340, 341, 342, 343, 344, 345, 346, 347, 348, 349, 350, 351, 352, 353, 354, 355, 356, 357, 358, 359, 360, 361, 362, 363, 364, 365, 366, 367, 368, 369, 370, 371, 372, 373, 374, 375, 376, 377, 378, 379, 380, 381, 382, 383, 384, 385, 386, 387, 388, 389, 390, 391, 392, 393, 394, 395, 396, 397, 398, 399, 400, 401, 402, 403, 404, 405, 406, 407, 408, 409, 410, 411, 412, 413, 414, 415, 416, 417, 418, 419, 420, 421, 422, 423, 424, 425, 426, 427, 428, 429, 430, 431, 432, 433, 434, 435, 436, 437, 438, 439, 440, 441, 442, 443, 444, 445, 446, 447, 448, 449, 450, 451, 452, 453, 454, 455, 456, 457, 458, 459, 460, 461, 462, 463, 464, 465, 466, 467, 468, 469, 470, 471, 472, 473, 474, 475, 476, 477, 478, 479, 480, 481, 482, 483, 484, 485, 486, 487, 488, 489, 490, 491, 492, 493, 494, 495, 496, 497, 498, 499, 500, 501, 502, 503, 504, 505, 506, 507, 508, 509, 510, 511, 512, 513, 514, 515, 516, 517, 518, 519, 520, 521, 522, 523, 524, 525, 526, 527, 528, 529, 530, 531, 532, 533, 534, 535, 536, 537, 538, 539, 540, 541, 542, 543, 544, 545, 546, 547, 548, 549, 550, 551, 552, 553, 554, 555, 556, 557, 558, 559, 560, 561, 562, 563, 564, 565, 566, 567, 568, 569, 570, 571, 572, 573, 574, 575, 576, 577, 578, 579, 580, 581, 582, 583, 584, 585, 586, 587, 588, 589, 590, 591, 592, 593, 594, 595, 596, 597, 598, 599, 600, 601, 602, 603, 604, 605, 606, 607, 608, 609, 610, 611, 612, 613, 614, 615, 616, 617, 618, 619, 620, 621, 622, 623, 624, 625, 626, 627, 628, 629, 630, 631, 632, 633, 634, 635, 636, 637, 638, 639, 640, 641, 642, 643, 644, 645, 646, 647, 648, 649, 650, 651, 652, 653, 654, 655, 656, 657, 658, 659, 660, 661, 662, 663, 664, 665, 666, 667, 668, 669, 670, 671, 672, 673, 674, 675, 676, 677, 678, 679, 680, 681, 682, 683, 684, 685, 686, 687, 688, 689, 690, 691, 692, 693, 694, 695, 696, 697, 698, 699, 700, 701, 702, 703, 704, 705, 706, 707, 708, 709, 710, 711, 712, 713, 714, 715, 716, 717, 718, 719, 720, 721, 722, 723, 724, 725, 726, 727, 728, 729, 730, 731, 732, 733, 734, 735, 736, 737, 738, 739, 740, 741, 742, 743, 744, 745, 746, 747, 748, 749, 750, 751, 752, 753, 754, 755, 756, 757, 758, 759, 760, 761, 762, 763, 764, 765, 766, 767, 768, 769, 770, 771, 772, 773, 774, 775, 776, 777, 778, 779, 780, 781, 782, 783, 784, 785, 786, 787, 788, 789, 790, 791, 792, 793, 794, 795, 796, 797, 798, 799, 800, 801, 802, 803, 804, 805, 806, 807, 808, 809, 810, 811, 812, 813, 814, 815, 816, 817, 818, 819, 820, 821, 822, 823, 824, 825, 826, 827, 828, 829, 830, 831, 832, 833, 834, 835, 836, 837, 838, 839, 840, 841, 842, 843, 844, 845, 846, 847, 848, 849, 850, 851, 852, 853, 854, 855, 856, 857, 858, 859, 860, 861, 862, 863, 864, 865, 866, 867, 868, 869, 870, 871, 872, 873, 874, 875, 876, 877, 878, 879, 880, 881, 882, 883, 884, 885, 886, 887, 888, 889, 890, 891, 892, 893, 894, 895, 896, 897, 898, 899, 900, 901, 902, 903, 904, 905, 906, 907, 908, 909, 910, 911, 912, 913, 914],
      "AcquisitionTime": ["140251.797500", "140252.257500", "140252.717500", "140253.177500", "140253.637500", "140254.097500", "140254.557500", "140255.017500", "140255.477500", "140255.937500", "140256.397500", "140256.857500", "140257.317500", "140257.777500", "140258.237500", "140258.697500", "140259.157500", "140259.617500", "140300.077500", "140300.537500", "140300.997500", "140301.457500", "140301.917500", "140302.377500", "140302.837500", "140303.297500", "140303.757500", "140304.217500", "140304.677500", "140305.137500", "140305.597500", "140306.057500", "140306.517500", "140306.977500", "140307.437500", "140307.897500", "140308.357500", "140308.817500", "140309.277500", "140309.737500", "140310.197500", "140310.657500", "140311.117500", "140311.577500", "140312.037500", "140312.497500", "140312.957500", "140313.417500", "140313.877500", "140314.337500", "140314.797500", "140315.257500", "140315.717500", "140316.177500", "140316.637500", "140317.097500", "140317.557500", "140318.017500", "140318.477500", "140318.937500", "140319.397500", "140319.857500", "140320.317500", "140320.777500", "140321.237500", "140321.697500", "140322.157500", "140322.617500", "140323.077500", "140323.537500", "140323.997500", "140324.457500", "140324.917500", "140325.377500", "140325.837500", "140326.297500", "140326.757500", "140327.217500", "140327.677500", "140328.137500", "140328.597500", "140329.057500", "140329.517500", "140329.977500", "140330.437500", "140330.897500", "140331.357500", "140331.817500", "140332.277500", "140332.737500", "140333.197500", "140333.657500", "140334.117500", "140334.577500", "140335.037500", "140335.497500", "140335.957500", "140336.417500", "140336.877500", "140337.337500", "140337.797500", "140338.257500", "140338.717500", "140339.177500", "140339.637500", "140340.097500", "140340.557500", "140341.017500", "140341.477500", "140341.937500", "140342.397500", "140342.857500", "140343.317500", "140343.777500", "140344.237500", "140344.697500", "140345.157500", "140345.617500", "140346.077500", "140346.537500", "140346.997500", "140347.457500", "140347.917500", "140348.377500", "140348.837500", "140349.297500", "140349.757500", "140350.217500", "140350.677500", "140351.137500", "140351.597500", "140352.057500", "140352.517500", "140352.977500", "140353.437500", "140353.897500", "140354.357500", "140354.817500", "140355.277500", "140355.737500", "140356.197500", "140356.657500", "140357.117500", "140357.577500", "140358.037500", "140358.497500", "140358.957500", "140359.417500", "140359.877500", "140400.337500", "140400.797500", "140401.257500", "140401.717500", "140402.177500", "140402.637500", "140403.097500", "140403.557500", "140404.017500", "140404.477500", "140404.937500", "140405.397500", "140405.857500", "140406.317500", "140406.777500", "140407.237500", "140407.697500", "140408.157500", "140408.617500", "140409.077500", "140409.537500", "140409.997500", "140410.457500", "140410.917500", "140411.377500", "140411.837500", "140412.297500", "140412.757500", "140413.217500", "140413.677500", "140414.137500", "140414.597500", "140415.057500", "140415.517500", "140415.977500", "140416.437500", "140416.897500", "140417.357500", "140417.817500", "140418.277500", "140418.737500", "140419.197500", "140419.657500", "140420.117500", "140420.577500", "140421.037500", "140421.497500", "140421.957500", "140422.417500", "140422.877500", "140423.337500", "140423.797500", "140424.257500", "140424.717500", "140425.177500", "140425.637500", "140426.097500", "140426.557500", "140427.017500", "140427.477500", "140427.937500", "140428.397500", "140428.857500", "140429.317500", "140429.777500", "140430.237500", "140430.697500", "140431.157500", "140431.617500", "140432.077500", "140432.537500", "140432.997500", "140433.457500", "140433.917500", "140434.377500", "140434.837500", "140435.297500", "140435.757500", "140436.217500", "140436.677500", "140437.137500", "140437.597500", "140438.057500", "140438.517500", "140438.977500", "140439.437500", "140439.897500", "140440.357500", "140440.817500", "140441.277500", "140441.737500", "140442.197500", "140442.657500", "140443.117500", "140443.577500", "140444.037500", "140444.497500", "140444.957500", "140445.417500", "140445.877500", "140446.337500", "140446.797500", "140447.257500", "140447.717500", "140448.177500", "140448.637500", "140449.097500", "140449.557500", "140450.017500", "140450.477500", "140450.937500", "140451.397500", "140451.857500", "140452.317500", "140452.777500", "140453.237500", "140453.697500", "140454.157500", "140454.617500", "140455.077500", "140455.537500", "140455.997500", "140456.457500", "140456.917500", "140457.377500", "140457.837500", "140458.297500", "140458.757500", "140459.217500", "140459.677500", "140500.137500", "140500.597500", "140501.057500", "140501.517500", "140501.977500", "140502.437500", "140502.897500", "140503.357500", "140503.817500", "140504.277500", "140504.737500", "140505.197500", "140505.657500", "140506.117500", "140506.577500", "140507.037500", "140507.497500", "140507.957500", "140508.417500", "140508.877500", "140509.337500", "140509.797500", "140510.257500", "140510.717500", "140511.177500", "140511.637500", "140512.097500", "140512.557500", "140513.017500", "140513.477500", "140513.937500", "140514.397500", "140514.857500", "140515.317500", "140515.777500", "140516.237500", "140516.697500", "140517.157500", "140517.617500", "140518.077500", "140518.537500", "140518.997500", "140519.457500", "140519.917500", "140520.377500", "140520.837500", "140521.297500", "140521.757500", "140522.217500", "140522.677500", "140523.137500", "140523.597500", "140524.057500", "140524.517500", "140524.977500", "140525.437500", "140525.897500", "140526.357500", "140526.817500", "140527.277500", "140527.737500", "140528.197500", "140528.657500", "140529.117500", "140529.577500", "140530.037500", "140530.497500", "140530.957500", "140531.417500", "140531.877500", "140532.337500", "140532.797500", "140533.257500", "140533.717500", "140534.177500", "140534.637500", "140535.097500", "140535.557500", "140536.017500", "140536.477500", "140536.937500", "140537.397500", "140537.857500", "140538.317500", "140538.777500", "140539.237500", "140539.697500", "140540.157500", "140540.617500", "140541.077500", "140541.537500", "140541.997500", "140542.457500", "140542.917500", "140543.377500", "140543.837500", "140544.297500", "140544.757500", "140545.217500", "140545.677500", "140546.137500", "140546.597500", "140547.057500", "140547.517500", "140547.977500", "140548.437500", "140548.897500", "140549.357500", "140549.817500", "140550.277500", "140550.737500", "140551.197500", "140551.657500", "140552.117500", "140552.577500", "140553.037500", "140553.497500", "140553.957500", "140554.417500", "140554.877500", "140555.337500", "140555.797500", "140556.257500", "140556.717500", "140557.177500", "140557.637500", "140558.097500", "140558.557500", "140559.017500", "140559.477500", "140559.937500", "140600.397500", "140600.857500", "140601.317500", "140601.777500", "140602.237500", "140602.697500", "140603.157500", "140603.617500", "140604.077500", "140604.537500", "140604.997500", "140605.457500", "140605.917500", "140606.377500", "140606.837500", "140607.297500", "140607.757500", "140608.217500", "140608.677500", "140609.137500", "140609.597500", "140610.057500", "140610.517500", "140610.977500", "140611.437500", "140611.897500", "140612.357500", "140612.817500", "140613.277500", "140613.737500", "140614.197500", "140614.657500", "140615.117500", "140615.577500", "140616.037500", "140616.497500", "140616.957500", "140617.417500", "140617.877500", "140618.337500", "140618.797500", "140619.257500", "140619.717500", "140620.177500", "140620.637500", "140621.097500", "140621.557500", "140622.017500", "140622.477500", "140622.937500", "140623.397500", "140623.857500", "140624.317500", "140624.777500", "140625.237500", "140625.697500", "140626.157500", "140626.617500", "140627.077500", "140627.537500", "140627.997500", "140628.457500", "140628.917500", "140629.377500", "140629.837500", "140630.297500", "140630.757500", "140631.217500", "140631.677500", "140632.137500", "140632.597500", "140633.057500", "140633.517500", "140633.977500", "140634.437500", "140634.897500", "140635.357500", "140635.817500", "140636.277500", "140636.737500", "140637.197500", "140637.657500", "140638.117500", "140638.577500", "140639.037500", "140639.497500", "140639.957500", "140640.417500", "140640.877500", "140641.337500", "140641.797500", "140642.257500", "140642.717500", "140643.177500", "140643.637500", "140644.097500", "140644.557500", "140645.017500", "140645.477500", "140645.937500", "140646.397500", "140646.857500", "140647.317500", "140647.777500", "140648.237500", "140648.697500", "140649.157500", "140649.617500", "140650.077500", "140650.537500", "140650.997500", "140651.457500", "140651.917500", "140652.377500", "140652.837500", "140653.297500", "140653.757500", "140654.217500", "140654.677500", "140655.137500", "140655.597500", "140656.057500", "140656.517500", "140656.977500", "140657.437500", "140657.897500", "140658.357500", "140658.817500", "140659.277500", "140659.737500", "140700.197500", "140700.657500", "140701.117500", "140701.577500", "140702.037500", "140702.497500", "140702.957500", "140703.417500", "140703.877500", "140704.337500", "140704.797500", "140705.257500", "140705.717500", "140706.177500", "140706.637500", "140707.097500", "140707.557500", "140708.017500", "140708.477500", "140708.937500", "140709.397500", "140709.857500", "140710.317500", "140710.777500", "140711.237500", "140711.697500", "140712.157500", "140712.617500", "140713.077500", "140713.537500", "140713.997500", "140714.457500", "140714.917500", "140715.377500", "140715.837500", "140716.297500", "140716.757500", "140717.217500", "140717.677500", "140718.137500", "140718.597500", "140719.057500", "140719.517500", "140719.977500", "140720.437500", "140720.897500", "140721.357500", "140721.817500", "140722.277500", "140722.737500", "140723.197500", "140723.657500", "140724.117500", "140724.577500", "140725.037500", "140725.497500", "140725.957500", "140726.417500", "140726.877500", "140727.337500", "140727.797500", "140728.257500", "140728.717500", "140729.177500", "140729.637500", "140730.097500", "140730.557500", "140731.017500", "140731.477500", "140731.937500", "140732.397500", "140732.857500", "140733.317500", "140733.777500", "140734.237500", "140734.697500", "140735.157500", "140735.617500", "140736.077500", "140736.537500", "140736.997500", "140737.457500", "140737.917500", "140738.377500", "140738.837500", "140739.297500", "140739.757500", "140740.217500", "140740.677500", "140741.137500", "140741.597500", "140742.057500", "140742.517500", "140742.977500", "140743.437500", "140743.897500", "140744.357500", "140744.817500", "140745.277500", "140745.737500", "140746.197500", "140746.657500", "140747.117500", "140747.577500", "140748.037500", "140748.497500", "140748.957500", "140749.417500", "140749.877500", "140750.337500", "140750.797500", "140751.257500", "140751.717500", "140752.177500", "140752.637500", "140753.097500", "140753.557500", "140754.017500", "140754.477500", "140754.937500", "140755.397500", "140755.857500", "140756.317500", "140756.777500", "140757.237500", "140757.697500", "140758.157500", "140758.617500", "140759.077500", "140759.537500", "140759.997500", "140800.457500", "140800.917500", "140801.377500", "140801.837500", "140802.297500", "140802.757500", "140803.217500", "140803.677500", "140804.137500", "140804.597500", "140805.057500", "140805.517500", "140805.977500", "140806.437500", "140806.897500", "140807.357500", "140807.817500", "140808.277500", "140808.737500", "140809.197500", "140809.657500", "140810.117500", "140810.577500", "140811.037500", "140811.497500", "140811.957500", "140812.417500", "140812.877500", "140813.337500", "140813.797500", "140814.257500", "140814.717500", "140815.177500", "140815.637500", "140816.097500", "140816.557500", "140817.017500", "140817.477500", "140817.937500", "140818.397500", "140818.857500", "140819.317500", "140819.777500", "140820.237500", "140820.697500", "140821.157500", "140821.617500", "140822.077500", "140822.537500", "140822.997500", "140823.457500", "140823.917500", "140824.377500", "140824.837500", "140825.297500", "140825.757500", "140826.217500", "140826.677500", "140827.137500", "140827.597500", "140828.057500", "140828.517500", "140828.977500", "140829.437500", "140829.897500", "140830.357500", "140830.817500", "140831.277500", "140831.737500", "140832.197500", "140832.657500", "140833.117500", "140833.577500", "140834.037500", "140834.497500", "140834.957500", "140835.417500", "140835.877500", "140836.337500", "140836.797500", "140837.257500", "140837.717500", "140838.177500", "140838.637500", "140839.097500", "140839.557500", "140840.017500", "140840.477500", "140840.937500", "140841.397500", "140841.857500", "140842.317500", "140842.777500", "140843.237500", "140843.697500", "140844.157500", "140844.617500", "140845.077500", "140845.537500", "140845.997500", "140846.457500", "140846.917500", "140847.377500", "140847.837500", "140848.297500", "140848.757500", "140849.217500", "140849.677500", "140850.137500", "140850.597500", "140851.057500", "140851.517500", "140851.977500", "140852.437500", "140852.897500", "140853.357500", "140853.817500", "140854.277500", "140854.737500", "140855.197500", "140855.657500", "140856.117500", "140856.577500", "140857.037500", "140857.497500", "140857.957500", "140858.417500", "140858.877500", "140859.337500", "140859.797500", "140900.257500", "140900.717500", "140901.177500", "140901.637500", "140902.097500", "140902.557500", "140903.017500", "140903.477500", "140903.937500", "140904.397500", "140904.857500", "140905.317500", "140905.777500", "140906.237500", "140906.697500", "140907.157500", "140907.617500", "140908.077500", "140908.537500", "140908.997500", "140909.457500", "140909.917500", "140910.377500", "140910.837500", "140911.297500", "140911.757500", "140912.217500", "140912.677500", "140913.137500", "140913.597500", "140914.057500", "140914.517500", "140914.977500", "140915.437500", "140915.897500", "140916.357500", "140916.817500", "140917.277500", "140917.737500", "140918.197500", "140918.657500", "140919.117500", "140919.577500", "140920.037500", "140920.497500", "140920.957500", "140921.417500", "140921.877500", "140922.337500", "140922.797500", "140923.257500", "140923.717500", "140924.177500", "140924.637500", "140925.097500", "140925.557500", "140926.017500", "140926.477500", "140926.937500", "140927.397500", "140927.857500", "140928.317500", "140928.777500", "140929.237500", "140929.697500", "140930.157500", "140930.617500", "140931.077500", "140931.537500", "140931.997500", "140932.457500", "140932.917500", "140933.377500", "140933.837500", "140934.297500", "140934.757500", "140935.217500", "140935.677500", "140936.137500", "140936.597500", "140937.057500", "140937.517500", "140937.977500", "140938.437500", "140938.897500", "140939.357500", "140939.817500", "140940.277500", "140940.737500", "140941.197500", "140941.657500", "140942.117500", "140942.577500", "140943.037500", "140943.497500", "140943.957500", "140944.417500", "140944.877500", "140945.337500", "140945.797500", "140946.257500", "140946.717500", "140947.177500", "140947.637500", "140948.097500", "140948.557500", "140949.017500", "140949.477500", "140949.937500", "140950.397500", "140950.857500", "140951.317500", "140951.777500"],
