{
  "AcquisitionMatrixPE": 82,
  "AcquisitionNumber": 1,
  "AcquisitionTime": "11:48:59.360000",
  "BandwidthPerPixelPhaseEncode": 24.888,
  "BaseResolution": 82,
  "BodyPartExamined": "BRAIN",
  "ConsistencyInfo": "N4_VE11C_LATEST_20160120",
  "ConversionSoftware": "dcm2niix",
  "ConversionSoftwareVersion": "v1.0.20201102",
  "DerivedVendorReportedEchoSpacing": 0.00049,
  "DeviceSerialNumber": "66112",
  "DwellTime": 2e-06,
  "EchoTime": 0.0272,
  "EchoTrainLength": 82,
  "EffectiveEchoSpacing": 0.00049,
  "FlipAngle": 44,
  "ImageComments": "Unaliased MB8/PE3",
  "ImageOrientationPatientDICOM": [0.994524, -0.0805585, 0.0665739, 0.0772229, 0.995696, 0.0512475],
  "ImageType": [
    "ORIGINAL",
    "PRIMARY",
    "M",
    "MB",
    "ND",
    "NORM",
    "MOSAIC"
],
  "ImagingFrequency": 123.252,
  "InPlanePhaseEncodingDirectionDICOM": "COL",
  "InstitutionAddress": "Maynard 3,Hanover,NH,US,03755",
  "InstitutionName": "Dartmouth College - PBS",
  "InstitutionalDepartmentName": "Department",
  "MRAcquisitionType": "2D",
  "MagneticFieldStrength": 3,
  "Manufacturer": "Siemens",
  "ManufacturersModelName": "Prisma",
  "Modality": "MR",
  "MultibandAccelerationFactor": 8,
  "PartialFourier": 1,
  "PatientPosition": "HFS",
  "PercentPhaseFOV": 100,
  "PercentSampling": 100,
  "PhaseEncodingDirection": "j-",
  "PhaseEncodingSteps": 82,
  "PhaseResolution": 1,
  "PixelBandwidth": 3050,
  "ProcedureStepDescription": "Wager_Wager^1076_spacetop",
  "ProtocolName": "func_run-04_task-social_acq-ap-mb8",
  "PulseSequenceDetails": "%CustomerSeq%\\cmrr_mbep2d_bold",
  "ReceiveCoilActiveElements": "HEA;HEP",
  "ReceiveCoilName": "Head_32",
  "ReconMatrixPE": 82,
  "RepetitionTime": 0.46,
  "SAR": 0.0993137,
  "ScanOptions": "FS",
  "ScanningSequence": "EP",
  "SequenceName": "epfid2d1_82",
  "SequenceVariant": "SK\\SS",
  "SeriesDescription": "func_run-04_task-social_acq-ap-mb8",
  "SeriesNumber": 14,
  "ShimSetting": [4146, -7760, -7304, 621, -32, -238, -44, 65],
  "SliceThickness": 2.7,
  "SliceTiming": [0, 0.2525, 0.0625, 0.315, 0.125, 0.3775, 0.1875, 0, 0.2525, 0.0625, 0.315, 0.125, 0.3775, 0.1875, 0, 0.2525, 0.0625, 0.315, 0.125, 0.3775, 0.1875, 0, 0.2525, 0.0625, 0.315, 0.125, 0.3775, 0.1875, 0, 0.2525, 0.0625, 0.315, 0.125, 0.3775, 0.1875, 0, 0.2525, 0.0625, 0.315, 0.125, 0.3775, 0.1875, 0, 0.2525, 0.0625, 0.315, 0.125, 0.3775, 0.1875, 0, 0.2525, 0.0625, 0.315, 0.125, 0.3775, 0.1875],
  "SoftwareVersions": "syngo MR E11",
  "SpacingBetweenSlices": 2.7,
  "StationName": "AWP66112",
  "TaskName": "social",
  "TotalReadoutTime": 0.03969,
  "TxRefAmp": 243.614,
  "WipMemBlock": "aecce03f-3f02-4e6c-a9ba-b753e560b112||Sequence: R016 ve11c/master r/e634e98; Dec 19 2017 11:00:25 by eja",
  "dcmmeta_affine": [
    [-2.6682355403900146, 0.20718330144882202, 0.19012270867824554, 101.27615356445312],
    [0.2161325067281723, 2.671379327774048, 0.1237296611070633, -93.88292694091797],
    [0.17861302196979523, -0.13749317824840546, 2.6904544830322266, -82.82622528076172],
    [0.0, 0.0, 0.0, 1.0]
],
  "dcmmeta_reorient_transform": [
    [0.0, -1.0, 0.0, 81.0],
    [1.0, 0.0, 0.0, 0.0],
    [0.0, 0.0, 1.0, 0.0],
    [0.0, 0.0, 0.0, 1.0]
],
  "dcmmeta_shape": [82, 82, 56, 872],
  "dcmmeta_slice_dim": 2,
  "dcmmeta_version": 0.6,
  "global": {
    "const": {
      "AccessionNumber": "A003768",
      "AcquisitionMatrix": [82, 0, 0, 82],
      "AngioFlag": "N",
      "BitsAllocated": 16,
      "BitsStored": 16,
      "BodyPartExamined": "BRAIN",
      "Columns": 656,
      "EchoNumbers": 1,
      "EchoTime": 27.2,
      "EchoTrainLength": 82,
      "FlipAngle": 44.0,
      "HighBit": 15,
      "ImageOrientationPatient": [0.9945241284525, -0.0805584780917, 0.06657394034725, 0.07722286401649, 0.99569590125653, 0.05124745353706],
      "ImagePositionPatient": [-943.30320407195, -827.1546288773, -184.68564433677],
      "ImageType": [
        "ORIGINAL",
        "PRIMARY",
        "M",
        "MB",
        "ND",
        "NORM",
        "MOSAIC"
],
      "ImagedNucleus": "1H",
      "ImagingFrequency": 123.252217,
      "InPlanePhaseEncodingDirection": "COL",
      "MRAcquisitionType": "2D",
      "MagneticFieldStrength": 3.0,
      "Manufacturer": "SIEMENS",
      "ManufacturerModelName": "Prisma",
      "Modality": "MR",
      "NumberOfAverages": 1.0,
      "NumberOfPhaseEncodingSteps": 82,
      "PercentPhaseFieldOfView": 100.0,
      "PercentSampling": 100.0,
      "PerformedProcedureStepStartTime": "111053.447000",
      "PhotometricInterpretation": "MONOCHROME2",
      "PixelBandwidth": 3050.0,
      "PixelRepresentation": 0,
      "PixelSpacing": [2.6829268932343, 2.6829268932343],
      "ProtocolName": "func_run-04_task-social_acq-ap-mb8",
      "RepetitionTime": 460.0,
      "Rows": 656,
      "SAR": 0.09931369636723,
      "SamplesPerPixel": 1,
      "ScanOptions": "FS",
      "ScanningSequence": "EP",
      "SequenceName": "epfid2d1_82",
      "SequenceVariant": [
        "SK",
        "SS"
],
      "SeriesDescription": "func_run-04_task-social_acq-ap-mb8",
      "SeriesNumber": 14,
      "SeriesTime": "114925.186000",
      "SliceLocation": -79.704211602283,
      "SliceThickness": 2.7000000476837,
      "SmallestImagePixelValue": 0,
      "SoftwareVersions": "syngo MR E11",
      "SpacingBetweenSlices": 2.7000000795275,
      "SpecificCharacterSet": "ISO_IR 100",
      "StudyID": "5",
      "StudyTime": "111053.397000",
      "TransmitCoilName": "Body",
      "VariableFlipAngleFlag": "N",
      "WindowCenterWidthExplanation": "Algo1",
      "dBdt": 0.0},
    "slices": {}
  },
  "time": {
    "samples": {
      "AcquisitionNumber": [1, 2, 3, 4, 5, 6, 7, 8, 9, 10, 11, 12, 13, 14, 15, 16, 17, 18, 19, 20, 21, 22, 23, 24, 25, 26, 27, 28, 29, 30, 31, 32, 33, 34, 35, 36, 37, 38, 39, 40, 41, 42, 43, 44, 45, 46, 47, 48, 49, 50, 51, 52, 53, 54, 55, 56, 57, 58, 59, 60, 61, 62, 63, 64, 65, 66, 67, 68, 69, 70, 71, 72, 73, 74, 75, 76, 77, 78, 79, 80, 81, 82, 83, 84, 85, 86, 87, 88, 89, 90, 91, 92, 93, 94, 95, 96, 97, 98, 99, 100, 101, 102, 103, 104, 105, 106, 107, 108, 109, 110, 111, 112, 113, 114, 115, 116, 117, 118, 119, 120, 121, 122, 123, 124, 125, 126, 127, 128, 129, 130, 131, 132, 133, 134, 135, 136, 137, 138, 139, 140, 141, 142, 143, 144, 145, 146, 147, 148, 149, 150, 151, 152, 153, 154, 155, 156, 157, 158, 159, 160, 161, 162, 163, 164, 165, 166, 167, 168, 169, 170, 171, 172, 173, 174, 175, 176, 177, 178, 179, 180, 181, 182, 183, 184, 185, 186, 187, 188, 189, 190, 191, 192, 193, 194, 195, 196, 197, 198, 199, 200, 201, 202, 203, 204, 205, 206, 207, 208, 209, 210, 211, 212, 213, 214, 215, 216, 217, 218, 219, 220, 221, 222, 223, 224, 225, 226, 227, 228, 229, 230, 231, 232, 233, 234, 235, 236, 237, 238, 239, 240, 241, 242, 243, 244, 245, 246, 247, 248, 249, 250, 251, 252, 253, 254, 255, 256, 257, 258, 259, 260, 261, 262, 263, 264, 265, 266, 267, 268, 269, 270, 271, 272, 273, 274, 275, 276, 277, 278, 279, 280, 281, 282, 283, 284, 285, 286, 287, 288, 289, 290, 291, 292, 293, 294, 295, 296, 297, 298, 299, 300, 301, 302, 303, 304, 305, 306, 307, 308, 309, 310, 311, 312, 313, 314, 315, 316, 317, 318, 319, 320, 321, 322, 323, 324, 325, 326, 327, 328, 329, 330, 331, 332, 333, 334, 335, 336, 337, 338, 339, 340, 341, 342, 343, 344, 345, 346, 347, 348, 349, 350, 351, 352, 353, 354, 355, 356, 357, 358, 359, 360, 361, 362, 363, 364, 365, 366, 367, 368, 369, 370, 371, 372, 373, 374, 375, 376, 377, 378, 379, 380, 381, 382, 383, 384, 385, 386, 387, 388, 389, 390, 391, 392, 393, 394, 395, 396, 397, 398, 399, 400, 401, 402, 403, 404, 405, 406, 407, 408, 409, 410, 411, 412, 413, 414, 415, 416, 417, 418, 419, 420, 421, 422, 423, 424, 425, 426, 427, 428, 429, 430, 431, 432, 433, 434, 435, 436, 437, 438, 439, 440, 441, 442, 443, 444, 445, 446, 447, 448, 449, 450, 451, 452, 453, 454, 455, 456, 457, 458, 459, 460, 461, 462, 463, 464, 465, 466, 467, 468, 469, 470, 471, 472, 473, 474, 475, 476, 477, 478, 479, 480, 481, 482, 483, 484, 485, 486, 487, 488, 489, 490, 491, 492, 493, 494, 495, 496, 497, 498, 499, 500, 501, 502, 503, 504, 505, 506, 507, 508, 509, 510, 511, 512, 513, 514, 515, 516, 517, 518, 519, 520, 521, 522, 523, 524, 525, 526, 527, 528, 529, 530, 531, 532, 533, 534, 535, 536, 537, 538, 539, 540, 541, 542, 543, 544, 545, 546, 547, 548, 549, 550, 551, 552, 553, 554, 555, 556, 557, 558, 559, 560, 561, 562, 563, 564, 565, 566, 567, 568, 569, 570, 571, 572, 573, 574, 575, 576, 577, 578, 579, 580, 581, 582, 583, 584, 585, 586, 587, 588, 589, 590, 591, 592, 593, 594, 595, 596, 597, 598, 599, 600, 601, 602, 603, 604, 605, 606, 607, 608, 609, 610, 611, 612, 613, 614, 615, 616, 617, 618, 619, 620, 621, 622, 623, 624, 625, 626, 627, 628, 629, 630, 631, 632, 633, 634, 635, 636, 637, 638, 639, 640, 641, 642, 643, 644, 645, 646, 647, 648, 649, 650, 651, 652, 653, 654, 655, 656, 657, 658, 659, 660, 661, 662, 663, 664, 665, 666, 667, 668, 669, 670, 671, 672, 673, 674, 675, 676, 677, 678, 679, 680, 681, 682, 683, 684, 685, 686, 687, 688, 689, 690, 691, 692, 693, 694, 695, 696, 697, 698, 699, 700, 701, 702, 703, 704, 705, 706, 707, 708, 709, 710, 711, 712, 713, 714, 715, 716, 717, 718, 719, 720, 721, 722, 723, 724, 725, 726, 727, 728, 729, 730, 731, 732, 733, 734, 735, 736, 737, 738, 739, 740, 741, 742, 743, 744, 745, 746, 747, 748, 749, 750, 751, 752, 753, 754, 755, 756, 757, 758, 759, 760, 761, 762, 763, 764, 765, 766, 767, 768, 769, 770, 771, 772, 773, 774, 775, 776, 777, 778, 779, 780, 781, 782, 783, 784, 785, 786, 787, 788, 789, 790, 791, 792, 793, 794, 795, 796, 797, 798, 799, 800, 801, 802, 803, 804, 805, 806, 807, 808, 809, 810, 811, 812, 813, 814, 815, 816, 817, 818, 819, 820, 821, 822, 823, 824, 825, 826, 827, 828, 829, 830, 831, 832, 833, 834, 835, 836, 837, 838, 839, 840, 841, 842, 843, 844, 845, 846, 847, 848, 849, 850, 851, 852, 853, 854, 855, 856, 857, 858, 859, 860, 861, 862, 863, 864, 865, 866, 867, 868, 869, 870, 871, 872],
      "AcquisitionTime": ["114859.360000", "114859.820000", "114900.280000", "114900.740000", "114901.200000", "114901.660000", "114902.120000", "114902.580000", "114903.040000", "114903.500000", "114903.960000", "114904.420000", "114904.880000", "114905.340000", "114905.800000", "114906.260000", "114906.720000", "114907.180000", "114907.640000", "114908.100000", "114908.560000", "114909.020000", "114909.480000", "114909.940000", "114910.400000", "114910.860000", "114911.320000", "114911.780000", "114912.240000", "114912.700000", "114913.160000", "114913.620000", "114914.080000", "114914.540000", "114915.000000", "114915.460000", "114915.920000", "114916.380000", "114916.840000", "114917.300000", "114917.760000", "114918.220000", "114918.680000", "114919.140000", "114919.600000", "114920.060000", "114920.520000", "114920.980000", "114921.440000", "114921.900000", "114922.360000", "114922.820000", "114923.280000", "114923.740000", "114924.200000", "114924.660000", "114925.120000", "114925.580000", "114926.040000", "114926.500000", "114926.960000", "114927.420000", "114927.880000", "114928.340000", "114928.800000", "114929.260000", "114929.720000", "114930.180000", "114930.640000", "114931.100000", "114931.560000", "114932.020000", "114932.480000", "114932.940000", "114933.400000", "114933.860000", "114934.320000", "114934.780000", "114935.240000", "114935.700000", "114936.160000", "114936.620000", "114937.080000", "114937.540000", "114938.000000", "114938.460000", "114938.920000", "114939.380000", "114939.840000", "114940.300000", "114940.760000", "114941.220000", "114941.680000", "114942.140000", "114942.600000", "114943.060000", "114943.520000", "114943.980000", "114944.440000", "114944.900000", "114945.360000", "114945.820000", "114946.280000", "114946.740000", "114947.200000", "114947.660000", "114948.120000", "114948.580000", "114949.040000", "114949.500000", "114949.960000", "114950.420000", "114950.880000", "114951.340000", "114951.800000", "114952.260000", "114952.720000", "114953.180000", "114953.640000", "114954.100000", "114954.560000", "114955.020000", "114955.480000", "114955.940000", "114956.400000", "114956.860000", "114957.320000", "114957.780000", "114958.240000", "114958.700000", "114959.160000", "114959.620000", "115000.080000", "115000.540000", "115001.000000", "115001.460000", "115001.920000", "115002.380000", "115002.840000", "115003.300000", "115003.760000", "115004.220000", "115004.680000", "115005.140000", "115005.600000", "115006.060000", "115006.520000", "115006.980000", "115007.440000", "115007.900000", "115008.360000", "115008.820000", "115009.280000", "115009.740000", "115010.200000", "115010.660000", "115011.120000", "115011.580000", "115012.040000", "115012.500000", "115012.960000", "115013.420000", "115013.880000", "115014.340000", "115014.800000", "115015.260000", "115015.720000", "115016.180000", "115016.640000", "115017.100000", "115017.560000", "115018.020000", "115018.480000", "115018.940000", "115019.400000", "115019.860000", "115020.320000", "115020.780000", "115021.240000", "115021.700000", "115022.160000", "115022.620000", "115023.080000", "115023.540000", "115024.000000", "115024.460000", "115024.920000", "115025.380000", "115025.840000", "115026.300000", "115026.760000", "115027.220000", "115027.680000", "115028.140000", "115028.600000", "115029.060000", "115029.520000", "115029.980000", "115030.440000", "115030.900000", "115031.360000", "115031.820000", "115032.280000", "115032.740000", "115033.200000", "115033.660000", "115034.120000", "115034.580000", "115035.040000", "115035.500000", "115035.960000", "115036.420000", "115036.880000", "115037.340000", "115037.800000", "115038.260000", "115038.720000", "115039.180000", "115039.640000", "115040.100000", "115040.560000", "115041.020000", "115041.480000", "115041.940000", "115042.400000", "115042.860000", "115043.320000", "115043.780000", "115044.240000", "115044.700000", "115045.160000", "115045.620000", "115046.080000", "115046.540000", "115047.000000", "115047.460000", "115047.920000", "115048.380000", "115048.840000", "115049.300000", "115049.760000", "115050.220000", "115050.680000", "115051.140000", "115051.600000", "115052.060000", "115052.520000", "115052.980000", "115053.440000", "115053.900000", "115054.360000", "115054.820000", "115055.280000", "115055.740000", "115056.200000", "115056.660000", "115057.120000", "115057.580000", "115058.040000", "115058.500000", "115058.960000", "115059.420000", "115059.880000", "115100.340000", "115100.800000", "115101.260000", "115101.720000", "115102.180000", "115102.640000", "115103.100000", "115103.560000", "115104.020000", "115104.480000", "115104.940000", "115105.400000", "115105.860000", "115106.320000", "115106.780000", "115107.240000", "115107.700000", "115108.160000", "115108.620000", "115109.080000", "115109.540000", "115110.000000", "115110.460000", "115110.920000", "115111.380000", "115111.840000", "115112.300000", "115112.760000", "115113.220000", "115113.680000", "115114.140000", "115114.600000", "115115.060000", "115115.520000", "115115.980000", "115116.440000", "115116.900000", "115117.360000", "115117.820000", "115118.280000", "115118.740000", "115119.200000", "115119.660000", "115120.120000", "115120.580000", "115121.040000", "115121.500000", "115121.960000", "115122.420000", "115122.880000", "115123.340000", "115123.800000", "115124.260000", "115124.720000", "115125.180000", "115125.640000", "115126.100000", "115126.560000", "115127.020000", "115127.480000", "115127.940000", "115128.400000", "115128.860000", "115129.320000", "115129.780000", "115130.240000", "115130.700000", "115131.160000", "115131.620000", "115132.080000", "115132.540000", "115133.000000", "115133.460000", "115133.920000", "115134.380000", "115134.840000", "115135.300000", "115135.760000", "115136.220000", "115136.680000", "115137.140000", "115137.600000", "115138.060000", "115138.520000", "115138.980000", "115139.440000", "115139.900000", "115140.360000", "115140.820000", "115141.280000", "115141.740000", "115142.200000", "115142.660000", "115143.120000", "115143.580000", "115144.040000", "115144.500000", "115144.960000", "115145.420000", "115145.880000", "115146.340000", "115146.800000", "115147.260000", "115147.720000", "115148.180000", "115148.640000", "115149.100000", "115149.560000", "115150.020000", "115150.480000", "115150.940000", "115151.400000", "115151.860000", "115152.320000", "115152.780000", "115153.240000", "115153.700000", "115154.160000", "115154.620000", "115155.080000", "115155.540000", "115156.000000", "115156.460000", "115156.920000", "115157.380000", "115157.840000", "115158.300000", "115158.760000", "115159.220000", "115159.680000", "115200.140000", "115200.600000", "115201.060000", "115201.520000", "115201.980000", "115202.440000", "115202.900000", "115203.360000", "115203.820000", "115204.280000", "115204.740000", "115205.200000", "115205.660000", "115206.120000", "115206.580000", "115207.040000", "115207.500000", "115207.960000", "115208.420000", "115208.880000", "115209.340000", "115209.800000", "115210.260000", "115210.720000", "115211.180000", "115211.640000", "115212.100000", "115212.560000", "115213.020000", "115213.480000", "115213.940000", "115214.400000", "115214.860000", "115215.320000", "115215.780000", "115216.240000", "115216.700000", "115217.160000", "115217.620000", "115218.080000", "115218.540000", "115219.000000", "115219.460000", "115219.920000", "115220.380000", "115220.840000", "115221.300000", "115221.760000", "115222.220000", "115222.680000", "115223.140000", "115223.600000", "115224.060000", "115224.520000", "115224.980000", "115225.440000", "115225.900000", "115226.360000", "115226.820000", "115227.280000", "115227.740000", "115228.200000", "115228.660000", "115229.120000", "115229.580000", "115230.040000", "115230.500000", "115230.960000", "115231.420000", "115231.880000", "115232.340000", "115232.800000", "115233.260000", "115233.720000", "115234.180000", "115234.640000", "115235.100000", "115235.560000", "115236.020000", "115236.480000", "115236.940000", "115237.400000", "115237.860000", "115238.320000", "115238.780000", "115239.240000", "115239.700000", "115240.160000", "115240.620000", "115241.080000", "115241.540000", "115242.000000", "115242.460000", "115242.920000", "115243.380000", "115243.840000", "115244.300000", "115244.760000", "115245.220000", "115245.680000", "115246.140000", "115246.600000", "115247.060000", "115247.520000", "115247.980000", "115248.440000", "115248.900000", "115249.360000", "115249.820000", "115250.280000", "115250.740000", "115251.200000", "115251.660000", "115252.120000", "115252.580000", "115253.040000", "115253.500000", "115253.960000", "115254.420000", "115254.880000", "115255.340000", "115255.800000", "115256.260000", "115256.720000", "115257.180000", "115257.640000", "115258.100000", "115258.560000", "115259.020000", "115259.480000", "115259.940000", "115300.400000", "115300.860000", "115301.320000", "115301.780000", "115302.240000", "115302.700000", "115303.160000", "115303.620000", "115304.080000", "115304.540000", "115305.000000", "115305.460000", "115305.920000", "115306.380000", "115306.840000", "115307.300000", "115307.760000", "115308.220000", "115308.680000", "115309.140000", "115309.600000", "115310.060000", "115310.520000", "115310.980000", "115311.440000", "115311.900000", "115312.360000", "115312.820000", "115313.280000", "115313.740000", "115314.200000", "115314.660000", "115315.120000", "115315.580000", "115316.040000", "115316.500000", "115316.960000", "115317.420000", "115317.880000", "115318.340000", "115318.800000", "115319.260000", "115319.720000", "115320.180000", "115320.640000", "115321.100000", "115321.560000", "115322.020000", "115322.480000", "115322.940000", "115323.400000", "115323.860000", "115324.320000", "115324.780000", "115325.240000", "115325.700000", "115326.160000", "115326.620000", "115327.080000", "115327.540000", "115328.000000", "115328.460000", "115328.920000", "115329.380000", "115329.840000", "115330.300000", "115330.760000", "115331.220000", "115331.680000", "115332.140000", "115332.600000", "115333.060000", "115333.520000", "115333.980000", "115334.440000", "115334.900000", "115335.360000", "115335.820000", "115336.280000", "115336.740000", "115337.200000", "115337.660000", "115338.120000", "115338.580000", "115339.040000", "115339.500000", "115339.960000", "115340.420000", "115340.880000", "115341.340000", "115341.800000", "115342.260000", "115342.720000", "115343.180000", "115343.640000", "115344.100000", "115344.560000", "115345.020000", "115345.480000", "115345.940000", "115346.400000", "115346.860000", "115347.320000", "115347.780000", "115348.240000", "115348.700000", "115349.160000", "115349.620000", "115350.080000", "115350.540000", "115351.000000", "115351.460000", "115351.920000", "115352.380000", "115352.840000", "115353.300000", "115353.760000", "115354.220000", "115354.680000", "115355.140000", "115355.600000", "115356.060000", "115356.520000", "115356.980000", "115357.440000", "115357.900000", "115358.360000", "115358.820000", "115359.280000", "115359.740000", "115400.200000", "115400.660000", "115401.120000", "115401.580000", "115402.040000", "115402.500000", "115402.960000", "115403.420000", "115403.880000", "115404.340000", "115404.800000", "115405.260000", "115405.720000", "115406.180000", "115406.640000", "115407.100000", "115407.560000", "115408.020000", "115408.480000", "115408.940000", "115409.400000", "115409.860000", "115410.320000", "115410.780000", "115411.240000", "115411.700000", "115412.160000", "115412.620000", "115413.080000", "115413.540000", "115414.000000", "115414.460000", "115414.920000", "115415.380000", "115415.840000", "115416.300000", "115416.760000", "115417.220000", "115417.680000", "115418.140000", "115418.600000", "115419.060000", "115419.520000", "115419.980000", "115420.440000", "115420.900000", "115421.360000", "115421.820000", "115422.280000", "115422.740000", "115423.200000", "115423.660000", "115424.120000", "115424.580000", "115425.040000", "115425.500000", "115425.960000", "115426.420000", "115426.880000", "115427.340000", "115427.800000", "115428.260000", "115428.720000", "115429.180000", "115429.640000", "115430.100000", "115430.560000", "115431.020000", "115431.480000", "115431.940000", "115432.400000", "115432.860000", "115433.320000", "115433.780000", "115434.240000", "115434.700000", "115435.160000", "115435.620000", "115436.080000", "115436.540000", "115437.000000", "115437.460000", "115437.920000", "115438.380000", "115438.840000", "115439.300000", "115439.760000", "115440.220000", "115440.680000", "115441.140000", "115441.600000", "115442.060000", "115442.520000", "115442.980000", "115443.440000", "115443.900000", "115444.360000", "115444.820000", "115445.280000", "115445.740000", "115446.200000", "115446.660000", "115447.120000", "115447.580000", "115448.040000", "115448.500000", "115448.960000", "115449.420000", "115449.880000", "115450.340000", "115450.800000", "115451.260000", "115451.720000", "115452.180000", "115452.640000", "115453.100000", "115453.560000", "115454.020000", "115454.480000", "115454.940000", "115455.400000", "115455.860000", "115456.320000", "115456.780000", "115457.240000", "115457.700000", "115458.160000", "115458.620000", "115459.080000", "115459.540000", "115500.000000", "115500.460000", "115500.920000", "115501.380000", "115501.840000", "115502.300000", "115502.760000", "115503.220000", "115503.680000", "115504.140000", "115504.600000", "115505.060000", "115505.520000", "115505.980000", "115506.440000", "115506.900000", "115507.360000", "115507.820000", "115508.280000", "115508.740000", "115509.200000", "115509.660000", "115510.120000", "115510.580000", "115511.040000", "115511.500000", "115511.960000", "115512.420000", "115512.880000", "115513.340000", "115513.800000", "115514.260000", "115514.720000", "115515.180000", "115515.640000", "115516.100000", "115516.560000", "115517.020000", "115517.480000", "115517.940000", "115518.400000", "115518.860000", "115519.320000", "115519.780000", "115520.240000", "115520.700000", "115521.160000", "115521.620000", "115522.080000", "115522.540000", "115523.000000", "115523.460000", "115523.920000", "115524.380000", "115524.840000", "115525.300000", "115525.760000", "115526.220000", "115526.680000", "115527.140000", "115527.600000", "115528.060000", "115528.520000", "115528.980000", "115529.440000", "115529.900000", "115530.360000", "115530.820000", "115531.280000", "115531.740000", "115532.200000", "115532.660000", "115533.120000", "115533.580000", "115534.040000", "115534.500000", "115534.960000", "115535.420000", "115535.880000", "115536.340000", "115536.800000", "115537.260000", "115537.720000", "115538.180000", "115538.640000", "115539.100000", "115539.560000", "115540.020000"],
