{
  "AcquisitionMatrixPE": 82,
  "AcquisitionNumber": 1,
  "AcquisitionTime": "11:27:7.520000",
  "BandwidthPerPixelPhaseEncode": 24.888,
  "BaseResolution": 82,
  "BodyPartExamined": "BRAIN",
  "ConsistencyInfo": "N4_VE11C_LATEST_20160120",
  "ConversionSoftware": "dcm2niix",
  "ConversionSoftwareVersion": "v1.0.20201102",
  "DerivedVendorReportedEchoSpacing": 0.00049,
  "DeviceSerialNumber": "66112",
  "DwellTime": 2e-06,
  "EchoTime": 0.0272,
  "EchoTrainLength": 82,
  "EffectiveEchoSpacing": 0.00049,
  "FlipAngle": 44,
  "ImageComments": "Unaliased MB8/PE3",
  "ImageOrientationPatientDICOM": [0.994524, -0.0805585, 0.0665739, 0.0772229, 0.995696, 0.0512475],
  "ImageType": [
    "ORIGINAL",
    "PRIMARY",
    "M",
    "MB",
    "ND",
    "NORM",
    "MOSAIC"
],
  "ImagingFrequency": 123.252,
  "InPlanePhaseEncodingDirectionDICOM": "COL",
  "InstitutionAddress": "Maynard 3,Hanover,NH,US,03755",
  "InstitutionName": "Dartmouth College - PBS",
  "InstitutionalDepartmentName": "Department",
  "MRAcquisitionType": "2D",
  "MagneticFieldStrength": 3,
  "Manufacturer": "Siemens",
  "ManufacturersModelName": "Prisma",
  "Modality": "MR",
  "MultibandAccelerationFactor": 8,
  "PartialFourier": 1,
  "PatientPosition": "HFS",
  "PercentPhaseFOV": 100,
  "PercentSampling": 100,
  "PhaseEncodingDirection": "j-",
  "PhaseEncodingSteps": 82,
  "PhaseResolution": 1,
  "PixelBandwidth": 3050,
  "ProcedureStepDescription": "Wager_Wager^1076_spacetop",
  "ProtocolName": "func_run-01_task-social_acq-ap-mb8",
  "PulseSequenceDetails": "%CustomerSeq%\\cmrr_mbep2d_bold",
  "ReceiveCoilActiveElements": "HEA;HEP",
  "ReceiveCoilName": "Head_32",
  "ReconMatrixPE": 82,
  "RepetitionTime": 0.46,
  "SAR": 0.0993137,
  "ScanOptions": "FS",
  "ScanningSequence": "EP",
  "SequenceName": "epfid2d1_82",
  "SequenceVariant": "SK\\SS",
  "SeriesDescription": "func_run-01_task-social_acq-ap-mb8",
  "SeriesNumber": 8,
  "ShimSetting": [4146, -7760, -7304, 621, -32, -238, -44, 65],
  "SliceThickness": 2.7,
  "SliceTiming": [0, 0.2525, 0.0625, 0.315, 0.1275, 0.3775, 0.19, 0, 0.2525, 0.0625, 0.315, 0.1275, 0.3775, 0.19, 0, 0.2525, 0.0625, 0.315, 0.1275, 0.3775, 0.19, 0, 0.2525, 0.0625, 0.315, 0.1275, 0.3775, 0.19, 0, 0.2525, 0.0625, 0.315, 0.1275, 0.3775, 0.19, 0, 0.2525, 0.0625, 0.315, 0.1275, 0.3775, 0.19, 0, 0.2525, 0.0625, 0.315, 0.1275, 0.3775, 0.19, 0, 0.2525, 0.0625, 0.315, 0.1275, 0.3775, 0.19],
  "SoftwareVersions": "syngo MR E11",
  "SpacingBetweenSlices": 2.7,
  "StationName": "AWP66112",
  "TaskName": "social",
  "TotalReadoutTime": 0.03969,
  "TxRefAmp": 243.614,
  "WipMemBlock": "4c374643-3e3e-475e-b72f-29e8adbda4fb||Sequence: R016 ve11c/master r/e634e98; Dec 19 2017 11:00:25 by eja",
  "dcmmeta_affine": [
    [-2.6682355403900146, 0.20718330144882202, 0.19012270867824554, 101.27615356445312],
    [0.2161325067281723, 2.671379327774048, 0.1237296611070633, -93.88292694091797],
    [0.17861302196979523, -0.13749317824840546, 2.6904544830322266, -82.82622528076172],
    [0.0, 0.0, 0.0, 1.0]
],
  "dcmmeta_reorient_transform": [
    [0.0, -1.0, 0.0, 81.0],
    [1.0, 0.0, 0.0, 0.0],
    [0.0, 0.0, 1.0, 0.0],
    [0.0, 0.0, 0.0, 1.0]
],
  "dcmmeta_shape": [82, 82, 56, 872],
  "dcmmeta_slice_dim": 2,
  "dcmmeta_version": 0.6,
  "global": {
    "const": {
      "AccessionNumber": "A003768",
      "AcquisitionMatrix": [82, 0, 0, 82],
      "AngioFlag": "N",
      "BitsAllocated": 16,
      "BitsStored": 16,
      "BodyPartExamined": "BRAIN",
      "Columns": 656,
      "EchoNumbers": 1,
      "EchoTime": 27.2,
      "EchoTrainLength": 82,
      "FlipAngle": 44.0,
      "HighBit": 15,
      "ImageOrientationPatient": [0.9945241284525, -0.0805584780917, 0.06657394034725, 0.07722286401649, 0.99569590125653, 0.05124745353706],
      "ImagePositionPatient": [-943.30320407195, -827.1546288773, -184.68564433677],
      "ImageType": [
        "ORIGINAL",
        "PRIMARY",
        "M",
        "MB",
        "ND",
        "NORM",
        "MOSAIC"
],
      "ImagedNucleus": "1H",
      "ImagingFrequency": 123.252207,
      "InPlanePhaseEncodingDirection": "COL",
      "MRAcquisitionType": "2D",
      "MagneticFieldStrength": 3.0,
      "Manufacturer": "SIEMENS",
      "ManufacturerModelName": "Prisma",
      "Modality": "MR",
      "NumberOfAverages": 1.0,
      "NumberOfPhaseEncodingSteps": 82,
      "PercentPhaseFieldOfView": 100.0,
      "PercentSampling": 100.0,
      "PerformedProcedureStepStartTime": "111053.447000",
      "PhotometricInterpretation": "MONOCHROME2",
      "PixelBandwidth": 3050.0,
      "PixelRepresentation": 0,
      "PixelSpacing": [2.6829268932343, 2.6829268932343],
      "ProtocolName": "func_run-01_task-social_acq-ap-mb8",
      "RepetitionTime": 460.0,
      "Rows": 656,
      "SAR": 0.09931369636723,
      "SamplesPerPixel": 1,
      "ScanOptions": "FS",
      "ScanningSequence": "EP",
      "SequenceName": "epfid2d1_82",
      "SequenceVariant": [
        "SK",
        "SS"
],
      "SeriesDescription": "func_run-01_task-social_acq-ap-mb8",
      "SeriesNumber": 8,
      "SeriesTime": "112725.203000",
      "SliceLocation": -79.704211602283,
      "SliceThickness": 2.7000000476837,
      "SmallestImagePixelValue": 0,
      "SoftwareVersions": "syngo MR E11",
      "SpacingBetweenSlices": 2.7000000795275,
      "SpecificCharacterSet": "ISO_IR 100",
      "StudyID": "5",
      "StudyTime": "111053.397000",
      "TransmitCoilName": "Body",
      "VariableFlipAngleFlag": "N",
      "WindowCenterWidthExplanation": "Algo1",
      "dBdt": 0.0},
    "slices": {}
  },
  "time": {
    "samples": {
      "AcquisitionNumber": [1, 2, 3, 4, 5, 6, 7, 8, 9, 10, 11, 12, 13, 14, 15, 16, 17, 18, 19, 20, 21, 22, 23, 24, 25, 26, 27, 28, 29, 30, 31, 32, 33, 34, 35, 36, 37, 38, 39, 40, 41, 42, 43, 44, 45, 46, 47, 48, 49, 50, 51, 52, 53, 54, 55, 56, 57, 58, 59, 60, 61, 62, 63, 64, 65, 66, 67, 68, 69, 70, 71, 72, 73, 74, 75, 76, 77, 78, 79, 80, 81, 82, 83, 84, 85, 86, 87, 88, 89, 90, 91, 92, 93, 94, 95, 96, 97, 98, 99, 100, 101, 102, 103, 104, 105, 106, 107, 108, 109, 110, 111, 112, 113, 114, 115, 116, 117, 118, 119, 120, 121, 122, 123, 124, 125, 126, 127, 128, 129, 130, 131, 132, 133, 134, 135, 136, 137, 138, 139, 140, 141, 142, 143, 144, 145, 146, 147, 148, 149, 150, 151, 152, 153, 154, 155, 156, 157, 158, 159, 160, 161, 162, 163, 164, 165, 166, 167, 168, 169, 170, 171, 172, 173, 174, 175, 176, 177, 178, 179, 180, 181, 182, 183, 184, 185, 186, 187, 188, 189, 190, 191, 192, 193, 194, 195, 196, 197, 198, 199, 200, 201, 202, 203, 204, 205, 206, 207, 208, 209, 210, 211, 212, 213, 214, 215, 216, 217, 218, 219, 220, 221, 222, 223, 224, 225, 226, 227, 228, 229, 230, 231, 232, 233, 234, 235, 236, 237, 238, 239, 240, 241, 242, 243, 244, 245, 246, 247, 248, 249, 250, 251, 252, 253, 254, 255, 256, 257, 258, 259, 260, 261, 262, 263, 264, 265, 266, 267, 268, 269, 270, 271, 272, 273, 274, 275, 276, 277, 278, 279, 280, 281, 282, 283, 284, 285, 286, 287, 288, 289, 290, 291, 292, 293, 294, 295, 296, 297, 298, 299, 300, 301, 302, 303, 304, 305, 306, 307, 308, 309, 310, 311, 312, 313, 314, 315, 316, 317, 318, 319, 320, 321, 322, 323, 324, 325, 326, 327, 328, 329, 330, 331, 332, 333, 334, 335, 336, 337, 338, 339, 340, 341, 342, 343, 344, 345, 346, 347, 348, 349, 350, 351, 352, 353, 354, 355, 356, 357, 358, 359, 360, 361, 362, 363, 364, 365, 366, 367, 368, 369, 370, 371, 372, 373, 374, 375, 376, 377, 378, 379, 380, 381, 382, 383, 384, 385, 386, 387, 388, 389, 390, 391, 392, 393, 394, 395, 396, 397, 398, 399, 400, 401, 402, 403, 404, 405, 406, 407, 408, 409, 410, 411, 412, 413, 414, 415, 416, 417, 418, 419, 420, 421, 422, 423, 424, 425, 426, 427, 428, 429, 430, 431, 432, 433, 434, 435, 436, 437, 438, 439, 440, 441, 442, 443, 444, 445, 446, 447, 448, 449, 450, 451, 452, 453, 454, 455, 456, 457, 458, 459, 460, 461, 462, 463, 464, 465, 466, 467, 468, 469, 470, 471, 472, 473, 474, 475, 476, 477, 478, 479, 480, 481, 482, 483, 484, 485, 486, 487, 488, 489, 490, 491, 492, 493, 494, 495, 496, 497, 498, 499, 500, 501, 502, 503, 504, 505, 506, 507, 508, 509, 510, 511, 512, 513, 514, 515, 516, 517, 518, 519, 520, 521, 522, 523, 524, 525, 526, 527, 528, 529, 530, 531, 532, 533, 534, 535, 536, 537, 538, 539, 540, 541, 542, 543, 544, 545, 546, 547, 548, 549, 550, 551, 552, 553, 554, 555, 556, 557, 558, 559, 560, 561, 562, 563, 564, 565, 566, 567, 568, 569, 570, 571, 572, 573, 574, 575, 576, 577, 578, 579, 580, 581, 582, 583, 584, 585, 586, 587, 588, 589, 590, 591, 592, 593, 594, 595, 596, 597, 598, 599, 600, 601, 602, 603, 604, 605, 606, 607, 608, 609, 610, 611, 612, 613, 614, 615, 616, 617, 618, 619, 620, 621, 622, 623, 624, 625, 626, 627, 628, 629, 630, 631, 632, 633, 634, 635, 636, 637, 638, 639, 640, 641, 642, 643, 644, 645, 646, 647, 648, 649, 650, 651, 652, 653, 654, 655, 656, 657, 658, 659, 660, 661, 662, 663, 664, 665, 666, 667, 668, 669, 670, 671, 672, 673, 674, 675, 676, 677, 678, 679, 680, 681, 682, 683, 684, 685, 686, 687, 688, 689, 690, 691, 692, 693, 694, 695, 696, 697, 698, 699, 700, 701, 702, 703, 704, 705, 706, 707, 708, 709, 710, 711, 712, 713, 714, 715, 716, 717, 718, 719, 720, 721, 722, 723, 724, 725, 726, 727, 728, 729, 730, 731, 732, 733, 734, 735, 736, 737, 738, 739, 740, 741, 742, 743, 744, 745, 746, 747, 748, 749, 750, 751, 752, 753, 754, 755, 756, 757, 758, 759, 760, 761, 762, 763, 764, 765, 766, 767, 768, 769, 770, 771, 772, 773, 774, 775, 776, 777, 778, 779, 780, 781, 782, 783, 784, 785, 786, 787, 788, 789, 790, 791, 792, 793, 794, 795, 796, 797, 798, 799, 800, 801, 802, 803, 804, 805, 806, 807, 808, 809, 810, 811, 812, 813, 814, 815, 816, 817, 818, 819, 820, 821, 822, 823, 824, 825, 826, 827, 828, 829, 830, 831, 832, 833, 834, 835, 836, 837, 838, 839, 840, 841, 842, 843, 844, 845, 846, 847, 848, 849, 850, 851, 852, 853, 854, 855, 856, 857, 858, 859, 860, 861, 862, 863, 864, 865, 866, 867, 868, 869, 870, 871, 872],
      "AcquisitionTime": ["112707.520000", "112707.980000", "112708.440000", "112708.900000", "112709.360000", "112709.820000", "112710.280000", "112710.740000", "112711.200000", "112711.660000", "112712.120000", "112712.580000", "112713.040000", "112713.500000", "112713.960000", "112714.420000", "112714.880000", "112715.340000", "112715.800000", "112716.260000", "112716.720000", "112717.180000", "112717.640000", "112718.100000", "112718.560000", "112719.020000", "112719.480000", "112719.940000", "112720.400000", "112720.860000", "112721.320000", "112721.780000", "112722.240000", "112722.700000", "112723.160000", "112723.620000", "112724.080000", "112724.540000", "112725.000000", "112725.460000", "112725.920000", "112726.380000", "112726.840000", "112727.300000", "112727.760000", "112728.220000", "112728.680000", "112729.140000", "112729.600000", "112730.060000", "112730.520000", "112730.980000", "112731.440000", "112731.900000", "112732.360000", "112732.820000", "112733.280000", "112733.740000", "112734.200000", "112734.660000", "112735.120000", "112735.580000", "112736.040000", "112736.500000", "112736.960000", "112737.420000", "112737.880000", "112738.340000", "112738.800000", "112739.260000", "112739.720000", "112740.180000", "112740.640000", "112741.100000", "112741.560000", "112742.020000", "112742.480000", "112742.940000", "112743.400000", "112743.860000", "112744.320000", "112744.780000", "112745.240000", "112745.700000", "112746.160000", "112746.620000", "112747.080000", "112747.540000", "112748.000000", "112748.460000", "112748.920000", "112749.380000", "112749.840000", "112750.300000", "112750.760000", "112751.220000", "112751.680000", "112752.140000", "112752.600000", "112753.060000", "112753.520000", "112753.980000", "112754.440000", "112754.900000", "112755.360000", "112755.820000", "112756.280000", "112756.740000", "112757.200000", "112757.660000", "112758.120000", "112758.580000", "112759.040000", "112759.500000", "112759.960000", "112800.420000", "112800.880000", "112801.340000", "112801.800000", "112802.260000", "112802.720000", "112803.180000", "112803.640000", "112804.100000", "112804.560000", "112805.020000", "112805.480000", "112805.940000", "112806.400000", "112806.860000", "112807.320000", "112807.780000", "112808.240000", "112808.700000", "112809.160000", "112809.620000", "112810.080000", "112810.540000", "112811.000000", "112811.460000", "112811.920000", "112812.380000", "112812.840000", "112813.300000", "112813.760000", "112814.220000", "112814.680000", "112815.140000", "112815.600000", "112816.060000", "112816.520000", "112816.980000", "112817.440000", "112817.900000", "112818.360000", "112818.820000", "112819.280000", "112819.740000", "112820.200000", "112820.660000", "112821.120000", "112821.580000", "112822.040000", "112822.500000", "112822.960000", "112823.420000", "112823.880000", "112824.340000", "112824.800000", "112825.260000", "112825.720000", "112826.180000", "112826.640000", "112827.100000", "112827.560000", "112828.020000", "112828.480000", "112828.940000", "112829.400000", "112829.860000", "112830.320000", "112830.780000", "112831.240000", "112831.700000", "112832.160000", "112832.620000", "112833.080000", "112833.540000", "112834.000000", "112834.460000", "112834.920000", "112835.380000", "112835.840000", "112836.300000", "112836.760000", "112837.220000", "112837.680000", "112838.140000", "112838.600000", "112839.060000", "112839.520000", "112839.980000", "112840.440000", "112840.900000", "112841.360000", "112841.820000", "112842.280000", "112842.740000", "112843.200000", "112843.660000", "112844.120000", "112844.580000", "112845.040000", "112845.500000", "112845.960000", "112846.420000", "112846.880000", "112847.340000", "112847.800000", "112848.260000", "112848.720000", "112849.180000", "112849.640000", "112850.100000", "112850.560000", "112851.020000", "112851.480000", "112851.940000", "112852.400000", "112852.860000", "112853.320000", "112853.780000", "112854.240000", "112854.700000", "112855.160000", "112855.620000", "112856.080000", "112856.540000", "112857.000000", "112857.460000", "112857.920000", "112858.380000", "112858.840000", "112859.300000", "112859.760000", "112900.220000", "112900.680000", "112901.140000", "112901.600000", "112902.060000", "112902.520000", "112902.980000", "112903.440000", "112903.900000", "112904.360000", "112904.820000", "112905.280000", "112905.740000", "112906.200000", "112906.660000", "112907.120000", "112907.580000", "112908.040000", "112908.500000", "112908.960000", "112909.420000", "112909.880000", "112910.340000", "112910.800000", "112911.260000", "112911.720000", "112912.180000", "112912.640000", "112913.100000", "112913.560000", "112914.020000", "112914.480000", "112914.940000", "112915.400000", "112915.860000", "112916.320000", "112916.780000", "112917.240000", "112917.700000", "112918.160000", "112918.620000", "112919.080000", "112919.540000", "112920.000000", "112920.460000", "112920.920000", "112921.380000", "112921.840000", "112922.300000", "112922.760000", "112923.220000", "112923.680000", "112924.140000", "112924.600000", "112925.060000", "112925.520000", "112925.980000", "112926.440000", "112926.900000", "112927.360000", "112927.820000", "112928.280000", "112928.740000", "112929.200000", "112929.660000", "112930.120000", "112930.580000", "112931.040000", "112931.500000", "112931.960000", "112932.420000", "112932.880000", "112933.340000", "112933.800000", "112934.260000", "112934.720000", "112935.180000", "112935.640000", "112936.100000", "112936.560000", "112937.020000", "112937.480000", "112937.940000", "112938.400000", "112938.860000", "112939.320000", "112939.780000", "112940.240000", "112940.700000", "112941.160000", "112941.620000", "112942.080000", "112942.540000", "112943.000000", "112943.460000", "112943.920000", "112944.380000", "112944.840000", "112945.300000", "112945.760000", "112946.220000", "112946.680000", "112947.140000", "112947.600000", "112948.060000", "112948.520000", "112948.980000", "112949.440000", "112949.900000", "112950.360000", "112950.820000", "112951.280000", "112951.740000", "112952.200000", "112952.660000", "112953.120000", "112953.580000", "112954.040000", "112954.500000", "112954.960000", "112955.420000", "112955.880000", "112956.340000", "112956.800000", "112957.260000", "112957.720000", "112958.180000", "112958.640000", "112959.100000", "112959.560000", "113000.020000", "113000.480000", "113000.940000", "113001.400000", "113001.860000", "113002.320000", "113002.780000", "113003.240000", "113003.700000", "113004.160000", "113004.620000", "113005.080000", "113005.540000", "113006.000000", "113006.460000", "113006.920000", "113007.380000", "113007.840000", "113008.300000", "113008.760000", "113009.220000", "113009.680000", "113010.140000", "113010.600000", "113011.060000", "113011.520000", "113011.980000", "113012.440000", "113012.900000", "113013.360000", "113013.820000", "113014.280000", "113014.740000", "113015.200000", "113015.660000", "113016.120000", "113016.580000", "113017.040000", "113017.500000", "113017.960000", "113018.420000", "113018.880000", "113019.340000", "113019.800000", "113020.260000", "113020.720000", "113021.180000", "113021.640000", "113022.100000", "113022.560000", "113023.020000", "113023.480000", "113023.940000", "113024.400000", "113024.860000", "113025.320000", "113025.780000", "113026.240000", "113026.700000", "113027.160000", "113027.620000", "113028.080000", "113028.540000", "113029.000000", "113029.460000", "113029.920000", "113030.380000", "113030.840000", "113031.300000", "113031.760000", "113032.220000", "113032.680000", "113033.140000", "113033.600000", "113034.060000", "113034.520000", "113034.980000", "113035.440000", "113035.900000", "113036.360000", "113036.820000", "113037.280000", "113037.740000", "113038.200000", "113038.660000", "113039.120000", "113039.580000", "113040.040000", "113040.500000", "113040.960000", "113041.420000", "113041.880000", "113042.340000", "113042.800000", "113043.260000", "113043.720000", "113044.180000", "113044.640000", "113045.100000", "113045.560000", "113046.020000", "113046.480000", "113046.940000", "113047.400000", "113047.860000", "113048.320000", "113048.780000", "113049.240000", "113049.700000", "113050.160000", "113050.620000", "113051.080000", "113051.540000", "113052.000000", "113052.460000", "113052.920000", "113053.380000", "113053.840000", "113054.300000", "113054.760000", "113055.220000", "113055.680000", "113056.140000", "113056.600000", "113057.060000", "113057.520000", "113057.980000", "113058.440000", "113058.900000", "113059.360000", "113059.820000", "113100.280000", "113100.740000", "113101.200000", "113101.660000", "113102.120000", "113102.580000", "113103.040000", "113103.500000", "113103.960000", "113104.420000", "113104.880000", "113105.340000", "113105.800000", "113106.260000", "113106.720000", "113107.180000", "113107.640000", "113108.100000", "113108.560000", "113109.020000", "113109.480000", "113109.940000", "113110.400000", "113110.860000", "113111.320000", "113111.780000", "113112.240000", "113112.700000", "113113.160000", "113113.620000", "113114.080000", "113114.540000", "113115.000000", "113115.460000", "113115.920000", "113116.380000", "113116.840000", "113117.300000", "113117.760000", "113118.220000", "113118.680000", "113119.140000", "113119.600000", "113120.060000", "113120.520000", "113120.980000", "113121.440000", "113121.900000", "113122.360000", "113122.820000", "113123.280000", "113123.740000", "113124.200000", "113124.660000", "113125.120000", "113125.580000", "113126.040000", "113126.500000", "113126.960000", "113127.420000", "113127.880000", "113128.340000", "113128.800000", "113129.260000", "113129.720000", "113130.180000", "113130.640000", "113131.100000", "113131.560000", "113132.020000", "113132.480000", "113132.940000", "113133.400000", "113133.860000", "113134.320000", "113134.780000", "113135.240000", "113135.700000", "113136.160000", "113136.620000", "113137.080000", "113137.540000", "113138.000000", "113138.460000", "113138.920000", "113139.380000", "113139.840000", "113140.300000", "113140.760000", "113141.220000", "113141.680000", "113142.140000", "113142.600000", "113143.060000", "113143.520000", "113143.980000", "113144.440000", "113144.900000", "113145.360000", "113145.820000", "113146.280000", "113146.740000", "113147.200000", "113147.660000", "113148.120000", "113148.580000", "113149.040000", "113149.500000", "113149.960000", "113150.420000", "113150.880000", "113151.340000", "113151.800000", "113152.260000", "113152.720000", "113153.180000", "113153.640000", "113154.100000", "113154.560000", "113155.020000", "113155.480000", "113155.940000", "113156.400000", "113156.860000", "113157.320000", "113157.780000", "113158.240000", "113158.700000", "113159.160000", "113159.620000", "113200.080000", "113200.540000", "113201.000000", "113201.460000", "113201.920000", "113202.380000", "113202.840000", "113203.300000", "113203.760000", "113204.220000", "113204.680000", "113205.140000", "113205.600000", "113206.060000", "113206.520000", "113206.980000", "113207.440000", "113207.900000", "113208.360000", "113208.820000", "113209.280000", "113209.740000", "113210.200000", "113210.660000", "113211.120000", "113211.580000", "113212.040000", "113212.500000", "113212.960000", "113213.420000", "113213.880000", "113214.340000", "113214.800000", "113215.260000", "113215.720000", "113216.180000", "113216.640000", "113217.100000", "113217.560000", "113218.020000", "113218.480000", "113218.940000", "113219.400000", "113219.860000", "113220.320000", "113220.780000", "113221.240000", "113221.700000", "113222.160000", "113222.620000", "113223.080000", "113223.540000", "113224.000000", "113224.460000", "113224.920000", "113225.380000", "113225.840000", "113226.300000", "113226.760000", "113227.220000", "113227.680000", "113228.140000", "113228.600000", "113229.060000", "113229.520000", "113229.980000", "113230.440000", "113230.900000", "113231.360000", "113231.820000", "113232.280000", "113232.740000", "113233.200000", "113233.660000", "113234.120000", "113234.580000", "113235.040000", "113235.500000", "113235.960000", "113236.420000", "113236.880000", "113237.340000", "113237.800000", "113238.260000", "113238.720000", "113239.180000", "113239.640000", "113240.100000", "113240.560000", "113241.020000", "113241.480000", "113241.940000", "113242.400000", "113242.860000", "113243.320000", "113243.780000", "113244.240000", "113244.700000", "113245.160000", "113245.620000", "113246.080000", "113246.540000", "113247.000000", "113247.460000", "113247.920000", "113248.380000", "113248.840000", "113249.300000", "113249.760000", "113250.220000", "113250.680000", "113251.140000", "113251.600000", "113252.060000", "113252.520000", "113252.980000", "113253.440000", "113253.900000", "113254.360000", "113254.820000", "113255.280000", "113255.740000", "113256.200000", "113256.660000", "113257.120000", "113257.580000", "113258.040000", "113258.500000", "113258.960000", "113259.420000", "113259.880000", "113300.340000", "113300.800000", "113301.260000", "113301.720000", "113302.180000", "113302.640000", "113303.100000", "113303.560000", "113304.020000", "113304.480000", "113304.940000", "113305.400000", "113305.860000", "113306.320000", "113306.780000", "113307.240000", "113307.700000", "113308.160000", "113308.620000", "113309.080000", "113309.540000", "113310.000000", "113310.460000", "113310.920000", "113311.380000", "113311.840000", "113312.300000", "113312.760000", "113313.220000", "113313.680000", "113314.140000", "113314.600000", "113315.060000", "113315.520000", "113315.980000", "113316.440000", "113316.900000", "113317.360000", "113317.820000", "113318.280000", "113318.740000", "113319.200000", "113319.660000", "113320.120000", "113320.580000", "113321.040000", "113321.500000", "113321.960000", "113322.420000", "113322.880000", "113323.340000", "113323.800000", "113324.260000", "113324.720000", "113325.180000", "113325.640000", "113326.100000", "113326.560000", "113327.020000", "113327.480000", "113327.940000", "113328.400000", "113328.860000", "113329.320000", "113329.780000", "113330.240000", "113330.700000", "113331.160000", "113331.620000", "113332.080000", "113332.540000", "113333.000000", "113333.460000", "113333.920000", "113334.380000", "113334.840000", "113335.300000", "113335.760000", "113336.220000", "113336.680000", "113337.140000", "113337.600000", "113338.060000", "113338.520000", "113338.980000", "113339.440000", "113339.900000", "113340.360000", "113340.820000", "113341.280000", "113341.740000", "113342.200000", "113342.660000", "113343.120000", "113343.580000", "113344.040000", "113344.500000", "113344.960000", "113345.420000", "113345.880000", "113346.340000", "113346.800000", "113347.260000", "113347.720000", "113348.180000"],
