{
  "AcquisitionMatrixPE": 82,
  "AcquisitionNumber": 1,
  "AcquisitionTime": "10:11:45.970000",
  "BandwidthPerPixelPhaseEncode": 24.888,
  "BaseResolution": 82,
  "BodyPartExamined": "BRAIN",
  "ConsistencyInfo": "N4_VE11C_LATEST_20160120",
  "ConversionSoftware": "dcm2niix",
  "ConversionSoftwareVersion": "v1.0.20201102",
  "DerivedVendorReportedEchoSpacing": 0.00049,
  "DeviceSerialNumber": "66112",
  "DwellTime": 2e-06,
  "EchoTime": 0.0272,
  "EchoTrainLength": 82,
  "EffectiveEchoSpacing": 0.00049,
  "FlipAngle": 44,
  "ImageComments": "Unaliased MB8/PE3",
  "ImageOrientationPatientDICOM": [0.998714, 0.0492497, 0.0120257, -0.0505927, 0.983403, 0.174239],
  "ImageType": [
    "ORIGINAL",
    "PRIMARY",
    "M",
    "MB",
    "ND",
    "NORM",
    "MOSAIC"
],
  "ImagingFrequency": 123.252,
  "InPlanePhaseEncodingDirectionDICOM": "COL",
  "InstitutionAddress": "Maynard 3,Hanover,NH,US,03755",
  "InstitutionName": "Dartmouth College - PBS",
  "InstitutionalDepartmentName": "Department",
  "MRAcquisitionType": "2D",
  "MagneticFieldStrength": 3,
  "Manufacturer": "Siemens",
  "ManufacturersModelName": "Prisma",
  "Modality": "MR",
  "MultibandAccelerationFactor": 8,
  "PartialFourier": 1,
  "PatientPosition": "HFS",
  "PercentPhaseFOV": 100,
  "PercentSampling": 100,
  "PhaseEncodingDirection": "j-",
  "PhaseEncodingSteps": 82,
  "PhaseResolution": 1,
  "PixelBandwidth": 3050,
  "ProcedureStepDescription": "Wager_Wager^1076_spacetop",
  "ProtocolName": "func_run-01_task-faces_acq-ap-mb8",
  "PulseSequenceDetails": "%CustomerSeq%\\cmrr_mbep2d_bold",
  "ReceiveCoilActiveElements": "HEA;HEP",
  "ReceiveCoilName": "Head_32",
  "ReconMatrixPE": 82,
  "RepetitionTime": 0.46,
  "SAR": 0.090066,
  "ScanOptions": "FS",
  "ScanningSequence": "EP",
  "SequenceName": "epfid2d1_82",
  "SequenceVariant": "SK\\SS",
  "SeriesDescription": "func_run-01_task-faces_acq-ap-mb8",
  "SeriesNumber": 16,
  "ShimSetting": [4130, -7768, -7234, 464, -203, -232, 35, 44],
  "SliceThickness": 2.7,
  "SliceTiming": [0, 0.2525, 0.065, 0.315, 0.1275, 0.3775, 0.19, 0, 0.2525, 0.065, 0.315, 0.1275, 0.3775, 0.19, 0, 0.2525, 0.065, 0.315, 0.1275, 0.3775, 0.19, 0, 0.2525, 0.065, 0.315, 0.1275, 0.3775, 0.19, 0, 0.2525, 0.065, 0.315, 0.1275, 0.3775, 0.19, 0, 0.2525, 0.065, 0.315, 0.1275, 0.3775, 0.19, 0, 0.2525, 0.065, 0.315, 0.1275, 0.3775, 0.19, 0, 0.2525, 0.065, 0.315, 0.1275, 0.3775, 0.19],
  "SoftwareVersions": "syngo MR E11",
  "SpacingBetweenSlices": 2.7,
  "StationName": "AWP66112",
  "TaskName": "faces",
  "TotalReadoutTime": 0.03969,
  "TxRefAmp": 243.756,
  "WipMemBlock": "428dd8cc-d53d-4b3a-9185-12e67450cec6||Sequence: R016 ve11c/master r/e634e98; Dec 19 2017 11:00:25 by eja",
  "dcmmeta_affine": [
    [-2.6794769763946533, -0.1357364058494568, 0.008761233650147915, 119.34879302978516],
    [-0.13213324546813965, 2.6383981704711914, 0.4714818596839905, -95.38330841064453],
    [0.03226402774453163, -0.46746930480003357, 2.658501148223877, -28.553653717041016],
    [0.0, 0.0, 0.0, 1.0]
],
  "dcmmeta_reorient_transform": [
    [0.0, -1.0, 0.0, 81.0],
    [1.0, 0.0, 0.0, 0.0],
    [0.0, 0.0, 1.0, 0.0],
    [0.0, 0.0, 0.0, 1.0]
],
  "dcmmeta_shape": [82, 82, 56, 914],
  "dcmmeta_slice_dim": 2,
  "dcmmeta_version": 0.6,
  "global": {
    "const": {
      "AccessionNumber": "A003514",
      "AcquisitionMatrix": [82, 0, 0, 82],
      "AngioFlag": "N",
      "BitsAllocated": 16,
      "BitsStored": 16,
      "BodyPartExamined": "BRAIN",
      "Columns": 656,
      "EchoNumbers": 1,
      "EchoTime": 27.2,
      "EchoTrainLength": 82,
      "FlipAngle": 44.0,
      "HighBit": 15,
      "ImageOrientationPatient": [0.99871409995553, 0.04924966500093, 0.012025682821, -0.0505926592014, 0.98340292361508, 0.17423855101625],
      "ImagePositionPatient": [-838.40767209592, -913.46945141573, -209.84212944672],
      "ImageType": [
        "ORIGINAL",
        "PRIMARY",
        "M",
        "MB",
        "ND",
        "NORM",
        "MOSAIC"
],
      "ImagedNucleus": "1H",
      "ImagingFrequency": 123.252213,
      "InPlanePhaseEncodingDirection": "COL",
      "MRAcquisitionType": "2D",
      "MagneticFieldStrength": 3.0,
      "Manufacturer": "SIEMENS",
      "ManufacturerModelName": "Prisma",
      "Modality": "MR",
      "NumberOfAverages": 1.0,
      "NumberOfPhaseEncodingSteps": 82,
      "PercentPhaseFieldOfView": 100.0,
      "PercentSampling": 100.0,
      "PerformedProcedureStepStartTime": "085750.373000",
      "PhotometricInterpretation": "MONOCHROME2",
      "PixelBandwidth": 3050.0,
      "PixelRepresentation": 0,
      "PixelSpacing": [2.6829268932343, 2.6829268932343],
      "ProtocolName": "func_run-01_task-faces_acq-ap-mb8",
      "RepetitionTime": 460.0,
      "Rows": 656,
      "SAR": 0.09006604456914,
      "SamplesPerPixel": 1,
      "ScanOptions": "FS",
      "ScanningSequence": "EP",
      "SequenceName": "epfid2d1_82",
      "SequenceVariant": [
        "SK",
        "SS"
],
      "SeriesDescription": "func_run-01_task-faces_acq-ap-mb8",
      "SeriesNumber": 16,
      "SeriesTime": "101203.004000",
      "SliceLocation": -44.38362070478,
      "SliceThickness": 2.7000000476837,
      "SmallestImagePixelValue": 0,
      "SoftwareVersions": "syngo MR E11",
      "SpacingBetweenSlices": 2.7000000519918,
      "SpecificCharacterSet": "ISO_IR 100",
      "StudyID": "2",
      "StudyTime": "085750.278000",
      "TransmitCoilName": "Body",
      "VariableFlipAngleFlag": "N",
      "WindowCenterWidthExplanation": "Algo1",
      "dBdt": 0.0},
    "slices": {}
  },
  "time": {
    "samples": {
      "AcquisitionNumber": [1, 2, 3, 4, 5, 6, 7, 8, 9, 10, 11, 12, 13, 14, 15, 16, 17, 18, 19, 20, 21, 22, 23, 24, 25, 26, 27, 28, 29, 30, 31, 32, 33, 34, 35, 36, 37, 38, 39, 40, 41, 42, 43, 44, 45, 46, 47, 48, 49, 50, 51, 52, 53, 54, 55, 56, 57, 58, 59, 60, 61, 62, 63, 64, 65, 66, 67, 68, 69, 70, 71, 72, 73, 74, 75, 76, 77, 78, 79, 80, 81, 82, 83, 84, 85, 86, 87, 88, 89, 90, 91, 92, 93, 94, 95, 96, 97, 98, 99, 100, 101, 102, 103, 104, 105, 106, 107, 108, 109, 110, 111, 112, 113, 114, 115, 116, 117, 118, 119, 120, 121, 122, 123, 124, 125, 126, 127, 128, 129, 130, 131, 132, 133, 134, 135, 136, 137, 138, 139, 140, 141, 142, 143, 144, 145, 146, 147, 148, 149, 150, 151, 152, 153, 154, 155, 156, 157, 158, 159, 160, 161, 162, 163, 164, 165, 166, 167, 168, 169, 170, 171, 172, 173, 174, 175, 176, 177, 178, 179, 180, 181, 182, 183, 184, 185, 186, 187, 188, 189, 190, 191, 192, 193, 194, 195, 196, 197, 198, 199, 200, 201, 202, 203, 204, 205, 206, 207, 208, 209, 210, 211, 212, 213, 214, 215, 216, 217, 218, 219, 220, 221, 222, 223, 224, 225, 226, 227, 228, 229, 230, 231, 232, 233, 234, 235, 236, 237, 238, 239, 240, 241, 242, 243, 244, 245, 246, 247, 248, 249, 250, 251, 252, 253, 254, 255, 256, 257, 258, 259, 260, 261, 262, 263, 264, 265, 266, 267, 268, 269, 270, 271, 272, 273, 274, 275, 276, 277, 278, 279, 280, 281, 282, 283, 284, 285, 286, 287, 288, 289, 290, 291, 292, 293, 294, 295, 296, 297, 298, 299, 300, 301, 302, 303, 304, 305, 306, 307, 308, 309, 310, 311, 312, 313, 314, 315, 316, 317, 318, 319, 320, 321, 322, 323, 324, 325, 326, 327, 328, 329, 330, 331, 332, 333, 334, 335, 336, 337, 338, 339, 340, 341, 342, 343, 344, 345, 346, 347, 348, 349, 350, 351, 352, 353, 354, 355, 356, 357, 358, 359, 360, 361, 362, 363, 364, 365, 366, 367, 368, 369, 370, 371, 372, 373, 374, 375, 376, 377, 378, 379, 380, 381, 382, 383, 384, 385, 386, 387, 388, 389, 390, 391, 392, 393, 394, 395, 396, 397, 398, 399, 400, 401, 402, 403, 404, 405, 406, 407, 408, 409, 410, 411, 412, 413, 414, 415, 416, 417, 418, 419, 420, 421, 422, 423, 424, 425, 426, 427, 428, 429, 430, 431, 432, 433, 434, 435, 436, 437, 438, 439, 440, 441, 442, 443, 444, 445, 446, 447, 448, 449, 450, 451, 452, 453, 454, 455, 456, 457, 458, 459, 460, 461, 462, 463, 464, 465, 466, 467, 468, 469, 470, 471, 472, 473, 474, 475, 476, 477, 478, 479, 480, 481, 482, 483, 484, 485, 486, 487, 488, 489, 490, 491, 492, 493, 494, 495, 496, 497, 498, 499, 500, 501, 502, 503, 504, 505, 506, 507, 508, 509, 510, 511, 512, 513, 514, 515, 516, 517, 518, 519, 520, 521, 522, 523, 524, 525, 526, 527, 528, 529, 530, 531, 532, 533, 534, 535, 536, 537, 538, 539, 540, 541, 542, 543, 544, 545, 546, 547, 548, 549, 550, 551, 552, 553, 554, 555, 556, 557, 558, 559, 560, 561, 562, 563, 564, 565, 566, 567, 568, 569, 570, 571, 572, 573, 574, 575, 576, 577, 578, 579, 580, 581, 582, 583, 584, 585, 586, 587, 588, 589, 590, 591, 592, 593, 594, 595, 596, 597, 598, 599, 600, 601, 602, 603, 604, 605, 606, 607, 608, 609, 610, 611, 612, 613, 614, 615, 616, 617, 618, 619, 620, 621, 622, 623, 624, 625, 626, 627, 628, 629, 630, 631, 632, 633, 634, 635, 636, 637, 638, 639, 640, 641, 642, 643, 644, 645, 646, 647, 648, 649, 650, 651, 652, 653, 654, 655, 656, 657, 658, 659, 660, 661, 662, 663, 664, 665, 666, 667, 668, 669, 670, 671, 672, 673, 674, 675, 676, 677, 678, 679, 680, 681, 682, 683, 684, 685, 686, 687, 688, 689, 690, 691, 692, 693, 694, 695, 696, 697, 698, 699, 700, 701, 702, 703, 704, 705, 706, 707, 708, 709, 710, 711, 712, 713, 714, 715, 716, 717, 718, 719, 720, 721, 722, 723, 724, 725, 726, 727, 728, 729, 730, 731, 732, 733, 734, 735, 736, 737, 738, 739, 740, 741, 742, 743, 744, 745, 746, 747, 748, 749, 750, 751, 752, 753, 754, 755, 756, 757, 758, 759, 760, 761, 762, 763, 764, 765, 766, 767, 768, 769, 770, 771, 772, 773, 774, 775, 776, 777, 778, 779, 780, 781, 782, 783, 784, 785, 786, 787, 788, 789, 790, 791, 792, 793, 794, 795, 796, 797, 798, 799, 800, 801, 802, 803, 804, 805, 806, 807, 808, 809, 810, 811, 812, 813, 814, 815, 816, 817, 818, 819, 820, 821, 822, 823, 824, 825, 826, 827, 828, 829, 830, 831, 832, 833, 834, 835, 836, 837, 838, 839, 840, 841, 842, 843, 844, 845, 846, 847, 848, 849, 850, 851, 852, 853, 854, 855, 856, 857, 858, 859, 860, 861, 862, 863, 864, 865, 866, 867, 868, 869, 870, 871, 872, 873, 874, 875, 876, 877, 878, 879, 880, 881, 882, 883, 884, 885, 886, 887, 888, 889, 890, 891, 892, 893, 894, 895, 896, 897, 898, 899, 900, 901, 902, 903, 904, 905, 906, 907, 908, 909, 910, 911, 912, 913, 914],
      "AcquisitionTime": ["101145.970000", "101146.430000", "101146.890000", "101147.350000", "101147.810000", "101148.270000", "101148.730000", "101149.190000", "101149.650000", "101150.110000", "101150.570000", "101151.030000", "101151.490000", "101151.950000", "101152.410000", "101152.870000", "101153.330000", "101153.790000", "101154.250000", "101154.710000", "101155.170000", "101155.630000", "101156.090000", "101156.550000", "101157.010000", "101157.470000", "101157.930000", "101158.390000", "101158.850000", "101159.310000", "101159.770000", "101200.230000", "101200.690000", "101201.150000", "101201.610000", "101202.070000", "101202.530000", "101202.990000", "101203.450000", "101203.910000", "101204.370000", "101204.830000", "101205.290000", "101205.750000", "101206.210000", "101206.670000", "101207.130000", "101207.590000", "101208.050000", "101208.510000", "101208.970000", "101209.430000", "101209.890000", "101210.350000", "101210.810000", "101211.270000", "101211.730000", "101212.190000", "101212.650000", "101213.110000", "101213.570000", "101214.030000", "101214.490000", "101214.950000", "101215.410000", "101215.870000", "101216.330000", "101216.790000", "101217.250000", "101217.710000", "101218.170000", "101218.630000", "101219.090000", "101219.550000", "101220.010000", "101220.470000", "101220.930000", "101221.390000", "101221.850000", "101222.310000", "101222.770000", "101223.230000", "101223.690000", "101224.150000", "101224.610000", "101225.070000", "101225.530000", "101225.990000", "101226.450000", "101226.910000", "101227.370000", "101227.830000", "101228.290000", "101228.750000", "101229.210000", "101229.670000", "101230.130000", "101230.590000", "101231.050000", "101231.510000", "101231.970000", "101232.430000", "101232.890000", "101233.350000", "101233.810000", "101234.270000", "101234.730000", "101235.190000", "101235.650000", "101236.110000", "101236.570000", "101237.030000", "101237.490000", "101237.950000", "101238.410000", "101238.870000", "101239.330000", "101239.790000", "101240.250000", "101240.710000", "101241.170000", "101241.630000", "101242.090000", "101242.550000", "101243.010000", "101243.470000", "101243.930000", "101244.390000", "101244.850000", "101245.310000", "101245.770000", "101246.230000", "101246.690000", "101247.150000", "101247.610000", "101248.070000", "101248.530000", "101248.990000", "101249.450000", "101249.910000", "101250.370000", "101250.830000", "101251.290000", "101251.750000", "101252.210000", "101252.670000", "101253.130000", "101253.590000", "101254.050000", "101254.510000", "101254.970000", "101255.430000", "101255.890000", "101256.350000", "101256.810000", "101257.270000", "101257.730000", "101258.190000", "101258.650000", "101259.110000", "101259.570000", "101300.030000", "101300.490000", "101300.950000", "101301.410000", "101301.870000", "101302.330000", "101302.790000", "101303.250000", "101303.710000", "101304.170000", "101304.630000", "101305.090000", "101305.550000", "101306.010000", "101306.470000", "101306.930000", "101307.390000", "101307.850000", "101308.310000", "101308.770000", "101309.230000", "101309.690000", "101310.150000", "101310.610000", "101311.070000", "101311.530000", "101311.990000", "101312.450000", "101312.910000", "101313.370000", "101313.830000", "101314.290000", "101314.750000", "101315.210000", "101315.670000", "101316.130000", "101316.590000", "101317.050000", "101317.510000", "101317.970000", "101318.430000", "101318.890000", "101319.350000", "101319.810000", "101320.270000", "101320.730000", "101321.190000", "101321.650000", "101322.110000", "101322.570000", "101323.030000", "101323.490000", "101323.950000", "101324.410000", "101324.870000", "101325.330000", "101325.790000", "101326.250000", "101326.710000", "101327.170000", "101327.630000", "101328.090000", "101328.550000", "101329.010000", "101329.470000", "101329.930000", "101330.390000", "101330.850000", "101331.310000", "101331.770000", "101332.230000", "101332.690000", "101333.150000", "101333.610000", "101334.070000", "101334.530000", "101334.990000", "101335.450000", "101335.910000", "101336.370000", "101336.830000", "101337.290000", "101337.750000", "101338.210000", "101338.670000", "101339.130000", "101339.590000", "101340.050000", "101340.510000", "101340.970000", "101341.430000", "101341.890000", "101342.350000", "101342.810000", "101343.270000", "101343.730000", "101344.190000", "101344.650000", "101345.110000", "101345.570000", "101346.030000", "101346.490000", "101346.950000", "101347.410000", "101347.870000", "101348.330000", "101348.790000", "101349.250000", "101349.710000", "101350.170000", "101350.630000", "101351.090000", "101351.550000", "101352.010000", "101352.470000", "101352.930000", "101353.390000", "101353.850000", "101354.310000", "101354.770000", "101355.230000", "101355.690000", "101356.150000", "101356.610000", "101357.070000", "101357.530000", "101357.990000", "101358.450000", "101358.910000", "101359.370000", "101359.830000", "101400.290000", "101400.750000", "101401.210000", "101401.670000", "101402.130000", "101402.590000", "101403.050000", "101403.510000", "101403.970000", "101404.430000", "101404.890000", "101405.350000", "101405.810000", "101406.270000", "101406.730000", "101407.190000", "101407.650000", "101408.110000", "101408.570000", "101409.030000", "101409.490000", "101409.950000", "101410.410000", "101410.870000", "101411.330000", "101411.790000", "101412.250000", "101412.710000", "101413.170000", "101413.630000", "101414.090000", "101414.550000", "101415.010000", "101415.470000", "101415.930000", "101416.390000", "101416.850000", "101417.310000", "101417.770000", "101418.230000", "101418.690000", "101419.150000", "101419.610000", "101420.070000", "101420.530000", "101420.990000", "101421.450000", "101421.910000", "101422.370000", "101422.830000", "101423.290000", "101423.750000", "101424.210000", "101424.670000", "101425.130000", "101425.590000", "101426.050000", "101426.510000", "101426.970000", "101427.430000", "101427.890000", "101428.350000", "101428.810000", "101429.270000", "101429.730000", "101430.190000", "101430.650000", "101431.110000", "101431.570000", "101432.030000", "101432.490000", "101432.950000", "101433.410000", "101433.870000", "101434.330000", "101434.790000", "101435.250000", "101435.710000", "101436.170000", "101436.630000", "101437.090000", "101437.550000", "101438.010000", "101438.470000", "101438.930000", "101439.390000", "101439.850000", "101440.310000", "101440.770000", "101441.230000", "101441.690000", "101442.150000", "101442.610000", "101443.070000", "101443.530000", "101443.990000", "101444.450000", "101444.910000", "101445.370000", "101445.830000", "101446.290000", "101446.750000", "101447.210000", "101447.670000", "101448.130000", "101448.590000", "101449.050000", "101449.510000", "101449.970000", "101450.430000", "101450.890000", "101451.350000", "101451.810000", "101452.270000", "101452.730000", "101453.190000", "101453.650000", "101454.110000", "101454.570000", "101455.030000", "101455.490000", "101455.950000", "101456.410000", "101456.870000", "101457.330000", "101457.790000", "101458.250000", "101458.710000", "101459.170000", "101459.630000", "101500.090000", "101500.550000", "101501.010000", "101501.470000", "101501.930000", "101502.390000", "101502.850000", "101503.310000", "101503.770000", "101504.230000", "101504.690000", "101505.150000", "101505.610000", "101506.070000", "101506.530000", "101506.990000", "101507.450000", "101507.910000", "101508.370000", "101508.830000", "101509.290000", "101509.750000", "101510.210000", "101510.670000", "101511.130000", "101511.590000", "101512.050000", "101512.510000", "101512.970000", "101513.430000", "101513.890000", "101514.350000", "101514.810000", "101515.270000", "101515.730000", "101516.190000", "101516.650000", "101517.110000", "101517.570000", "101518.030000", "101518.490000", "101518.950000", "101519.410000", "101519.870000", "101520.330000", "101520.790000", "101521.250000", "101521.710000", "101522.170000", "101522.630000", "101523.090000", "101523.550000", "101524.010000", "101524.470000", "101524.930000", "101525.390000", "101525.850000", "101526.310000", "101526.770000", "101527.230000", "101527.690000", "101528.150000", "101528.610000", "101529.070000", "101529.530000", "101529.990000", "101530.450000", "101530.910000", "101531.370000", "101531.830000", "101532.290000", "101532.750000", "101533.210000", "101533.670000", "101534.130000", "101534.590000", "101535.050000", "101535.510000", "101535.970000", "101536.430000", "101536.890000", "101537.350000", "101537.810000", "101538.270000", "101538.730000", "101539.190000", "101539.650000", "101540.110000", "101540.570000", "101541.030000", "101541.490000", "101541.950000", "101542.410000", "101542.870000", "101543.330000", "101543.790000", "101544.250000", "101544.710000", "101545.170000", "101545.630000", "101546.090000", "101546.550000", "101547.010000", "101547.470000", "101547.930000", "101548.390000", "101548.850000", "101549.310000", "101549.770000", "101550.230000", "101550.690000", "101551.150000", "101551.610000", "101552.070000", "101552.530000", "101552.990000", "101553.450000", "101553.910000", "101554.370000", "101554.830000", "101555.290000", "101555.750000", "101556.210000", "101556.670000", "101557.130000", "101557.590000", "101558.050000", "101558.510000", "101558.970000", "101559.430000", "101559.890000", "101600.350000", "101600.810000", "101601.270000", "101601.730000", "101602.190000", "101602.650000", "101603.110000", "101603.570000", "101604.030000", "101604.490000", "101604.950000", "101605.410000", "101605.870000", "101606.330000", "101606.790000", "101607.250000", "101607.710000", "101608.170000", "101608.630000", "101609.090000", "101609.550000", "101610.010000", "101610.470000", "101610.930000", "101611.390000", "101611.850000", "101612.310000", "101612.770000", "101613.230000", "101613.690000", "101614.150000", "101614.610000", "101615.070000", "101615.530000", "101615.990000", "101616.450000", "101616.910000", "101617.370000", "101617.830000", "101618.290000", "101618.750000", "101619.210000", "101619.670000", "101620.130000", "101620.590000", "101621.050000", "101621.510000", "101621.970000", "101622.430000", "101622.890000", "101623.350000", "101623.810000", "101624.270000", "101624.730000", "101625.190000", "101625.650000", "101626.110000", "101626.570000", "101627.030000", "101627.490000", "101627.950000", "101628.410000", "101628.870000", "101629.330000", "101629.790000", "101630.250000", "101630.710000", "101631.170000", "101631.630000", "101632.090000", "101632.550000", "101633.010000", "101633.470000", "101633.930000", "101634.390000", "101634.850000", "101635.310000", "101635.770000", "101636.230000", "101636.690000", "101637.150000", "101637.610000", "101638.070000", "101638.530000", "101638.990000", "101639.450000", "101639.910000", "101640.370000", "101640.830000", "101641.290000", "101641.750000", "101642.210000", "101642.670000", "101643.130000", "101643.590000", "101644.050000", "101644.510000", "101644.970000", "101645.430000", "101645.890000", "101646.350000", "101646.810000", "101647.270000", "101647.730000", "101648.190000", "101648.650000", "101649.110000", "101649.570000", "101650.030000", "101650.490000", "101650.950000", "101651.410000", "101651.870000", "101652.330000", "101652.790000", "101653.250000", "101653.710000", "101654.170000", "101654.630000", "101655.090000", "101655.550000", "101656.010000", "101656.470000", "101656.930000", "101657.390000", "101657.850000", "101658.310000", "101658.770000", "101659.230000", "101659.690000", "101700.150000", "101700.610000", "101701.070000", "101701.530000", "101701.990000", "101702.450000", "101702.910000", "101703.370000", "101703.830000", "101704.290000", "101704.750000", "101705.210000", "101705.670000", "101706.130000", "101706.590000", "101707.050000", "101707.510000", "101707.970000", "101708.430000", "101708.890000", "101709.350000", "101709.810000", "101710.270000", "101710.730000", "101711.190000", "101711.650000", "101712.110000", "101712.570000", "101713.030000", "101713.490000", "101713.950000", "101714.410000", "101714.870000", "101715.330000", "101715.790000", "101716.250000", "101716.710000", "101717.170000", "101717.630000", "101718.090000", "101718.550000", "101719.010000", "101719.470000", "101719.930000", "101720.390000", "101720.850000", "101721.310000", "101721.770000", "101722.230000", "101722.690000", "101723.150000", "101723.610000", "101724.070000", "101724.530000", "101724.990000", "101725.450000", "101725.910000", "101726.370000", "101726.830000", "101727.290000", "101727.750000", "101728.210000", "101728.670000", "101729.130000", "101729.590000", "101730.050000", "101730.510000", "101730.970000", "101731.430000", "101731.890000", "101732.350000", "101732.810000", "101733.270000", "101733.730000", "101734.190000", "101734.650000", "101735.110000", "101735.570000", "101736.030000", "101736.490000", "101736.950000", "101737.410000", "101737.870000", "101738.330000", "101738.790000", "101739.250000", "101739.710000", "101740.170000", "101740.630000", "101741.090000", "101741.550000", "101742.010000", "101742.470000", "101742.930000", "101743.390000", "101743.850000", "101744.310000", "101744.770000", "101745.230000", "101745.690000", "101746.150000", "101746.610000", "101747.070000", "101747.530000", "101747.990000", "101748.450000", "101748.910000", "101749.370000", "101749.830000", "101750.290000", "101750.750000", "101751.210000", "101751.670000", "101752.130000", "101752.590000", "101753.050000", "101753.510000", "101753.970000", "101754.430000", "101754.890000", "101755.350000", "101755.810000", "101756.270000", "101756.730000", "101757.190000", "101757.650000", "101758.110000", "101758.570000", "101759.030000", "101759.490000", "101759.950000", "101800.410000", "101800.870000", "101801.330000", "101801.790000", "101802.250000", "101802.710000", "101803.170000", "101803.630000", "101804.090000", "101804.550000", "101805.010000", "101805.470000", "101805.930000", "101806.390000", "101806.850000", "101807.310000", "101807.770000", "101808.230000", "101808.690000", "101809.150000", "101809.610000", "101810.070000", "101810.530000", "101810.990000", "101811.450000", "101811.910000", "101812.370000", "101812.830000", "101813.290000", "101813.750000", "101814.210000", "101814.670000", "101815.130000", "101815.590000", "101816.050000", "101816.510000", "101816.970000", "101817.430000", "101817.890000", "101818.350000", "101818.810000", "101819.270000", "101819.730000", "101820.190000", "101820.650000", "101821.110000", "101821.570000", "101822.030000", "101822.490000", "101822.950000", "101823.410000", "101823.870000", "101824.330000", "101824.790000", "101825.250000", "101825.710000", "101826.170000", "101826.630000", "101827.090000", "101827.550000", "101828.010000", "101828.470000", "101828.930000", "101829.390000", "101829.850000", "101830.310000", "101830.770000", "101831.230000", "101831.690000", "101832.150000", "101832.610000", "101833.070000", "101833.530000", "101833.990000", "101834.450000", "101834.910000", "101835.370000", "101835.830000", "101836.290000", "101836.750000", "101837.210000", "101837.670000", "101838.130000", "101838.590000", "101839.050000", "101839.510000", "101839.970000", "101840.430000", "101840.890000", "101841.350000", "101841.810000", "101842.270000", "101842.730000", "101843.190000", "101843.650000", "101844.110000", "101844.570000", "101845.030000", "101845.490000", "101845.950000"],
