{
  "AcquisitionMatrixPE": 82,
  "AcquisitionNumber": 1,
  "AcquisitionTime": "16:11:8.882500",
  "BandwidthPerPixelPhaseEncode": 24.888,
  "BaseResolution": 82,
  "BodyPartExamined": "BRAIN",
  "ConsistencyInfo": "N4_VE11C_LATEST_20160120",
  "ConversionSoftware": "dcm2niix",
  "ConversionSoftwareVersion": "v1.0.20201102",
  "DerivedVendorReportedEchoSpacing": 0.00049,
  "DeviceSerialNumber": "66112",
  "DwellTime": 2e-06,
  "EchoTime": 0.0272,
  "EchoTrainLength": 82,
  "EffectiveEchoSpacing": 0.00049,
  "FlipAngle": 44,
  "ImageComments": "Unaliased MB8/PE3",
  "ImageOrientationPatientDICOM": [0.998736, -0.050059, -0.00459425, 0.0498947, 0.99828, -0.0307665],
  "ImageType": [
    "ORIGINAL",
    "PRIMARY",
    "M",
    "MB",
    "ND",
    "NORM",
    "MOSAIC"
],
  "ImagingFrequency": 123.252,
  "InPlanePhaseEncodingDirectionDICOM": "COL",
  "InstitutionAddress": "Maynard 3,Hanover,NH,US,03755",
  "InstitutionName": "Dartmouth College - PBS",
  "InstitutionalDepartmentName": "Department",
  "MRAcquisitionType": "2D",
  "MagneticFieldStrength": 3,
  "Manufacturer": "Siemens",
  "ManufacturersModelName": "Prisma",
  "Modality": "MR",
  "MultibandAccelerationFactor": 8,
  "PartialFourier": 1,
  "PatientPosition": "HFS",
  "PercentPhaseFOV": 100,
  "PercentSampling": 100,
  "PhaseEncodingDirection": "j-",
  "PhaseEncodingSteps": 82,
  "PhaseResolution": 1,
  "PixelBandwidth": 3050,
  "ProcedureStepDescription": "Wager_Wager^1076_spacetop",
  "ProtocolName": "func_run-03_task-alignvideo_acq-ap-mb8",
  "PulseSequenceDetails": "%CustomerSeq%\\cmrr_mbep2d_bold",
  "ReceiveCoilActiveElements": "HEA;HEP",
  "ReceiveCoilName": "Head_32",
  "ReconMatrixPE": 82,
  "RepetitionTime": 0.46,
  "SAR": 0.101013,
  "ScanOptions": "FS",
  "ScanningSequence": "EP",
  "SequenceName": "epfid2d1_82",
  "SequenceVariant": "SK\\SS",
  "SeriesDescription": "func_run-03_task-alignvideo_acq-ap-mb8",
  "SeriesNumber": 34,
  "ShimSetting": [4129, -7784, -7242, 588, -63, -230, 58, 91],
  "SliceThickness": 2.7,
  "SliceTiming": [0, 0.25, 0.0625, 0.3125, 0.125, 0.3775, 0.1875, 0, 0.25, 0.0625, 0.3125, 0.125, 0.3775, 0.1875, 0, 0.25, 0.0625, 0.3125, 0.125, 0.3775, 0.1875, 0, 0.25, 0.0625, 0.3125, 0.125, 0.3775, 0.1875, 0, 0.25, 0.0625, 0.3125, 0.125, 0.3775, 0.1875, 0, 0.25, 0.0625, 0.3125, 0.125, 0.3775, 0.1875, 0, 0.25, 0.0625, 0.3125, 0.125, 0.3775, 0.1875, 0, 0.25, 0.0625, 0.3125, 0.125, 0.3775, 0.1875],
  "SoftwareVersions": "syngo MR E11",
  "SpacingBetweenSlices": 2.7,
  "StationName": "AWP66112",
  "TaskName": "alignvideo",
  "TotalReadoutTime": 0.03969,
  "TxRefAmp": 251.699,
  "WipMemBlock": "471868bb-5c9a-4b3f-90f9-f9ee0b4902e0||Sequence: R016 ve11c/master r/e634e98; Dec 19 2017 11:00:25 by eja",
  "dcmmeta_affine": [
    [-2.679534912109375, 0.13386385142803192, -0.01654152013361454, 105.60542297363281],
    [0.13430476188659668, 2.6783134937286377, -0.08234554529190063, -102.08648681640625],
    [-0.012326032854616642, 0.08254420757293701, 2.69869327545166, -73.22676849365234],
    [0.0, 0.0, 0.0, 1.0]
],
  "dcmmeta_reorient_transform": [
    [0.0, -1.0, 0.0, 81.0],
    [1.0, 0.0, 0.0, 0.0],
    [0.0, 0.0, 1.0, 0.0],
    [0.0, 0.0, 0.0, 1.0]
],
  "dcmmeta_shape": [82, 82, 56, 1016],
  "dcmmeta_slice_dim": 2,
  "dcmmeta_version": 0.6,
  "global": {
    "const": {
      "AccessionNumber": "A003793",
      "AcquisitionMatrix": [82, 0, 0, 82],
      "AngioFlag": "N",
      "BitsAllocated": 16,
      "BitsStored": 16,
      "BodyPartExamined": "BRAIN",
      "Columns": 656,
      "EchoNumbers": 1,
      "EchoTime": 27.2,
      "EchoTrainLength": 82,
      "FlipAngle": 44.0,
      "HighBit": 15,
      "ImageOrientationPatient": [0.99873569303992, -0.0500590484195, -0.0045942485137, 0.04989470490319, 0.99828049278587, -0.0307664776312],
      "ImagePositionPatient": [-923.8938223553, -844.98744411374, -39.31292676672],
      "ImageType": [
        "ORIGINAL",
        "PRIMARY",
        "M",
        "MB",
        "ND",
        "NORM",
        "MOSAIC"
],
      "ImagedNucleus": "1H",
      "ImagingFrequency": 123.252204,
      "InPlanePhaseEncodingDirection": "COL",
      "MRAcquisitionType": "2D",
      "MagneticFieldStrength": 3.0,
      "Manufacturer": "SIEMENS",
      "ManufacturerModelName": "Prisma",
      "Modality": "MR",
      "NumberOfAverages": 1.0,
      "NumberOfPhaseEncodingSteps": 82,
      "PercentPhaseFieldOfView": 100.0,
      "PercentSampling": 100.0,
      "PerformedProcedureStepStartTime": "143343.482000",
      "PhotometricInterpretation": "MONOCHROME2",
      "PixelBandwidth": 3050.0,
      "PixelRepresentation": 0,
      "PixelSpacing": [2.6829268932343, 2.6829268932343],
      "ProtocolName": "func_run-03_task-alignvideo_acq-ap-mb8",
      "RepetitionTime": 460.0,
      "Rows": 656,
      "SAR": 0.10101303646282,
      "SamplesPerPixel": 1,
      "ScanOptions": "FS",
      "ScanningSequence": "EP",
      "SequenceName": "epfid2d1_82",
      "SequenceVariant": [
        "SK",
        "SS"
],
      "SeriesDescription": "func_run-03_task-alignvideo_acq-ap-mb8",
      "SeriesNumber": 34,
      "SeriesTime": "161126.138000",
      "SliceLocation": -70.724849911078,
      "SliceThickness": 2.7000000476837,
      "SmallestImagePixelValue": 0,
      "SoftwareVersions": "syngo MR E11",
      "SpacingBetweenSlices": 2.6999999811399,
      "SpecificCharacterSet": "ISO_IR 100",
      "StudyID": "1",
      "StudyTime": "143343.428000",
      "TransmitCoilName": "Body",
      "VariableFlipAngleFlag": "N",
      "WindowCenterWidthExplanation": "Algo1",
      "dBdt": 0.0},
    "slices": {}
  },
  "time": {
    "samples": {
      "AcquisitionNumber": [1, 2, 3, 4, 5, 6, 7, 8, 9, 10, 11, 12, 13, 14, 15, 16, 17, 18, 19, 20, 21, 22, 23, 24, 25, 26, 27, 28, 29, 30, 31, 32, 33, 34, 35, 36, 37, 38, 39, 40, 41, 42, 43, 44, 45, 46, 47, 48, 49, 50, 51, 52, 53, 54, 55, 56, 57, 58, 59, 60, 61, 62, 63, 64, 65, 66, 67, 68, 69, 70, 71, 72, 73, 74, 75, 76, 77, 78, 79, 80, 81, 82, 83, 84, 85, 86, 87, 88, 89, 90, 91, 92, 93, 94, 95, 96, 97, 98, 99, 100, 101, 102, 103, 104, 105, 106, 107, 108, 109, 110, 111, 112, 113, 114, 115, 116, 117, 118, 119, 120, 121, 122, 123, 124, 125, 126, 127, 128, 129, 130, 131, 132, 133, 134, 135, 136, 137, 138, 139, 140, 141, 142, 143, 144, 145, 146, 147, 148, 149, 150, 151, 152, 153, 154, 155, 156, 157, 158, 159, 160, 161, 162, 163, 164, 165, 166, 167, 168, 169, 170, 171, 172, 173, 174, 175, 176, 177, 178, 179, 180, 181, 182, 183, 184, 185, 186, 187, 188, 189, 190, 191, 192, 193, 194, 195, 196, 197, 198, 199, 200, 201, 202, 203, 204, 205, 206, 207, 208, 209, 210, 211, 212, 213, 214, 215, 216, 217, 218, 219, 220, 221, 222, 223, 224, 225, 226, 227, 228, 229, 230, 231, 232, 233, 234, 235, 236, 237, 238, 239, 240, 241, 242, 243, 244, 245, 246, 247, 248, 249, 250, 251, 252, 253, 254, 255, 256, 257, 258, 259, 260, 261, 262, 263, 264, 265, 266, 267, 268, 269, 270, 271, 272, 273, 274, 275, 276, 277, 278, 279, 280, 281, 282, 283, 284, 285, 286, 287, 288, 289, 290, 291, 292, 293, 294, 295, 296, 297, 298, 299, 300, 301, 302, 303, 304, 305, 306, 307, 308, 309, 310, 311, 312, 313, 314, 315, 316, 317, 318, 319, 320, 321, 322, 323, 324, 325, 326, 327, 328, 329, 330, 331, 332, 333, 334, 335, 336, 337, 338, 339, 340, 341, 342, 343, 344, 345, 346, 347, 348, 349, 350, 351, 352, 353, 354, 355, 356, 357, 358, 359, 360, 361, 362, 363, 364, 365, 366, 367, 368, 369, 370, 371, 372, 373, 374, 375, 376, 377, 378, 379, 380, 381, 382, 383, 384, 385, 386, 387, 388, 389, 390, 391, 392, 393, 394, 395, 396, 397, 398, 399, 400, 401, 402, 403, 404, 405, 406, 407, 408, 409, 410, 411, 412, 413, 414, 415, 416, 417, 418, 419, 420, 421, 422, 423, 424, 425, 426, 427, 428, 429, 430, 431, 432, 433, 434, 435, 436, 437, 438, 439, 440, 441, 442, 443, 444, 445, 446, 447, 448, 449, 450, 451, 452, 453, 454, 455, 456, 457, 458, 459, 460, 461, 462, 463, 464, 465, 466, 467, 468, 469, 470, 471, 472, 473, 474, 475, 476, 477, 478, 479, 480, 481, 482, 483, 484, 485, 486, 487, 488, 489, 490, 491, 492, 493, 494, 495, 496, 497, 498, 499, 500, 501, 502, 503, 504, 505, 506, 507, 508, 509, 510, 511, 512, 513, 514, 515, 516, 517, 518, 519, 520, 521, 522, 523, 524, 525, 526, 527, 528, 529, 530, 531, 532, 533, 534, 535, 536, 537, 538, 539, 540, 541, 542, 543, 544, 545, 546, 547, 548, 549, 550, 551, 552, 553, 554, 555, 556, 557, 558, 559, 560, 561, 562, 563, 564, 565, 566, 567, 568, 569, 570, 571, 572, 573, 574, 575, 576, 577, 578, 579, 580, 581, 582, 583, 584, 585, 586, 587, 588, 589, 590, 591, 592, 593, 594, 595, 596, 597, 598, 599, 600, 601, 602, 603, 604, 605, 606, 607, 608, 609, 610, 611, 612, 613, 614, 615, 616, 617, 618, 619, 620, 621, 622, 623, 624, 625, 626, 627, 628, 629, 630, 631, 632, 633, 634, 635, 636, 637, 638, 639, 640, 641, 642, 643, 644, 645, 646, 647, 648, 649, 650, 651, 652, 653, 654, 655, 656, 657, 658, 659, 660, 661, 662, 663, 664, 665, 666, 667, 668, 669, 670, 671, 672, 673, 674, 675, 676, 677, 678, 679, 680, 681, 682, 683, 684, 685, 686, 687, 688, 689, 690, 691, 692, 693, 694, 695, 696, 697, 698, 699, 700, 701, 702, 703, 704, 705, 706, 707, 708, 709, 710, 711, 712, 713, 714, 715, 716, 717, 718, 719, 720, 721, 722, 723, 724, 725, 726, 727, 728, 729, 730, 731, 732, 733, 734, 735, 736, 737, 738, 739, 740, 741, 742, 743, 744, 745, 746, 747, 748, 749, 750, 751, 752, 753, 754, 755, 756, 757, 758, 759, 760, 761, 762, 763, 764, 765, 766, 767, 768, 769, 770, 771, 772, 773, 774, 775, 776, 777, 778, 779, 780, 781, 782, 783, 784, 785, 786, 787, 788, 789, 790, 791, 792, 793, 794, 795, 796, 797, 798, 799, 800, 801, 802, 803, 804, 805, 806, 807, 808, 809, 810, 811, 812, 813, 814, 815, 816, 817, 818, 819, 820, 821, 822, 823, 824, 825, 826, 827, 828, 829, 830, 831, 832, 833, 834, 835, 836, 837, 838, 839, 840, 841, 842, 843, 844, 845, 846, 847, 848, 849, 850, 851, 852, 853, 854, 855, 856, 857, 858, 859, 860, 861, 862, 863, 864, 865, 866, 867, 868, 869, 870, 871, 872, 873, 874, 875, 876, 877, 878, 879, 880, 881, 882, 883, 884, 885, 886, 887, 888, 889, 890, 891, 892, 893, 894, 895, 896, 897, 898, 899, 900, 901, 902, 903, 904, 905, 906, 907, 908, 909, 910, 911, 912, 913, 914, 915, 916, 917, 918, 919, 920, 921, 922, 923, 924, 925, 926, 927, 928, 929, 930, 931, 932, 933, 934, 935, 936, 937, 938, 939, 940, 941, 942, 943, 944, 945, 946, 947, 948, 949, 950, 951, 952, 953, 954, 955, 956, 957, 958, 959, 960, 961, 962, 963, 964, 965, 966, 967, 968, 969, 970, 971, 972, 973, 974, 975, 976, 977, 978, 979, 980, 981, 982, 983, 984, 985, 986, 987, 988, 989, 990, 991, 992, 993, 994, 995, 996, 997, 998, 999, 1000, 1001, 1002, 1003, 1004, 1005, 1006, 1007, 1008, 1009, 1010, 1011, 1012, 1013, 1014, 1015, 1016],
      "AcquisitionTime": ["161108.882500", "161109.342500", "161109.802500", "161110.262500", "161110.722500", "161111.182500", "161111.642500", "161112.102500", "161112.562500", "161113.022500", "161113.482500", "161113.942500", "161114.402500", "161114.862500", "161115.322500", "161115.782500", "161116.242500", "161116.702500", "161117.162500", "161117.622500", "161118.082500", "161118.542500", "161119.002500", "161119.462500", "161119.922500", "161120.382500", "161120.842500", "161121.302500", "161121.762500", "161122.222500", "161122.682500", "161123.142500", "161123.602500", "161124.062500", "161124.522500", "161124.982500", "161125.442500", "161125.902500", "161126.362500", "161126.822500", "161127.282500", "161127.742500", "161128.202500", "161128.662500", "161129.122500", "161129.582500", "161130.042500", "161130.502500", "161130.962500", "161131.422500", "161131.882500", "161132.342500", "161132.802500", "161133.262500", "161133.722500", "161134.182500", "161134.642500", "161135.102500", "161135.562500", "161136.022500", "161136.482500", "161136.942500", "161137.402500", "161137.862500", "161138.322500", "161138.782500", "161139.242500", "161139.702500", "161140.162500", "161140.622500", "161141.082500", "161141.542500", "161142.002500", "161142.462500", "161142.922500", "161143.382500", "161143.842500", "161144.302500", "161144.762500", "161145.222500", "161145.682500", "161146.142500", "161146.602500", "161147.062500", "161147.522500", "161147.982500", "161148.442500", "161148.902500", "161149.362500", "161149.822500", "161150.282500", "161150.742500", "161151.202500", "161151.662500", "161152.122500", "161152.582500", "161153.042500", "161153.502500", "161153.962500", "161154.422500", "161154.882500", "161155.342500", "161155.802500", "161156.262500", "161156.722500", "161157.182500", "161157.642500", "161158.102500", "161158.562500", "161159.022500", "161159.482500", "161159.942500", "161200.402500", "161200.862500", "161201.322500", "161201.782500", "161202.242500", "161202.702500", "161203.162500", "161203.622500", "161204.082500", "161204.542500", "161205.002500", "161205.462500", "161205.922500", "161206.382500", "161206.842500", "161207.302500", "161207.762500", "161208.222500", "161208.682500", "161209.142500", "161209.602500", "161210.062500", "161210.522500", "161210.982500", "161211.442500", "161211.902500", "161212.362500", "161212.822500", "161213.282500", "161213.742500", "161214.202500", "161214.662500", "161215.122500", "161215.582500", "161216.042500", "161216.502500", "161216.962500", "161217.422500", "161217.882500", "161218.342500", "161218.802500", "161219.262500", "161219.722500", "161220.182500", "161220.642500", "161221.102500", "161221.562500", "161222.022500", "161222.482500", "161222.942500", "161223.402500", "161223.862500", "161224.322500", "161224.782500", "161225.242500", "161225.702500", "161226.162500", "161226.622500", "161227.082500", "161227.542500", "161228.002500", "161228.462500", "161228.922500", "161229.382500", "161229.842500", "161230.302500", "161230.762500", "161231.222500", "161231.682500", "161232.142500", "161232.602500", "161233.062500", "161233.522500", "161233.982500", "161234.442500", "161234.902500", "161235.362500", "161235.822500", "161236.282500", "161236.742500", "161237.202500", "161237.662500", "161238.122500", "161238.582500", "161239.042500", "161239.502500", "161239.962500", "161240.422500", "161240.882500", "161241.342500", "161241.802500", "161242.262500", "161242.722500", "161243.182500", "161243.642500", "161244.102500", "161244.562500", "161245.022500", "161245.482500", "161245.942500", "161246.402500", "161246.862500", "161247.322500", "161247.782500", "161248.242500", "161248.702500", "161249.162500", "161249.622500", "161250.082500", "161250.542500", "161251.002500", "161251.462500", "161251.922500", "161252.382500", "161252.842500", "161253.302500", "161253.762500", "161254.222500", "161254.682500", "161255.142500", "161255.602500", "161256.062500", "161256.522500", "161256.982500", "161257.442500", "161257.902500", "161258.362500", "161258.822500", "161259.282500", "161259.742500", "161300.202500", "161300.662500", "161301.122500", "161301.582500", "161302.042500", "161302.502500", "161302.962500", "161303.422500", "161303.882500", "161304.342500", "161304.802500", "161305.262500", "161305.722500", "161306.182500", "161306.642500", "161307.102500", "161307.562500", "161308.022500", "161308.482500", "161308.942500", "161309.402500", "161309.862500", "161310.322500", "161310.782500", "161311.242500", "161311.702500", "161312.162500", "161312.622500", "161313.082500", "161313.542500", "161314.002500", "161314.462500", "161314.922500", "161315.382500", "161315.842500", "161316.302500", "161316.762500", "161317.222500", "161317.682500", "161318.142500", "161318.602500", "161319.062500", "161319.522500", "161319.982500", "161320.442500", "161320.902500", "161321.362500", "161321.822500", "161322.282500", "161322.742500", "161323.202500", "161323.662500", "161324.122500", "161324.582500", "161325.042500", "161325.502500", "161325.962500", "161326.422500", "161326.882500", "161327.342500", "161327.802500", "161328.262500", "161328.722500", "161329.182500", "161329.642500", "161330.102500", "161330.562500", "161331.022500", "161331.482500", "161331.942500", "161332.402500", "161332.862500", "161333.322500", "161333.782500", "161334.242500", "161334.702500", "161335.162500", "161335.622500", "161336.082500", "161336.542500", "161337.002500", "161337.462500", "161337.922500", "161338.382500", "161338.842500", "161339.302500", "161339.762500", "161340.222500", "161340.682500", "161341.142500", "161341.602500", "161342.062500", "161342.522500", "161342.982500", "161343.442500", "161343.902500", "161344.362500", "161344.822500", "161345.282500", "161345.742500", "161346.202500", "161346.662500", "161347.122500", "161347.582500", "161348.042500", "161348.502500", "161348.962500", "161349.422500", "161349.882500", "161350.342500", "161350.802500", "161351.262500", "161351.722500", "161352.182500", "161352.642500", "161353.102500", "161353.562500", "161354.022500", "161354.482500", "161354.942500", "161355.402500", "161355.862500", "161356.322500", "161356.782500", "161357.242500", "161357.702500", "161358.162500", "161358.622500", "161359.082500", "161359.542500", "161400.002500", "161400.462500", "161400.922500", "161401.382500", "161401.842500", "161402.302500", "161402.762500", "161403.222500", "161403.682500", "161404.142500", "161404.602500", "161405.062500", "161405.522500", "161405.982500", "161406.442500", "161406.902500", "161407.362500", "161407.822500", "161408.282500", "161408.742500", "161409.202500", "161409.662500", "161410.122500", "161410.582500", "161411.042500", "161411.502500", "161411.962500", "161412.422500", "161412.882500", "161413.342500", "161413.802500", "161414.262500", "161414.722500", "161415.182500", "161415.642500", "161416.102500", "161416.562500", "161417.022500", "161417.482500", "161417.942500", "161418.402500", "161418.862500", "161419.322500", "161419.782500", "161420.242500", "161420.702500", "161421.162500", "161421.622500", "161422.082500", "161422.542500", "161423.002500", "161423.462500", "161423.922500", "161424.382500", "161424.842500", "161425.302500", "161425.762500", "161426.222500", "161426.682500", "161427.142500", "161427.602500", "161428.062500", "161428.522500", "161428.982500", "161429.442500", "161429.902500", "161430.362500", "161430.822500", "161431.282500", "161431.742500", "161432.202500", "161432.662500", "161433.122500", "161433.582500", "161434.042500", "161434.502500", "161434.962500", "161435.422500", "161435.882500", "161436.342500", "161436.802500", "161437.262500", "161437.722500", "161438.182500", "161438.642500", "161439.102500", "161439.562500", "161440.022500", "161440.482500", "161440.942500", "161441.402500", "161441.862500", "161442.322500", "161442.782500", "161443.242500", "161443.702500", "161444.162500", "161444.622500", "161445.082500", "161445.542500", "161446.002500", "161446.462500", "161446.922500", "161447.382500", "161447.842500", "161448.302500", "161448.762500", "161449.222500", "161449.682500", "161450.142500", "161450.602500", "161451.062500", "161451.522500", "161451.982500", "161452.442500", "161452.902500", "161453.362500", "161453.822500", "161454.282500", "161454.742500", "161455.202500", "161455.662500", "161456.122500", "161456.582500", "161457.042500", "161457.502500", "161457.962500", "161458.422500", "161458.882500", "161459.342500", "161459.802500", "161500.262500", "161500.722500", "161501.182500", "161501.642500", "161502.102500", "161502.562500", "161503.022500", "161503.482500", "161503.942500", "161504.402500", "161504.862500", "161505.322500", "161505.782500", "161506.242500", "161506.702500", "161507.162500", "161507.622500", "161508.082500", "161508.542500", "161509.002500", "161509.462500", "161509.922500", "161510.382500", "161510.842500", "161511.302500", "161511.762500", "161512.222500", "161512.682500", "161513.142500", "161513.602500", "161514.062500", "161514.522500", "161514.982500", "161515.442500", "161515.902500", "161516.362500", "161516.822500", "161517.282500", "161517.742500", "161518.202500", "161518.662500", "161519.122500", "161519.582500", "161520.042500", "161520.502500", "161520.962500", "161521.422500", "161521.882500", "161522.342500", "161522.802500", "161523.262500", "161523.722500", "161524.182500", "161524.642500", "161525.102500", "161525.562500", "161526.022500", "161526.482500", "161526.942500", "161527.402500", "161527.862500", "161528.322500", "161528.782500", "161529.242500", "161529.702500", "161530.162500", "161530.622500", "161531.082500", "161531.542500", "161532.002500", "161532.462500", "161532.922500", "161533.382500", "161533.842500", "161534.302500", "161534.762500", "161535.222500", "161535.682500", "161536.142500", "161536.602500", "161537.062500", "161537.522500", "161537.982500", "161538.442500", "161538.902500", "161539.362500", "161539.822500", "161540.282500", "161540.742500", "161541.202500", "161541.662500", "161542.122500", "161542.582500", "161543.042500", "161543.502500", "161543.962500", "161544.422500", "161544.882500", "161545.342500", "161545.802500", "161546.262500", "161546.722500", "161547.182500", "161547.642500", "161548.102500", "161548.562500", "161549.022500", "161549.482500", "161549.942500", "161550.402500", "161550.862500", "161551.322500", "161551.782500", "161552.242500", "161552.702500", "161553.162500", "161553.622500", "161554.082500", "161554.542500", "161555.002500", "161555.462500", "161555.922500", "161556.382500", "161556.842500", "161557.302500", "161557.762500", "161558.222500", "161558.682500", "161559.142500", "161559.602500", "161600.062500", "161600.522500", "161600.982500", "161601.442500", "161601.902500", "161602.362500", "161602.822500", "161603.282500", "161603.742500", "161604.202500", "161604.662500", "161605.122500", "161605.582500", "161606.042500", "161606.502500", "161606.962500", "161607.422500", "161607.882500", "161608.342500", "161608.802500", "161609.262500", "161609.722500", "161610.182500", "161610.642500", "161611.102500", "161611.562500", "161612.022500", "161612.482500", "161612.942500", "161613.402500", "161613.862500", "161614.322500", "161614.782500", "161615.242500", "161615.702500", "161616.162500", "161616.622500", "161617.082500", "161617.542500", "161618.002500", "161618.462500", "161618.922500", "161619.382500", "161619.842500", "161620.302500", "161620.762500", "161621.222500", "161621.682500", "161622.142500", "161622.602500", "161623.062500", "161623.522500", "161623.982500", "161624.442500", "161624.902500", "161625.362500", "161625.822500", "161626.282500", "161626.742500", "161627.202500", "161627.662500", "161628.122500", "161628.582500", "161629.042500", "161629.502500", "161629.962500", "161630.422500", "161630.882500", "161631.342500", "161631.802500", "161632.262500", "161632.722500", "161633.182500", "161633.642500", "161634.102500", "161634.562500", "161635.022500", "161635.482500", "161635.942500", "161636.402500", "161636.862500", "161637.322500", "161637.782500", "161638.242500", "161638.702500", "161639.162500", "161639.622500", "161640.082500", "161640.542500", "161641.002500", "161641.462500", "161641.922500", "161642.382500", "161642.842500", "161643.302500", "161643.762500", "161644.222500", "161644.682500", "161645.142500", "161645.602500", "161646.062500", "161646.522500", "161646.982500", "161647.442500", "161647.902500", "161648.362500", "161648.822500", "161649.282500", "161649.742500", "161650.202500", "161650.662500", "161651.122500", "161651.582500", "161652.042500", "161652.502500", "161652.962500", "161653.422500", "161653.882500", "161654.342500", "161654.802500", "161655.262500", "161655.722500", "161656.182500", "161656.642500", "161657.102500", "161657.562500", "161658.022500", "161658.482500", "161658.942500", "161659.402500", "161659.862500", "161700.322500", "161700.782500", "161701.242500", "161701.702500", "161702.162500", "161702.622500", "161703.082500", "161703.542500", "161704.002500", "161704.462500", "161704.922500", "161705.382500", "161705.842500", "161706.302500", "161706.762500", "161707.222500", "161707.682500", "161708.142500", "161708.602500", "161709.062500", "161709.522500", "161709.982500", "161710.442500", "161710.902500", "161711.362500", "161711.822500", "161712.282500", "161712.742500", "161713.202500", "161713.662500", "161714.122500", "161714.582500", "161715.042500", "161715.502500", "161715.962500", "161716.422500", "161716.882500", "161717.342500", "161717.802500", "161718.262500", "161718.722500", "161719.182500", "161719.642500", "161720.102500", "161720.562500", "161721.022500", "161721.482500", "161721.942500", "161722.402500", "161722.862500", "161723.322500", "161723.782500", "161724.242500", "161724.702500", "161725.162500", "161725.622500", "161726.082500", "161726.542500", "161727.002500", "161727.462500", "161727.922500", "161728.382500", "161728.842500", "161729.302500", "161729.762500", "161730.222500", "161730.682500", "161731.142500", "161731.602500", "161732.062500", "161732.522500", "161732.982500", "161733.442500", "161733.902500", "161734.362500", "161734.822500", "161735.282500", "161735.742500", "161736.202500", "161736.662500", "161737.122500", "161737.582500", "161738.042500", "161738.502500", "161738.962500", "161739.422500", "161739.882500", "161740.342500", "161740.802500", "161741.262500", "161741.722500", "161742.182500", "161742.642500", "161743.102500", "161743.562500", "161744.022500", "161744.482500", "161744.942500", "161745.402500", "161745.862500", "161746.322500", "161746.782500", "161747.242500", "161747.702500", "161748.162500", "161748.622500", "161749.082500", "161749.542500", "161750.002500", "161750.462500", "161750.922500", "161751.382500", "161751.842500", "161752.302500", "161752.762500", "161753.222500", "161753.682500", "161754.142500", "161754.602500", "161755.062500", "161755.522500", "161755.982500", "161756.442500", "161756.902500", "161757.362500", "161757.822500", "161758.282500", "161758.742500", "161759.202500", "161759.662500", "161800.122500", "161800.582500", "161801.042500", "161801.502500", "161801.962500", "161802.422500", "161802.882500", "161803.342500", "161803.802500", "161804.262500", "161804.722500", "161805.182500", "161805.642500", "161806.102500", "161806.562500", "161807.022500", "161807.482500", "161807.942500", "161808.402500", "161808.862500", "161809.322500", "161809.782500", "161810.242500", "161810.702500", "161811.162500", "161811.622500", "161812.082500", "161812.542500", "161813.002500", "161813.462500", "161813.922500", "161814.382500", "161814.842500", "161815.302500", "161815.762500", "161816.222500", "161816.682500", "161817.142500", "161817.602500", "161818.062500", "161818.522500", "161818.982500", "161819.442500", "161819.902500", "161820.362500", "161820.822500", "161821.282500", "161821.742500", "161822.202500", "161822.662500", "161823.122500", "161823.582500", "161824.042500", "161824.502500", "161824.962500", "161825.422500", "161825.882500", "161826.342500", "161826.802500", "161827.262500", "161827.722500", "161828.182500", "161828.642500", "161829.102500", "161829.562500", "161830.022500", "161830.482500", "161830.942500", "161831.402500", "161831.862500", "161832.322500", "161832.782500", "161833.242500", "161833.702500", "161834.162500", "161834.622500", "161835.082500", "161835.542500", "161836.002500", "161836.462500", "161836.922500", "161837.382500", "161837.842500", "161838.302500", "161838.762500", "161839.222500", "161839.682500", "161840.142500", "161840.602500", "161841.062500", "161841.522500", "161841.982500", "161842.442500", "161842.902500", "161843.362500", "161843.822500", "161844.282500", "161844.742500", "161845.202500", "161845.662500", "161846.122500", "161846.582500", "161847.042500", "161847.502500", "161847.962500", "161848.422500", "161848.882500", "161849.342500", "161849.802500", "161850.262500", "161850.722500", "161851.182500", "161851.642500", "161852.102500", "161852.562500", "161853.022500", "161853.482500", "161853.942500", "161854.402500", "161854.862500", "161855.322500", "161855.782500"],
