{
  "AcquisitionMatrixPE": 82,
  "AcquisitionNumber": 1,
  "AcquisitionTime": "15:40:36.045000",
  "BandwidthPerPixelPhaseEncode": 24.888,
  "BaseResolution": 82,
  "BodyPartExamined": "BRAIN",
  "ConsistencyInfo": "N4_VE11C_LATEST_20160120",
  "ConversionSoftware": "dcm2niix",
  "ConversionSoftwareVersion": "v1.0.20201102",
  "DerivedVendorReportedEchoSpacing": 0.00049,
  "DeviceSerialNumber": "66112",
  "DwellTime": 2e-06,
  "EchoTime": 0.0272,
  "EchoTrainLength": 82,
  "EffectiveEchoSpacing": 0.00049,
  "FlipAngle": 44,
  "ImageComments": "Unaliased MB8/PE3",
  "ImageOrientationPatientDICOM": [0.99916, 0.037949, -0.0154846, -0.0392571, 0.994662, -0.0954243],
  "ImageType": [
    "ORIGINAL",
    "PRIMARY",
    "M",
    "MB",
    "ND",
    "NORM",
    "MOSAIC"
],
  "ImagingFrequency": 123.252,
  "InPlanePhaseEncodingDirectionDICOM": "COL",
  "InstitutionAddress": "Maynard 3,Hanover,NH,US,03755",
  "InstitutionName": "Dartmouth College - PBS",
  "InstitutionalDepartmentName": "Department",
  "MRAcquisitionType": "2D",
  "MagneticFieldStrength": 3,
  "Manufacturer": "Siemens",
  "ManufacturersModelName": "Prisma",
  "Modality": "MR",
  "MultibandAccelerationFactor": 8,
  "PartialFourier": 1,
  "PatientPosition": "HFS",
  "PercentPhaseFOV": 100,
  "PercentSampling": 100,
  "PhaseEncodingDirection": "j-",
  "PhaseEncodingSteps": 82,
  "PhaseResolution": 1,
  "PixelBandwidth": 3050,
  "ProcedureStepDescription": "Wager_Wager^1076_spacetop",
  "ProtocolName": "func_run-06_task-social_acq-ap-mb8",
  "PulseSequenceDetails": "%CustomerSeq%\\cmrr_mbep2d_bold",
  "ReceiveCoilActiveElements": "HEA;HEP",
  "ReceiveCoilName": "Head_32",
  "ReconMatrixPE": 82,
  "RepetitionTime": 0.46,
  "SAR": 0.100924,
  "ScanOptions": "FS",
  "ScanningSequence": "EP",
  "SequenceName": "epfid2d1_82",
  "SequenceVariant": "SK\\SS",
  "SeriesDescription": "func_run-06_task-social_acq-ap-mb8",
  "SeriesNumber": 22,
  "ShimSetting": [4130, -7791, -7244, 580, -57, -265, 47, 87],
  "SliceThickness": 2.7,
  "SliceTiming": [0, 0.2525, 0.0625, 0.315, 0.125, 0.3775, 0.1875, 0, 0.2525, 0.0625, 0.315, 0.125, 0.3775, 0.1875, 0, 0.2525, 0.0625, 0.315, 0.125, 0.3775, 0.1875, 0, 0.2525, 0.0625, 0.315, 0.125, 0.3775, 0.1875, 0, 0.2525, 0.0625, 0.315, 0.125, 0.3775, 0.1875, 0, 0.2525, 0.0625, 0.315, 0.125, 0.3775, 0.1875, 0, 0.2525, 0.0625, 0.315, 0.125, 0.3775, 0.1875, 0, 0.2525, 0.0625, 0.315, 0.125, 0.3775, 0.1875],
  "SoftwareVersions": "syngo MR E11",
  "SpacingBetweenSlices": 2.7,
  "StationName": "AWP66112",
  "TaskName": "social",
  "TotalReadoutTime": 0.03969,
  "TxRefAmp": 251.699,
  "WipMemBlock": "5eb835ae-8b07-495e-92d8-f59ea33a01ff||Sequence: R016 ve11c/master r/e634e98; Dec 19 2017 11:00:25 by eja",
  "dcmmeta_affine": [
    [-2.6806724071502686, -0.10532385110855103, -0.03180789202451706, 116.67813873291016],
    [-0.10181448608636856, 2.6686062812805176, -0.259070485830307, -79.74855041503906],
    [-0.04154408723115921, 0.2560165226459503, 2.6873538494110107, -81.39044189453125],
    [0.0, 0.0, 0.0, 1.0]
],
  "dcmmeta_reorient_transform": [
    [0.0, -1.0, 0.0, 81.0],
    [1.0, 0.0, 0.0, 0.0],
    [0.0, 0.0, 1.0, 0.0],
    [0.0, 0.0, 0.0, 1.0]
],
  "dcmmeta_shape": [82, 82, 56, 872],
  "dcmmeta_slice_dim": 2,
  "dcmmeta_version": 0.6,
  "global": {
    "const": {
      "AccessionNumber": "A003793",
      "AcquisitionMatrix": [82, 0, 0, 82],
      "AngioFlag": "N",
      "BitsAllocated": 16,
      "BitsStored": 16,
      "BodyPartExamined": "BRAIN",
      "Columns": 656,
      "EchoNumbers": 1,
      "EchoTime": 27.2,
      "EchoTrainLength": 82,
      "FlipAngle": 44.0,
      "HighBit": 15,
      "ImageOrientationPatient": [0.99915969565917, 0.03794903570883, -0.0154846136228, -0.0392570717698, 0.99466229358198, -0.0954243367402],
      "ImagePositionPatient": [-847.27194754178, -931.5192938549, 24.746790267487],
      "ImageType": [
        "ORIGINAL",
        "PRIMARY",
        "M",
        "MB",
        "ND",
        "NORM",
        "MOSAIC"
],
      "ImagedNucleus": "1H",
      "ImagingFrequency": 123.252212,
      "InPlanePhaseEncodingDirection": "COL",
      "MRAcquisitionType": "2D",
      "MagneticFieldStrength": 3.0,
      "Manufacturer": "SIEMENS",
      "ManufacturerModelName": "Prisma",
      "Modality": "MR",
      "NumberOfAverages": 1.0,
      "NumberOfPhaseEncodingSteps": 82,
      "PercentPhaseFieldOfView": 100.0,
      "PercentSampling": 100.0,
      "PerformedProcedureStepStartTime": "143343.482000",
      "PhotometricInterpretation": "MONOCHROME2",
      "PixelBandwidth": 3050.0,
      "PixelRepresentation": 0,
      "PixelSpacing": [2.6829268932343, 2.6829268932343],
      "ProtocolName": "func_run-06_task-social_acq-ap-mb8",
      "RepetitionTime": 460.0,
      "Rows": 656,
      "SAR": 0.10092405592948,
      "SamplesPerPixel": 1,
      "ScanOptions": "FS",
      "ScanningSequence": "EP",
      "SequenceName": "epfid2d1_82",
      "SequenceVariant": [
        "SK",
        "SS"
],
      "SeriesDescription": "func_run-06_task-social_acq-ap-mb8",
      "SeriesNumber": 22,
      "SeriesTime": "154106.129000",
      "SliceLocation": -74.731743054121,
      "SliceThickness": 2.7000000476837,
      "SmallestImagePixelValue": 0,
      "SoftwareVersions": "syngo MR E11",
      "SpacingBetweenSlices": 2.7000000746012,
      "SpecificCharacterSet": "ISO_IR 100",
      "StudyID": "1",
      "StudyTime": "143343.428000",
      "TransmitCoilName": "Body",
      "VariableFlipAngleFlag": "N",
      "WindowCenterWidthExplanation": "Algo1",
      "dBdt": 0.0},
    "slices": {}
  },
  "time": {
    "samples": {
      "AcquisitionNumber": [1, 2, 3, 4, 5, 6, 7, 8, 9, 10, 11, 12, 13, 14, 15, 16, 17, 18, 19, 20, 21, 22, 23, 24, 25, 26, 27, 28, 29, 30, 31, 32, 33, 34, 35, 36, 37, 38, 39, 40, 41, 42, 43, 44, 45, 46, 47, 48, 49, 50, 51, 52, 53, 54, 55, 56, 57, 58, 59, 60, 61, 62, 63, 64, 65, 66, 67, 68, 69, 70, 71, 72, 73, 74, 75, 76, 77, 78, 79, 80, 81, 82, 83, 84, 85, 86, 87, 88, 89, 90, 91, 92, 93, 94, 95, 96, 97, 98, 99, 100, 101, 102, 103, 104, 105, 106, 107, 108, 109, 110, 111, 112, 113, 114, 115, 116, 117, 118, 119, 120, 121, 122, 123, 124, 125, 126, 127, 128, 129, 130, 131, 132, 133, 134, 135, 136, 137, 138, 139, 140, 141, 142, 143, 144, 145, 146, 147, 148, 149, 150, 151, 152, 153, 154, 155, 156, 157, 158, 159, 160, 161, 162, 163, 164, 165, 166, 167, 168, 169, 170, 171, 172, 173, 174, 175, 176, 177, 178, 179, 180, 181, 182, 183, 184, 185, 186, 187, 188, 189, 190, 191, 192, 193, 194, 195, 196, 197, 198, 199, 200, 201, 202, 203, 204, 205, 206, 207, 208, 209, 210, 211, 212, 213, 214, 215, 216, 217, 218, 219, 220, 221, 222, 223, 224, 225, 226, 227, 228, 229, 230, 231, 232, 233, 234, 235, 236, 237, 238, 239, 240, 241, 242, 243, 244, 245, 246, 247, 248, 249, 250, 251, 252, 253, 254, 255, 256, 257, 258, 259, 260, 261, 262, 263, 264, 265, 266, 267, 268, 269, 270, 271, 272, 273, 274, 275, 276, 277, 278, 279, 280, 281, 282, 283, 284, 285, 286, 287, 288, 289, 290, 291, 292, 293, 294, 295, 296, 297, 298, 299, 300, 301, 302, 303, 304, 305, 306, 307, 308, 309, 310, 311, 312, 313, 314, 315, 316, 317, 318, 319, 320, 321, 322, 323, 324, 325, 326, 327, 328, 329, 330, 331, 332, 333, 334, 335, 336, 337, 338, 339, 340, 341, 342, 343, 344, 345, 346, 347, 348, 349, 350, 351, 352, 353, 354, 355, 356, 357, 358, 359, 360, 361, 362, 363, 364, 365, 366, 367, 368, 369, 370, 371, 372, 373, 374, 375, 376, 377, 378, 379, 380, 381, 382, 383, 384, 385, 386, 387, 388, 389, 390, 391, 392, 393, 394, 395, 396, 397, 398, 399, 400, 401, 402, 403, 404, 405, 406, 407, 408, 409, 410, 411, 412, 413, 414, 415, 416, 417, 418, 419, 420, 421, 422, 423, 424, 425, 426, 427, 428, 429, 430, 431, 432, 433, 434, 435, 436, 437, 438, 439, 440, 441, 442, 443, 444, 445, 446, 447, 448, 449, 450, 451, 452, 453, 454, 455, 456, 457, 458, 459, 460, 461, 462, 463, 464, 465, 466, 467, 468, 469, 470, 471, 472, 473, 474, 475, 476, 477, 478, 479, 480, 481, 482, 483, 484, 485, 486, 487, 488, 489, 490, 491, 492, 493, 494, 495, 496, 497, 498, 499, 500, 501, 502, 503, 504, 505, 506, 507, 508, 509, 510, 511, 512, 513, 514, 515, 516, 517, 518, 519, 520, 521, 522, 523, 524, 525, 526, 527, 528, 529, 530, 531, 532, 533, 534, 535, 536, 537, 538, 539, 540, 541, 542, 543, 544, 545, 546, 547, 548, 549, 550, 551, 552, 553, 554, 555, 556, 557, 558, 559, 560, 561, 562, 563, 564, 565, 566, 567, 568, 569, 570, 571, 572, 573, 574, 575, 576, 577, 578, 579, 580, 581, 582, 583, 584, 585, 586, 587, 588, 589, 590, 591, 592, 593, 594, 595, 596, 597, 598, 599, 600, 601, 602, 603, 604, 605, 606, 607, 608, 609, 610, 611, 612, 613, 614, 615, 616, 617, 618, 619, 620, 621, 622, 623, 624, 625, 626, 627, 628, 629, 630, 631, 632, 633, 634, 635, 636, 637, 638, 639, 640, 641, 642, 643, 644, 645, 646, 647, 648, 649, 650, 651, 652, 653, 654, 655, 656, 657, 658, 659, 660, 661, 662, 663, 664, 665, 666, 667, 668, 669, 670, 671, 672, 673, 674, 675, 676, 677, 678, 679, 680, 681, 682, 683, 684, 685, 686, 687, 688, 689, 690, 691, 692, 693, 694, 695, 696, 697, 698, 699, 700, 701, 702, 703, 704, 705, 706, 707, 708, 709, 710, 711, 712, 713, 714, 715, 716, 717, 718, 719, 720, 721, 722, 723, 724, 725, 726, 727, 728, 729, 730, 731, 732, 733, 734, 735, 736, 737, 738, 739, 740, 741, 742, 743, 744, 745, 746, 747, 748, 749, 750, 751, 752, 753, 754, 755, 756, 757, 758, 759, 760, 761, 762, 763, 764, 765, 766, 767, 768, 769, 770, 771, 772, 773, 774, 775, 776, 777, 778, 779, 780, 781, 782, 783, 784, 785, 786, 787, 788, 789, 790, 791, 792, 793, 794, 795, 796, 797, 798, 799, 800, 801, 802, 803, 804, 805, 806, 807, 808, 809, 810, 811, 812, 813, 814, 815, 816, 817, 818, 819, 820, 821, 822, 823, 824, 825, 826, 827, 828, 829, 830, 831, 832, 833, 834, 835, 836, 837, 838, 839, 840, 841, 842, 843, 844, 845, 846, 847, 848, 849, 850, 851, 852, 853, 854, 855, 856, 857, 858, 859, 860, 861, 862, 863, 864, 865, 866, 867, 868, 869, 870, 871, 872],
      "AcquisitionTime": ["154036.045000", "154036.505000", "154036.965000", "154037.425000", "154037.885000", "154038.345000", "154038.805000", "154039.265000", "154039.725000", "154040.185000", "154040.645000", "154041.105000", "154041.565000", "154042.025000", "154042.485000", "154042.945000", "154043.405000", "154043.865000", "154044.325000", "154044.785000", "154045.245000", "154045.705000", "154046.165000", "154046.625000", "154047.085000", "154047.545000", "154048.005000", "154048.465000", "154048.925000", "154049.385000", "154049.845000", "154050.305000", "154050.765000", "154051.225000", "154051.685000", "154052.145000", "154052.605000", "154053.065000", "154053.525000", "154053.985000", "154054.445000", "154054.905000", "154055.365000", "154055.825000", "154056.285000", "154056.745000", "154057.205000", "154057.665000", "154058.125000", "154058.585000", "154059.045000", "154059.505000", "154059.965000", "154100.425000", "154100.885000", "154101.345000", "154101.805000", "154102.265000", "154102.725000", "154103.185000", "154103.645000", "154104.105000", "154104.565000", "154105.025000", "154105.485000", "154105.945000", "154106.405000", "154106.865000", "154107.325000", "154107.785000", "154108.245000", "154108.705000", "154109.165000", "154109.625000", "154110.085000", "154110.545000", "154111.005000", "154111.465000", "154111.925000", "154112.385000", "154112.845000", "154113.305000", "154113.765000", "154114.225000", "154114.685000", "154115.145000", "154115.605000", "154116.065000", "154116.525000", "154116.985000", "154117.445000", "154117.905000", "154118.365000", "154118.825000", "154119.285000", "154119.745000", "154120.205000", "154120.665000", "154121.125000", "154121.585000", "154122.045000", "154122.505000", "154122.965000", "154123.425000", "154123.885000", "154124.345000", "154124.805000", "154125.265000", "154125.725000", "154126.185000", "154126.645000", "154127.105000", "154127.565000", "154128.025000", "154128.485000", "154128.945000", "154129.405000", "154129.865000", "154130.325000", "154130.785000", "154131.245000", "154131.705000", "154132.165000", "154132.625000", "154133.085000", "154133.545000", "154134.005000", "154134.465000", "154134.925000", "154135.385000", "154135.845000", "154136.305000", "154136.765000", "154137.225000", "154137.685000", "154138.145000", "154138.605000", "154139.065000", "154139.525000", "154139.985000", "154140.445000", "154140.905000", "154141.365000", "154141.825000", "154142.285000", "154142.745000", "154143.205000", "154143.665000", "154144.125000", "154144.585000", "154145.045000", "154145.505000", "154145.965000", "154146.425000", "154146.885000", "154147.345000", "154147.805000", "154148.265000", "154148.725000", "154149.185000", "154149.645000", "154150.105000", "154150.565000", "154151.025000", "154151.485000", "154151.945000", "154152.405000", "154152.865000", "154153.325000", "154153.785000", "154154.245000", "154154.705000", "154155.165000", "154155.625000", "154156.085000", "154156.545000", "154157.005000", "154157.465000", "154157.925000", "154158.385000", "154158.845000", "154159.305000", "154159.765000", "154200.225000", "154200.685000", "154201.145000", "154201.605000", "154202.065000", "154202.525000", "154202.985000", "154203.445000", "154203.905000", "154204.365000", "154204.825000", "154205.285000", "154205.745000", "154206.205000", "154206.665000", "154207.125000", "154207.585000", "154208.045000", "154208.505000", "154208.965000", "154209.425000", "154209.885000", "154210.345000", "154210.805000", "154211.265000", "154211.725000", "154212.185000", "154212.645000", "154213.105000", "154213.565000", "154214.025000", "154214.485000", "154214.945000", "154215.405000", "154215.865000", "154216.325000", "154216.785000", "154217.245000", "154217.705000", "154218.165000", "154218.625000", "154219.085000", "154219.545000", "154220.005000", "154220.465000", "154220.925000", "154221.385000", "154221.845000", "154222.305000", "154222.765000", "154223.225000", "154223.685000", "154224.145000", "154224.605000", "154225.065000", "154225.525000", "154225.985000", "154226.445000", "154226.905000", "154227.365000", "154227.825000", "154228.285000", "154228.745000", "154229.205000", "154229.665000", "154230.125000", "154230.585000", "154231.045000", "154231.505000", "154231.965000", "154232.425000", "154232.885000", "154233.345000", "154233.805000", "154234.265000", "154234.725000", "154235.185000", "154235.645000", "154236.105000", "154236.565000", "154237.025000", "154237.485000", "154237.945000", "154238.405000", "154238.865000", "154239.325000", "154239.785000", "154240.245000", "154240.705000", "154241.165000", "154241.625000", "154242.085000", "154242.545000", "154243.005000", "154243.465000", "154243.925000", "154244.385000", "154244.845000", "154245.305000", "154245.765000", "154246.225000", "154246.685000", "154247.145000", "154247.605000", "154248.065000", "154248.525000", "154248.985000", "154249.445000", "154249.905000", "154250.365000", "154250.825000", "154251.285000", "154251.745000", "154252.205000", "154252.665000", "154253.125000", "154253.585000", "154254.045000", "154254.505000", "154254.965000", "154255.425000", "154255.885000", "154256.345000", "154256.805000", "154257.265000", "154257.725000", "154258.185000", "154258.645000", "154259.105000", "154259.565000", "154300.025000", "154300.485000", "154300.945000", "154301.405000", "154301.865000", "154302.325000", "154302.785000", "154303.245000", "154303.705000", "154304.165000", "154304.625000", "154305.085000", "154305.545000", "154306.005000", "154306.465000", "154306.925000", "154307.385000", "154307.845000", "154308.305000", "154308.765000", "154309.225000", "154309.685000", "154310.145000", "154310.605000", "154311.065000", "154311.525000", "154311.985000", "154312.445000", "154312.905000", "154313.365000", "154313.825000", "154314.285000", "154314.745000", "154315.205000", "154315.665000", "154316.125000", "154316.585000", "154317.045000", "154317.505000", "154317.965000", "154318.425000", "154318.885000", "154319.345000", "154319.805000", "154320.265000", "154320.725000", "154321.185000", "154321.645000", "154322.105000", "154322.565000", "154323.025000", "154323.485000", "154323.945000", "154324.405000", "154324.865000", "154325.325000", "154325.785000", "154326.245000", "154326.705000", "154327.165000", "154327.625000", "154328.085000", "154328.545000", "154329.005000", "154329.465000", "154329.925000", "154330.385000", "154330.845000", "154331.305000", "154331.765000", "154332.225000", "154332.685000", "154333.145000", "154333.605000", "154334.065000", "154334.525000", "154334.985000", "154335.445000", "154335.905000", "154336.365000", "154336.825000", "154337.285000", "154337.745000", "154338.205000", "154338.665000", "154339.125000", "154339.585000", "154340.045000", "154340.505000", "154340.965000", "154341.425000", "154341.885000", "154342.345000", "154342.805000", "154343.265000", "154343.725000", "154344.185000", "154344.645000", "154345.105000", "154345.565000", "154346.025000", "154346.485000", "154346.945000", "154347.405000", "154347.865000", "154348.325000", "154348.785000", "154349.245000", "154349.705000", "154350.165000", "154350.625000", "154351.085000", "154351.545000", "154352.005000", "154352.465000", "154352.925000", "154353.385000", "154353.845000", "154354.305000", "154354.765000", "154355.225000", "154355.685000", "154356.145000", "154356.605000", "154357.065000", "154357.525000", "154357.985000", "154358.445000", "154358.905000", "154359.365000", "154359.825000", "154400.285000", "154400.745000", "154401.205000", "154401.665000", "154402.125000", "154402.585000", "154403.045000", "154403.505000", "154403.965000", "154404.425000", "154404.885000", "154405.345000", "154405.805000", "154406.265000", "154406.725000", "154407.185000", "154407.645000", "154408.105000", "154408.565000", "154409.025000", "154409.485000", "154409.945000", "154410.405000", "154410.865000", "154411.325000", "154411.785000", "154412.245000", "154412.705000", "154413.165000", "154413.625000", "154414.085000", "154414.545000", "154415.005000", "154415.465000", "154415.925000", "154416.385000", "154416.845000", "154417.305000", "154417.765000", "154418.225000", "154418.685000", "154419.145000", "154419.605000", "154420.065000", "154420.525000", "154420.985000", "154421.445000", "154421.905000", "154422.365000", "154422.825000", "154423.285000", "154423.745000", "154424.205000", "154424.665000", "154425.125000", "154425.585000", "154426.045000", "154426.505000", "154426.965000", "154427.425000", "154427.885000", "154428.345000", "154428.805000", "154429.265000", "154429.725000", "154430.185000", "154430.645000", "154431.105000", "154431.565000", "154432.025000", "154432.485000", "154432.945000", "154433.405000", "154433.865000", "154434.325000", "154434.785000", "154435.245000", "154435.705000", "154436.165000", "154436.625000", "154437.085000", "154437.545000", "154438.005000", "154438.465000", "154438.925000", "154439.385000", "154439.845000", "154440.305000", "154440.765000", "154441.225000", "154441.685000", "154442.145000", "154442.605000", "154443.065000", "154443.525000", "154443.985000", "154444.445000", "154444.905000", "154445.365000", "154445.825000", "154446.285000", "154446.745000", "154447.205000", "154447.665000", "154448.125000", "154448.585000", "154449.045000", "154449.505000", "154449.965000", "154450.425000", "154450.885000", "154451.345000", "154451.805000", "154452.265000", "154452.725000", "154453.185000", "154453.645000", "154454.105000", "154454.565000", "154455.025000", "154455.485000", "154455.945000", "154456.405000", "154456.865000", "154457.325000", "154457.785000", "154458.245000", "154458.705000", "154459.165000", "154459.625000", "154500.085000", "154500.545000", "154501.005000", "154501.465000", "154501.925000", "154502.385000", "154502.845000", "154503.305000", "154503.765000", "154504.225000", "154504.685000", "154505.145000", "154505.605000", "154506.065000", "154506.525000", "154506.985000", "154507.445000", "154507.905000", "154508.365000", "154508.825000", "154509.285000", "154509.745000", "154510.205000", "154510.665000", "154511.125000", "154511.585000", "154512.045000", "154512.505000", "154512.965000", "154513.425000", "154513.885000", "154514.345000", "154514.805000", "154515.265000", "154515.725000", "154516.185000", "154516.645000", "154517.105000", "154517.565000", "154518.025000", "154518.485000", "154518.945000", "154519.405000", "154519.865000", "154520.325000", "154520.785000", "154521.245000", "154521.705000", "154522.165000", "154522.625000", "154523.085000", "154523.545000", "154524.005000", "154524.465000", "154524.925000", "154525.385000", "154525.845000", "154526.305000", "154526.765000", "154527.225000", "154527.685000", "154528.145000", "154528.605000", "154529.065000", "154529.525000", "154529.985000", "154530.445000", "154530.905000", "154531.365000", "154531.825000", "154532.285000", "154532.745000", "154533.205000", "154533.665000", "154534.125000", "154534.585000", "154535.045000", "154535.505000", "154535.965000", "154536.425000", "154536.885000", "154537.345000", "154537.805000", "154538.265000", "154538.725000", "154539.185000", "154539.645000", "154540.105000", "154540.565000", "154541.025000", "154541.485000", "154541.945000", "154542.405000", "154542.865000", "154543.325000", "154543.785000", "154544.245000", "154544.705000", "154545.165000", "154545.625000", "154546.085000", "154546.545000", "154547.005000", "154547.465000", "154547.925000", "154548.385000", "154548.845000", "154549.305000", "154549.765000", "154550.225000", "154550.685000", "154551.145000", "154551.605000", "154552.065000", "154552.525000", "154552.985000", "154553.445000", "154553.905000", "154554.365000", "154554.825000", "154555.285000", "154555.745000", "154556.205000", "154556.665000", "154557.125000", "154557.585000", "154558.045000", "154558.505000", "154558.965000", "154559.425000", "154559.885000", "154600.345000", "154600.805000", "154601.265000", "154601.725000", "154602.185000", "154602.645000", "154603.105000", "154603.565000", "154604.025000", "154604.485000", "154604.945000", "154605.405000", "154605.865000", "154606.325000", "154606.785000", "154607.245000", "154607.705000", "154608.165000", "154608.625000", "154609.085000", "154609.545000", "154610.005000", "154610.465000", "154610.925000", "154611.385000", "154611.845000", "154612.305000", "154612.765000", "154613.225000", "154613.685000", "154614.145000", "154614.605000", "154615.065000", "154615.525000", "154615.985000", "154616.445000", "154616.905000", "154617.365000", "154617.825000", "154618.285000", "154618.745000", "154619.205000", "154619.665000", "154620.125000", "154620.585000", "154621.045000", "154621.505000", "154621.965000", "154622.425000", "154622.885000", "154623.345000", "154623.805000", "154624.265000", "154624.725000", "154625.185000", "154625.645000", "154626.105000", "154626.565000", "154627.025000", "154627.485000", "154627.945000", "154628.405000", "154628.865000", "154629.325000", "154629.785000", "154630.245000", "154630.705000", "154631.165000", "154631.625000", "154632.085000", "154632.545000", "154633.005000", "154633.465000", "154633.925000", "154634.385000", "154634.845000", "154635.305000", "154635.765000", "154636.225000", "154636.685000", "154637.145000", "154637.605000", "154638.065000", "154638.525000", "154638.985000", "154639.445000", "154639.905000", "154640.365000", "154640.825000", "154641.285000", "154641.745000", "154642.205000", "154642.665000", "154643.125000", "154643.585000", "154644.045000", "154644.505000", "154644.965000", "154645.425000", "154645.885000", "154646.345000", "154646.805000", "154647.265000", "154647.725000", "154648.185000", "154648.645000", "154649.105000", "154649.565000", "154650.025000", "154650.485000", "154650.945000", "154651.405000", "154651.865000", "154652.325000", "154652.785000", "154653.245000", "154653.705000", "154654.165000", "154654.625000", "154655.085000", "154655.545000", "154656.005000", "154656.465000", "154656.925000", "154657.385000", "154657.845000", "154658.305000", "154658.765000", "154659.225000", "154659.685000", "154700.145000", "154700.605000", "154701.065000", "154701.525000", "154701.985000", "154702.445000", "154702.905000", "154703.365000", "154703.825000", "154704.285000", "154704.745000", "154705.205000", "154705.665000", "154706.125000", "154706.585000", "154707.045000", "154707.505000", "154707.965000", "154708.425000", "154708.885000", "154709.345000", "154709.805000", "154710.265000", "154710.725000", "154711.185000", "154711.645000", "154712.105000", "154712.565000", "154713.025000", "154713.485000", "154713.945000", "154714.405000", "154714.865000", "154715.325000", "154715.785000", "154716.245000", "154716.705000"],
