{
  "AcquisitionMatrixPE": 82,
  "AcquisitionNumber": 1,
  "AcquisitionTime": "13:03:46.677500",
  "BandwidthPerPixelPhaseEncode": 24.888,
  "BaseResolution": 82,
  "BodyPartExamined": "BRAIN",
  "ConsistencyInfo": "N4_VE11E_LATEST_20181129",
  "ConversionSoftware": "dcm2niix",
  "ConversionSoftwareVersion": "v1.0.20201102",
  "DerivedVendorReportedEchoSpacing": 0.00049,
  "DeviceSerialNumber": "66112",
  "DwellTime": 2e-06,
  "EchoTime": 0.0272,
  "EchoTrainLength": 82,
  "EffectiveEchoSpacing": 0.00049,
  "FlipAngle": 44,
  "ImageComments": "Unaliased MB8/PE3",
  "ImageOrientationPatientDICOM": [0.997608, -0.015886, 0.0672746, 0.0139301, 0.999469, 0.029444],
  "ImageType": [
    "ORIGINAL",
    "PRIMARY",
    "M",
    "MB",
    "ND",
    "NORM",
    "MOSAIC"
],
  "ImagingFrequency": 123.252,
  "InPlanePhaseEncodingDirectionDICOM": "COL",
  "InstitutionAddress": "Maynard 3,Hanover,NH,US,03755",
  "InstitutionName": "Dartmouth College - PBS",
  "InstitutionalDepartmentName": "Department",
  "MRAcquisitionType": "2D",
  "MagneticFieldStrength": 3,
  "Manufacturer": "Siemens",
  "ManufacturersModelName": "Prisma",
  "Modality": "MR",
  "MultibandAccelerationFactor": 8,
  "PartialFourier": 1,
  "PatientPosition": "HFS",
  "PercentPhaseFOV": 100,
  "PercentSampling": 100,
  "PhaseEncodingDirection": "j-",
  "PhaseEncodingSteps": 82,
  "PhaseResolution": 1,
  "PixelBandwidth": 3050,
  "ProcedureStepDescription": "Wager_Wager^1076_spacetop",
  "ProtocolName": "func_run-05_task-social_acq-ap-mb8",
  "PulseSequenceDetails": "%CustomerSeq%\\cmrr_mbep2d_bold",
  "ReceiveCoilActiveElements": "HEA;HEP",
  "ReceiveCoilName": "Head_32",
  "ReconMatrixPE": 82,
  "RepetitionTime": 0.46,
  "SAR": 0.117663,
  "ScanOptions": "FS",
  "ScanningSequence": "EP",
  "SequenceName": "epfid2d1_82",
  "SequenceVariant": "SK\\SS",
  "SeriesDescription": "func_run-05_task-social_acq-ap-mb8",
  "SeriesNumber": 16,
  "ShimSetting": [4185, -7755, -7269, 438, 0, -62, 140, 41],
  "SliceThickness": 2.7,
  "SliceTiming": [0, 0.2525, 0.0625, 0.315, 0.125, 0.3775, 0.19, 0, 0.2525, 0.0625, 0.315, 0.125, 0.3775, 0.19, 0, 0.2525, 0.0625, 0.315, 0.125, 0.3775, 0.19, 0, 0.2525, 0.0625, 0.315, 0.125, 0.3775, 0.19, 0, 0.2525, 0.0625, 0.315, 0.125, 0.3775, 0.19, 0, 0.2525, 0.0625, 0.315, 0.125, 0.3775, 0.19, 0, 0.2525, 0.0625, 0.315, 0.125, 0.3775, 0.19, 0, 0.2525, 0.0625, 0.315, 0.125, 0.3775, 0.19],
  "SoftwareVersions": "syngo MR E11",
  "SpacingBetweenSlices": 2.7,
  "StationName": "AWP66112",
  "TaskName": "social",
  "TotalReadoutTime": 0.03969,
  "TxRefAmp": 261.034,
  "WipMemBlock": "76d01dae-d8f6-44ca-b3b7-e2194e4b591e||Sequence: R016 ve11e/master r/434b28f1; Aug  7 2019 18:53:46 by eja",
  "dcmmeta_affine": [
    [-2.676509380340576, 0.037373412400484085, 0.182808056473732, 106.6148452758789],
    [0.04262106865644455, 2.6815032958984375, 0.07677837461233139, -91.77515411376953],
    [0.18049293756484985, -0.07899611443281174, 2.6927099227905273, -60.750526428222656],
    [0.0, 0.0, 0.0, 1.0]
],
  "dcmmeta_reorient_transform": [
    [0.0, -1.0, 0.0, 81.0],
    [1.0, 0.0, 0.0, 0.0],
    [0.0, 0.0, 1.0, 0.0],
    [0.0, 0.0, 0.0, 1.0]
],
  "dcmmeta_shape": [82, 82, 56, 872],
  "dcmmeta_slice_dim": 2,
  "dcmmeta_version": 0.6,
  "global": {
    "const": {
      "AccessionNumber": "A004015",
      "AcquisitionMatrix": [82, 0, 0, 82],
      "AngioFlag": "N",
      "BitsAllocated": 16,
      "BitsStored": 16,
      "BodyPartExamined": "BRAIN",
      "Columns": 656,
      "EchoNumbers": 1,
      "EchoTime": 27.2,
      "EchoTrainLength": 82,
      "FlipAngle": 44.0,
      "HighBit": 15,
      "ImageOrientationPatient": [0.99760801778666, -0.015886034195, 0.06727463686507, 0.01393009023089, 0.99946936079093, 0.02944400493007],
      "ImagePositionPatient": [-888.52645366491, -882.78578517463, -141.62256916248],
      "ImageType": [
        "ORIGINAL",
        "PRIMARY",
        "M",
        "MB",
        "ND",
        "NORM",
        "MOSAIC"
],
      "ImagedNucleus": "1H",
      "ImagingFrequency": 123.252172,
      "InPlanePhaseEncodingDirection": "COL",
      "MRAcquisitionType": "2D",
      "MagneticFieldStrength": 3.0,
      "Manufacturer": "SIEMENS",
      "ManufacturerModelName": "Prisma",
      "Modality": "MR",
      "NumberOfAverages": 1.0,
      "NumberOfPhaseEncodingSteps": 82,
      "PercentPhaseFieldOfView": 100.0,
      "PercentSampling": 100.0,
      "PerformedProcedureStepStartTime": "121031.412000",
      "PhotometricInterpretation": "MONOCHROME2",
      "PixelBandwidth": 3050.0,
      "PixelRepresentation": 0,
      "PixelSpacing": [2.6829268932343, 2.6829268932343],
      "ProtocolName": "func_run-05_task-social_acq-ap-mb8",
      "RepetitionTime": 460.0,
      "Rows": 656,
      "SAR": 0.11766250796501,
      "SamplesPerPixel": 1,
      "ScanOptions": "FS",
      "ScanningSequence": "EP",
      "SequenceName": "epfid2d1_82",
      "SequenceVariant": [
        "SK",
        "SS"
],
      "SeriesDescription": "func_run-05_task-social_acq-ap-mb8",
      "SeriesNumber": 16,
      "SeriesTime": "130355.349000",
      "SliceLocation": -55.97771829539,
      "SliceThickness": 2.7000000476837,
      "SmallestImagePixelValue": 0,
      "SoftwareVersions": "syngo MR E11",
      "SpacingBetweenSlices": 2.7000000629126,
      "SpecificCharacterSet": "ISO_IR 100",
      "StudyID": "2",
      "StudyTime": "121031.366000",
      "TransmitCoilName": "Body",
      "VariableFlipAngleFlag": "N",
      "WindowCenterWidthExplanation": "Algo1"
    },
    "slices": {}
  },
  "time": {
    "samples": {
      "AcquisitionNumber": [1, 2, 3, 4, 5, 6, 7, 8, 9, 10, 11, 12, 13, 14, 15, 16, 17, 18, 19, 20, 21, 22, 23, 24, 25, 26, 27, 28, 29, 30, 31, 32, 33, 34, 35, 36, 37, 38, 39, 40, 41, 42, 43, 44, 45, 46, 47, 48, 49, 50, 51, 52, 53, 54, 55, 56, 57, 58, 59, 60, 61, 62, 63, 64, 65, 66, 67, 68, 69, 70, 71, 72, 73, 74, 75, 76, 77, 78, 79, 80, 81, 82, 83, 84, 85, 86, 87, 88, 89, 90, 91, 92, 93, 94, 95, 96, 97, 98, 99, 100, 101, 102, 103, 104, 105, 106, 107, 108, 109, 110, 111, 112, 113, 114, 115, 116, 117, 118, 119, 120, 121, 122, 123, 124, 125, 126, 127, 128, 129, 130, 131, 132, 133, 134, 135, 136, 137, 138, 139, 140, 141, 142, 143, 144, 145, 146, 147, 148, 149, 150, 151, 152, 153, 154, 155, 156, 157, 158, 159, 160, 161, 162, 163, 164, 165, 166, 167, 168, 169, 170, 171, 172, 173, 174, 175, 176, 177, 178, 179, 180, 181, 182, 183, 184, 185, 186, 187, 188, 189, 190, 191, 192, 193, 194, 195, 196, 197, 198, 199, 200, 201, 202, 203, 204, 205, 206, 207, 208, 209, 210, 211, 212, 213, 214, 215, 216, 217, 218, 219, 220, 221, 222, 223, 224, 225, 226, 227, 228, 229, 230, 231, 232, 233, 234, 235, 236, 237, 238, 239, 240, 241, 242, 243, 244, 245, 246, 247, 248, 249, 250, 251, 252, 253, 254, 255, 256, 257, 258, 259, 260, 261, 262, 263, 264, 265, 266, 267, 268, 269, 270, 271, 272, 273, 274, 275, 276, 277, 278, 279, 280, 281, 282, 283, 284, 285, 286, 287, 288, 289, 290, 291, 292, 293, 294, 295, 296, 297, 298, 299, 300, 301, 302, 303, 304, 305, 306, 307, 308, 309, 310, 311, 312, 313, 314, 315, 316, 317, 318, 319, 320, 321, 322, 323, 324, 325, 326, 327, 328, 329, 330, 331, 332, 333, 334, 335, 336, 337, 338, 339, 340, 341, 342, 343, 344, 345, 346, 347, 348, 349, 350, 351, 352, 353, 354, 355, 356, 357, 358, 359, 360, 361, 362, 363, 364, 365, 366, 367, 368, 369, 370, 371, 372, 373, 374, 375, 376, 377, 378, 379, 380, 381, 382, 383, 384, 385, 386, 387, 388, 389, 390, 391, 392, 393, 394, 395, 396, 397, 398, 399, 400, 401, 402, 403, 404, 405, 406, 407, 408, 409, 410, 411, 412, 413, 414, 415, 416, 417, 418, 419, 420, 421, 422, 423, 424, 425, 426, 427, 428, 429, 430, 431, 432, 433, 434, 435, 436, 437, 438, 439, 440, 441, 442, 443, 444, 445, 446, 447, 448, 449, 450, 451, 452, 453, 454, 455, 456, 457, 458, 459, 460, 461, 462, 463, 464, 465, 466, 467, 468, 469, 470, 471, 472, 473, 474, 475, 476, 477, 478, 479, 480, 481, 482, 483, 484, 485, 486, 487, 488, 489, 490, 491, 492, 493, 494, 495, 496, 497, 498, 499, 500, 501, 502, 503, 504, 505, 506, 507, 508, 509, 510, 511, 512, 513, 514, 515, 516, 517, 518, 519, 520, 521, 522, 523, 524, 525, 526, 527, 528, 529, 530, 531, 532, 533, 534, 535, 536, 537, 538, 539, 540, 541, 542, 543, 544, 545, 546, 547, 548, 549, 550, 551, 552, 553, 554, 555, 556, 557, 558, 559, 560, 561, 562, 563, 564, 565, 566, 567, 568, 569, 570, 571, 572, 573, 574, 575, 576, 577, 578, 579, 580, 581, 582, 583, 584, 585, 586, 587, 588, 589, 590, 591, 592, 593, 594, 595, 596, 597, 598, 599, 600, 601, 602, 603, 604, 605, 606, 607, 608, 609, 610, 611, 612, 613, 614, 615, 616, 617, 618, 619, 620, 621, 622, 623, 624, 625, 626, 627, 628, 629, 630, 631, 632, 633, 634, 635, 636, 637, 638, 639, 640, 641, 642, 643, 644, 645, 646, 647, 648, 649, 650, 651, 652, 653, 654, 655, 656, 657, 658, 659, 660, 661, 662, 663, 664, 665, 666, 667, 668, 669, 670, 671, 672, 673, 674, 675, 676, 677, 678, 679, 680, 681, 682, 683, 684, 685, 686, 687, 688, 689, 690, 691, 692, 693, 694, 695, 696, 697, 698, 699, 700, 701, 702, 703, 704, 705, 706, 707, 708, 709, 710, 711, 712, 713, 714, 715, 716, 717, 718, 719, 720, 721, 722, 723, 724, 725, 726, 727, 728, 729, 730, 731, 732, 733, 734, 735, 736, 737, 738, 739, 740, 741, 742, 743, 744, 745, 746, 747, 748, 749, 750, 751, 752, 753, 754, 755, 756, 757, 758, 759, 760, 761, 762, 763, 764, 765, 766, 767, 768, 769, 770, 771, 772, 773, 774, 775, 776, 777, 778, 779, 780, 781, 782, 783, 784, 785, 786, 787, 788, 789, 790, 791, 792, 793, 794, 795, 796, 797, 798, 799, 800, 801, 802, 803, 804, 805, 806, 807, 808, 809, 810, 811, 812, 813, 814, 815, 816, 817, 818, 819, 820, 821, 822, 823, 824, 825, 826, 827, 828, 829, 830, 831, 832, 833, 834, 835, 836, 837, 838, 839, 840, 841, 842, 843, 844, 845, 846, 847, 848, 849, 850, 851, 852, 853, 854, 855, 856, 857, 858, 859, 860, 861, 862, 863, 864, 865, 866, 867, 868, 869, 870, 871, 872],
      "AcquisitionTime": ["130346.677500", "130347.137500", "130347.597500", "130348.057500", "130348.517500", "130348.977500", "130349.437500", "130349.897500", "130350.357500", "130350.817500", "130351.277500", "130351.737500", "130352.197500", "130352.657500", "130353.117500", "130353.577500", "130354.037500", "130354.497500", "130354.957500", "130355.417500", "130355.877500", "130356.337500", "130356.797500", "130357.257500", "130357.717500", "130358.177500", "130358.637500", "130359.097500", "130359.557500", "130400.017500", "130400.477500", "130400.937500", "130401.397500", "130401.857500", "130402.317500", "130402.777500", "130403.237500", "130403.697500", "130404.157500", "130404.617500", "130405.077500", "130405.537500", "130405.997500", "130406.457500", "130406.917500", "130407.377500", "130407.837500", "130408.297500", "130408.757500", "130409.217500", "130409.677500", "130410.137500", "130410.597500", "130411.057500", "130411.517500", "130411.977500", "130412.437500", "130412.897500", "130413.357500", "130413.817500", "130414.277500", "130414.737500", "130415.197500", "130415.657500", "130416.117500", "130416.577500", "130417.037500", "130417.497500", "130417.957500", "130418.417500", "130418.877500", "130419.337500", "130419.797500", "130420.257500", "130420.717500", "130421.177500", "130421.637500", "130422.097500", "130422.557500", "130423.017500", "130423.477500", "130423.937500", "130424.397500", "130424.857500", "130425.317500", "130425.777500", "130426.237500", "130426.697500", "130427.157500", "130427.617500", "130428.077500", "130428.537500", "130428.997500", "130429.457500", "130429.917500", "130430.377500", "130430.837500", "130431.297500", "130431.757500", "130432.217500", "130432.677500", "130433.137500", "130433.597500", "130434.057500", "130434.517500", "130434.977500", "130435.437500", "130435.897500", "130436.357500", "130436.817500", "130437.277500", "130437.737500", "130438.197500", "130438.657500", "130439.117500", "130439.577500", "130440.037500", "130440.497500", "130440.957500", "130441.417500", "130441.877500", "130442.337500", "130442.797500", "130443.257500", "130443.717500", "130444.177500", "130444.637500", "130445.097500", "130445.557500", "130446.017500", "130446.477500", "130446.937500", "130447.397500", "130447.857500", "130448.317500", "130448.777500", "130449.237500", "130449.697500", "130450.157500", "130450.617500", "130451.077500", "130451.537500", "130451.997500", "130452.457500", "130452.917500", "130453.377500", "130453.837500", "130454.297500", "130454.757500", "130455.217500", "130455.677500", "130456.137500", "130456.597500", "130457.057500", "130457.517500", "130457.977500", "130458.437500", "130458.897500", "130459.357500", "130459.817500", "130500.277500", "130500.737500", "130501.197500", "130501.657500", "130502.117500", "130502.577500", "130503.037500", "130503.497500", "130503.957500", "130504.417500", "130504.877500", "130505.337500", "130505.797500", "130506.257500", "130506.717500", "130507.177500", "130507.637500", "130508.097500", "130508.557500", "130509.017500", "130509.477500", "130509.937500", "130510.397500", "130510.857500", "130511.317500", "130511.777500", "130512.237500", "130512.697500", "130513.157500", "130513.617500", "130514.077500", "130514.537500", "130514.997500", "130515.457500", "130515.917500", "130516.377500", "130516.837500", "130517.297500", "130517.757500", "130518.217500", "130518.677500", "130519.137500", "130519.597500", "130520.057500", "130520.517500", "130520.977500", "130521.437500", "130521.897500", "130522.357500", "130522.817500", "130523.277500", "130523.737500", "130524.197500", "130524.657500", "130525.117500", "130525.577500", "130526.037500", "130526.497500", "130526.957500", "130527.417500", "130527.877500", "130528.337500", "130528.797500", "130529.257500", "130529.717500", "130530.177500", "130530.637500", "130531.097500", "130531.557500", "130532.017500", "130532.477500", "130532.937500", "130533.397500", "130533.857500", "130534.317500", "130534.777500", "130535.237500", "130535.697500", "130536.157500", "130536.617500", "130537.077500", "130537.537500", "130537.997500", "130538.457500", "130538.917500", "130539.377500", "130539.837500", "130540.297500", "130540.757500", "130541.217500", "130541.677500", "130542.137500", "130542.597500", "130543.057500", "130543.517500", "130543.977500", "130544.437500", "130544.897500", "130545.357500", "130545.817500", "130546.277500", "130546.737500", "130547.197500", "130547.657500", "130548.117500", "130548.577500", "130549.037500", "130549.497500", "130549.957500", "130550.417500", "130550.877500", "130551.337500", "130551.797500", "130552.257500", "130552.717500", "130553.177500", "130553.637500", "130554.097500", "130554.557500", "130555.017500", "130555.477500", "130555.937500", "130556.397500", "130556.857500", "130557.317500", "130557.777500", "130558.237500", "130558.697500", "130559.157500", "130559.617500", "130600.077500", "130600.537500", "130600.997500", "130601.457500", "130601.917500", "130602.377500", "130602.837500", "130603.297500", "130603.757500", "130604.217500", "130604.677500", "130605.137500", "130605.597500", "130606.057500", "130606.517500", "130606.977500", "130607.437500", "130607.897500", "130608.357500", "130608.817500", "130609.277500", "130609.737500", "130610.197500", "130610.657500", "130611.117500", "130611.577500", "130612.037500", "130612.497500", "130612.957500", "130613.417500", "130613.877500", "130614.337500", "130614.797500", "130615.257500", "130615.717500", "130616.177500", "130616.637500", "130617.097500", "130617.557500", "130618.017500", "130618.477500", "130618.937500", "130619.397500", "130619.857500", "130620.317500", "130620.777500", "130621.237500", "130621.697500", "130622.157500", "130622.617500", "130623.077500", "130623.537500", "130623.997500", "130624.457500", "130624.917500", "130625.377500", "130625.837500", "130626.297500", "130626.757500", "130627.217500", "130627.677500", "130628.137500", "130628.597500", "130629.057500", "130629.517500", "130629.977500", "130630.437500", "130630.897500", "130631.357500", "130631.817500", "130632.277500", "130632.737500", "130633.197500", "130633.657500", "130634.117500", "130634.577500", "130635.037500", "130635.497500", "130635.957500", "130636.417500", "130636.877500", "130637.337500", "130637.797500", "130638.257500", "130638.717500", "130639.177500", "130639.637500", "130640.097500", "130640.557500", "130641.017500", "130641.477500", "130641.937500", "130642.397500", "130642.857500", "130643.317500", "130643.777500", "130644.237500", "130644.697500", "130645.157500", "130645.617500", "130646.077500", "130646.537500", "130646.997500", "130647.457500", "130647.917500", "130648.377500", "130648.837500", "130649.297500", "130649.757500", "130650.217500", "130650.677500", "130651.137500", "130651.597500", "130652.057500", "130652.517500", "130652.977500", "130653.437500", "130653.897500", "130654.357500", "130654.817500", "130655.277500", "130655.737500", "130656.197500", "130656.657500", "130657.117500", "130657.577500", "130658.037500", "130658.497500", "130658.957500", "130659.417500", "130659.877500", "130700.337500", "130700.797500", "130701.257500", "130701.717500", "130702.177500", "130702.637500", "130703.097500", "130703.557500", "130704.017500", "130704.477500", "130704.937500", "130705.397500", "130705.857500", "130706.317500", "130706.777500", "130707.237500", "130707.697500", "130708.157500", "130708.617500", "130709.077500", "130709.537500", "130709.997500", "130710.457500", "130710.917500", "130711.377500", "130711.837500", "130712.297500", "130712.757500", "130713.217500", "130713.677500", "130714.137500", "130714.597500", "130715.057500", "130715.517500", "130715.977500", "130716.437500", "130716.897500", "130717.357500", "130717.817500", "130718.277500", "130718.737500", "130719.197500", "130719.657500", "130720.117500", "130720.577500", "130721.037500", "130721.497500", "130721.957500", "130722.417500", "130722.877500", "130723.337500", "130723.797500", "130724.257500", "130724.717500", "130725.177500", "130725.637500", "130726.097500", "130726.557500", "130727.017500", "130727.477500", "130727.937500", "130728.397500", "130728.857500", "130729.317500", "130729.777500", "130730.237500", "130730.697500", "130731.157500", "130731.617500", "130732.077500", "130732.537500", "130732.997500", "130733.457500", "130733.917500", "130734.377500", "130734.837500", "130735.297500", "130735.757500", "130736.217500", "130736.677500", "130737.137500", "130737.597500", "130738.057500", "130738.517500", "130738.977500", "130739.437500", "130739.897500", "130740.357500", "130740.817500", "130741.277500", "130741.737500", "130742.197500", "130742.657500", "130743.117500", "130743.577500", "130744.037500", "130744.497500", "130744.957500", "130745.417500", "130745.877500", "130746.337500", "130746.797500", "130747.257500", "130747.717500", "130748.177500", "130748.637500", "130749.097500", "130749.557500", "130750.017500", "130750.477500", "130750.937500", "130751.397500", "130751.857500", "130752.317500", "130752.777500", "130753.237500", "130753.697500", "130754.157500", "130754.617500", "130755.077500", "130755.537500", "130755.997500", "130756.457500", "130756.917500", "130757.377500", "130757.837500", "130758.297500", "130758.757500", "130759.217500", "130759.677500", "130800.137500", "130800.597500", "130801.057500", "130801.517500", "130801.977500", "130802.437500", "130802.897500", "130803.357500", "130803.817500", "130804.277500", "130804.737500", "130805.197500", "130805.657500", "130806.117500", "130806.577500", "130807.037500", "130807.497500", "130807.957500", "130808.417500", "130808.877500", "130809.337500", "130809.797500", "130810.257500", "130810.717500", "130811.177500", "130811.637500", "130812.097500", "130812.557500", "130813.017500", "130813.477500", "130813.937500", "130814.397500", "130814.857500", "130815.317500", "130815.777500", "130816.237500", "130816.697500", "130817.157500", "130817.617500", "130818.077500", "130818.537500", "130818.997500", "130819.457500", "130819.917500", "130820.377500", "130820.837500", "130821.297500", "130821.757500", "130822.217500", "130822.677500", "130823.137500", "130823.597500", "130824.057500", "130824.517500", "130824.977500", "130825.437500", "130825.897500", "130826.357500", "130826.817500", "130827.277500", "130827.737500", "130828.197500", "130828.657500", "130829.117500", "130829.577500", "130830.037500", "130830.497500", "130830.957500", "130831.417500", "130831.877500", "130832.337500", "130832.797500", "130833.257500", "130833.717500", "130834.177500", "130834.637500", "130835.097500", "130835.557500", "130836.017500", "130836.477500", "130836.937500", "130837.397500", "130837.857500", "130838.317500", "130838.777500", "130839.237500", "130839.697500", "130840.157500", "130840.617500", "130841.077500", "130841.537500", "130841.997500", "130842.457500", "130842.917500", "130843.377500", "130843.837500", "130844.297500", "130844.757500", "130845.217500", "130845.677500", "130846.137500", "130846.597500", "130847.057500", "130847.517500", "130847.977500", "130848.437500", "130848.897500", "130849.357500", "130849.817500", "130850.277500", "130850.737500", "130851.197500", "130851.657500", "130852.117500", "130852.577500", "130853.037500", "130853.497500", "130853.957500", "130854.417500", "130854.877500", "130855.337500", "130855.797500", "130856.257500", "130856.717500", "130857.177500", "130857.637500", "130858.097500", "130858.557500", "130859.017500", "130859.477500", "130859.937500", "130900.397500", "130900.857500", "130901.317500", "130901.777500", "130902.237500", "130902.697500", "130903.157500", "130903.617500", "130904.077500", "130904.537500", "130904.997500", "130905.457500", "130905.917500", "130906.377500", "130906.837500", "130907.297500", "130907.757500", "130908.217500", "130908.677500", "130909.137500", "130909.597500", "130910.057500", "130910.517500", "130910.977500", "130911.437500", "130911.897500", "130912.357500", "130912.817500", "130913.277500", "130913.737500", "130914.197500", "130914.657500", "130915.117500", "130915.577500", "130916.037500", "130916.497500", "130916.957500", "130917.417500", "130917.877500", "130918.337500", "130918.797500", "130919.257500", "130919.717500", "130920.177500", "130920.637500", "130921.097500", "130921.557500", "130922.017500", "130922.477500", "130922.937500", "130923.397500", "130923.857500", "130924.317500", "130924.777500", "130925.237500", "130925.697500", "130926.157500", "130926.617500", "130927.077500", "130927.537500", "130927.997500", "130928.457500", "130928.917500", "130929.377500", "130929.837500", "130930.297500", "130930.757500", "130931.217500", "130931.677500", "130932.137500", "130932.597500", "130933.057500", "130933.517500", "130933.977500", "130934.437500", "130934.897500", "130935.357500", "130935.817500", "130936.277500", "130936.737500", "130937.197500", "130937.657500", "130938.117500", "130938.577500", "130939.037500", "130939.497500", "130939.957500", "130940.417500", "130940.877500", "130941.337500", "130941.797500", "130942.257500", "130942.717500", "130943.177500", "130943.637500", "130944.097500", "130944.557500", "130945.017500", "130945.477500", "130945.937500", "130946.397500", "130946.857500", "130947.317500", "130947.777500", "130948.237500", "130948.697500", "130949.157500", "130949.617500", "130950.077500", "130950.537500", "130950.997500", "130951.457500", "130951.917500", "130952.377500", "130952.837500", "130953.297500", "130953.757500", "130954.217500", "130954.677500", "130955.137500", "130955.597500", "130956.057500", "130956.517500", "130956.977500", "130957.437500", "130957.897500", "130958.357500", "130958.817500", "130959.277500", "130959.737500", "131000.197500", "131000.657500", "131001.117500", "131001.577500", "131002.037500", "131002.497500", "131002.957500", "131003.417500", "131003.877500", "131004.337500", "131004.797500", "131005.257500", "131005.717500", "131006.177500", "131006.637500", "131007.097500", "131007.557500", "131008.017500", "131008.477500", "131008.937500", "131009.397500", "131009.857500", "131010.317500", "131010.777500", "131011.237500", "131011.697500", "131012.157500", "131012.617500", "131013.077500", "131013.537500", "131013.997500", "131014.457500", "131014.917500", "131015.377500", "131015.837500", "131016.297500", "131016.757500", "131017.217500", "131017.677500", "131018.137500", "131018.597500", "131019.057500", "131019.517500", "131019.977500", "131020.437500", "131020.897500", "131021.357500", "131021.817500", "131022.277500", "131022.737500", "131023.197500", "131023.657500", "131024.117500", "131024.577500", "131025.037500", "131025.497500", "131025.957500", "131026.417500", "131026.877500", "131027.337500"],
