{
  "AcquisitionMatrixPE": 82,
  "AcquisitionNumber": 1,
  "AcquisitionTime": "13:53:38.757500",
  "BandwidthPerPixelPhaseEncode": 24.888,
  "BaseResolution": 82,
  "BodyPartExamined": "BRAIN",
  "ConsistencyInfo": "N4_VE11E_LATEST_20181129",
  "ConversionSoftware": "dcm2niix",
  "ConversionSoftwareVersion": "v1.0.20201102",
  "DerivedVendorReportedEchoSpacing": 0.00049,
  "DeviceSerialNumber": "66112",
  "DwellTime": 2e-06,
  "EchoTime": 0.0272,
  "EchoTrainLength": 82,
  "EffectiveEchoSpacing": 0.00049,
  "FlipAngle": 44,
  "ImageComments": "Unaliased MB8/PE3",
  "ImageOrientationPatientDICOM": [0.996552, -0.0795205, 0.023664, 0.0784304, 0.995953, 0.0438929],
  "ImageType": [
    "ORIGINAL",
    "PRIMARY",
    "M",
    "MB",
    "ND",
    "NORM",
    "MOSAIC"
],
  "ImagingFrequency": 123.252,
  "InPlanePhaseEncodingDirectionDICOM": "COL",
  "InstitutionAddress": "Maynard 3,Hanover,NH,US,03755",
  "InstitutionName": "Dartmouth College - PBS",
  "InstitutionalDepartmentName": "Department",
  "MRAcquisitionType": "2D",
  "MagneticFieldStrength": 3,
  "Manufacturer": "Siemens",
  "ManufacturersModelName": "Prisma",
  "Modality": "MR",
  "MultibandAccelerationFactor": 8,
  "PartialFourier": 1,
  "PatientPosition": "HFS",
  "PercentPhaseFOV": 100,
  "PercentSampling": 100,
  "PhaseEncodingDirection": "j-",
  "PhaseEncodingSteps": 82,
  "PhaseResolution": 1,
  "PixelBandwidth": 3050,
  "ProcedureStepDescription": "Wager_Wager^1076_spacetop",
  "ProtocolName": "func_run-03_task-alignvideo_acq-ap-mb8",
  "PulseSequenceDetails": "%CustomerSeq%\\cmrr_mbep2d_bold",
  "ReceiveCoilActiveElements": "HEA;HEP",
  "ReceiveCoilName": "Head_32",
  "ReconMatrixPE": 82,
  "RepetitionTime": 0.46,
  "SAR": 0.0997231,
  "ScanOptions": "FS",
  "ScanningSequence": "EP",
  "SequenceName": "epfid2d1_82",
  "SequenceVariant": "SK\\SS",
  "SeriesDescription": "func_run-03_task-alignvideo_acq-ap-mb8",
  "SeriesNumber": 30,
  "ShimSetting": [4158, -7732, -7266, 480, -11, -18, 100, 78],
  "SliceThickness": 2.7,
  "SliceTiming": [0, 0.2525, 0.0625, 0.315, 0.125, 0.3775, 0.19, 0, 0.2525, 0.0625, 0.315, 0.125, 0.3775, 0.19, 0, 0.2525, 0.0625, 0.315, 0.125, 0.3775, 0.19, 0, 0.2525, 0.0625, 0.315, 0.125, 0.3775, 0.19, 0, 0.2525, 0.0625, 0.315, 0.125, 0.3775, 0.19, 0, 0.2525, 0.0625, 0.315, 0.125, 0.3775, 0.19, 0, 0.2525, 0.0625, 0.315, 0.125, 0.3775, 0.19, 0, 0.2525, 0.0625, 0.315, 0.125, 0.3775, 0.19],
  "SoftwareVersions": "syngo MR E11",
  "SpacingBetweenSlices": 2.7,
  "StationName": "AWP66112",
  "TaskName": "alignvideo",
  "TotalReadoutTime": 0.03969,
  "TxRefAmp": 252.291,
  "WipMemBlock": "3db7464d-8983-4ba4-b162-42540cdfbda9||Sequence: R016 ve11e/master r/434b28f1; Aug  7 2019 18:53:46 by eja",
  "dcmmeta_affine": [
    [-2.6736769676208496, 0.21042296290397644, 0.073058120906353, 102.04815673828125],
    [0.2133476287126541, 2.6720685958862305, 0.11309102922677994, -99.36541748046875],
    [0.06348865479230881, -0.11776135116815567, 2.696640968322754, -60.494110107421875],
    [0.0, 0.0, 0.0, 1.0]
],
  "dcmmeta_reorient_transform": [
    [0.0, -1.0, 0.0, 81.0],
    [1.0, 0.0, 0.0, 0.0],
    [0.0, 0.0, 1.0, 0.0],
    [0.0, 0.0, 0.0, 1.0]
],
  "dcmmeta_shape": [82, 82, 56, 1016],
  "dcmmeta_slice_dim": 2,
  "dcmmeta_version": 0.6,
  "global": {
    "const": {
      "AccessionNumber": "A004015",
      "AcquisitionMatrix": [82, 0, 0, 82],
      "AngioFlag": "N",
      "BitsAllocated": 16,
      "BitsStored": 16,
      "BodyPartExamined": "BRAIN",
      "Columns": 656,
      "EchoNumbers": 1,
      "EchoTime": 27.2,
      "EchoTrainLength": 82,
      "FlipAngle": 44.0,
      "HighBit": 15,
      "ImageOrientationPatient": [0.99655231208655, -0.079520479371, 0.02366395223887, 0.07843037335375, 0.99595285672322, 0.04389286639594],
      "ImagePositionPatient": [-946.82910520427, -822.72509869985, -122.05152998375],
      "ImageType": [
        "ORIGINAL",
        "PRIMARY",
        "M",
        "MB",
        "ND",
        "NORM",
        "MOSAIC"
],
      "ImagedNucleus": "1H",
      "ImagingFrequency": 123.252182,
      "InPlanePhaseEncodingDirection": "COL",
      "MRAcquisitionType": "2D",
      "MagneticFieldStrength": 3.0,
      "Manufacturer": "SIEMENS",
      "ManufacturerModelName": "Prisma",
      "Modality": "MR",
      "NumberOfAverages": 1.0,
      "NumberOfPhaseEncodingSteps": 82,
      "PercentPhaseFieldOfView": 100.0,
      "PercentSampling": 100.0,
      "PerformedProcedureStepStartTime": "121031.412000",
      "PhotometricInterpretation": "MONOCHROME2",
      "PixelBandwidth": 3050.0,
      "PixelRepresentation": 0,
      "PixelSpacing": [2.6829268932343, 2.6829268932343],
      "ProtocolName": "func_run-03_task-alignvideo_acq-ap-mb8",
      "RepetitionTime": 460.0,
      "Rows": 656,
      "SAR": 0.09972313799177,
      "SamplesPerPixel": 1,
      "ScanOptions": "FS",
      "ScanningSequence": "EP",
      "SequenceName": "epfid2d1_82",
      "SequenceVariant": [
        "SK",
        "SS"
],
      "SeriesDescription": "func_run-03_task-alignvideo_acq-ap-mb8",
      "SeriesNumber": 30,
      "SeriesTime": "135355.366000",
      "SliceLocation": -61.819550795372,
      "SliceThickness": 2.7000000476837,
      "SmallestImagePixelValue": 0,
      "SoftwareVersions": "syngo MR E11",
      "SpacingBetweenSlices": 2.7000000078859,
      "SpecificCharacterSet": "ISO_IR 100",
      "StudyID": "2",
      "StudyTime": "121031.366000",
      "TransmitCoilName": "Body",
      "VariableFlipAngleFlag": "N",
      "WindowCenterWidthExplanation": "Algo1"
    },
    "slices": {}
  },
  "time": {
    "samples": {
      "AcquisitionNumber": [1, 2, 3, 4, 5, 6, 7, 8, 9, 10, 11, 12, 13, 14, 15, 16, 17, 18, 19, 20, 21, 22, 23, 24, 25, 26, 27, 28, 29, 30, 31, 32, 33, 34, 35, 36, 37, 38, 39, 40, 41, 42, 43, 44, 45, 46, 47, 48, 49, 50, 51, 52, 53, 54, 55, 56, 57, 58, 59, 60, 61, 62, 63, 64, 65, 66, 67, 68, 69, 70, 71, 72, 73, 74, 75, 76, 77, 78, 79, 80, 81, 82, 83, 84, 85, 86, 87, 88, 89, 90, 91, 92, 93, 94, 95, 96, 97, 98, 99, 100, 101, 102, 103, 104, 105, 106, 107, 108, 109, 110, 111, 112, 113, 114, 115, 116, 117, 118, 119, 120, 121, 122, 123, 124, 125, 126, 127, 128, 129, 130, 131, 132, 133, 134, 135, 136, 137, 138, 139, 140, 141, 142, 143, 144, 145, 146, 147, 148, 149, 150, 151, 152, 153, 154, 155, 156, 157, 158, 159, 160, 161, 162, 163, 164, 165, 166, 167, 168, 169, 170, 171, 172, 173, 174, 175, 176, 177, 178, 179, 180, 181, 182, 183, 184, 185, 186, 187, 188, 189, 190, 191, 192, 193, 194, 195, 196, 197, 198, 199, 200, 201, 202, 203, 204, 205, 206, 207, 208, 209, 210, 211, 212, 213, 214, 215, 216, 217, 218, 219, 220, 221, 222, 223, 224, 225, 226, 227, 228, 229, 230, 231, 232, 233, 234, 235, 236, 237, 238, 239, 240, 241, 242, 243, 244, 245, 246, 247, 248, 249, 250, 251, 252, 253, 254, 255, 256, 257, 258, 259, 260, 261, 262, 263, 264, 265, 266, 267, 268, 269, 270, 271, 272, 273, 274, 275, 276, 277, 278, 279, 280, 281, 282, 283, 284, 285, 286, 287, 288, 289, 290, 291, 292, 293, 294, 295, 296, 297, 298, 299, 300, 301, 302, 303, 304, 305, 306, 307, 308, 309, 310, 311, 312, 313, 314, 315, 316, 317, 318, 319, 320, 321, 322, 323, 324, 325, 326, 327, 328, 329, 330, 331, 332, 333, 334, 335, 336, 337, 338, 339, 340, 341, 342, 343, 344, 345, 346, 347, 348, 349, 350, 351, 352, 353, 354, 355, 356, 357, 358, 359, 360, 361, 362, 363, 364, 365, 366, 367, 368, 369, 370, 371, 372, 373, 374, 375, 376, 377, 378, 379, 380, 381, 382, 383, 384, 385, 386, 387, 388, 389, 390, 391, 392, 393, 394, 395, 396, 397, 398, 399, 400, 401, 402, 403, 404, 405, 406, 407, 408, 409, 410, 411, 412, 413, 414, 415, 416, 417, 418, 419, 420, 421, 422, 423, 424, 425, 426, 427, 428, 429, 430, 431, 432, 433, 434, 435, 436, 437, 438, 439, 440, 441, 442, 443, 444, 445, 446, 447, 448, 449, 450, 451, 452, 453, 454, 455, 456, 457, 458, 459, 460, 461, 462, 463, 464, 465, 466, 467, 468, 469, 470, 471, 472, 473, 474, 475, 476, 477, 478, 479, 480, 481, 482, 483, 484, 485, 486, 487, 488, 489, 490, 491, 492, 493, 494, 495, 496, 497, 498, 499, 500, 501, 502, 503, 504, 505, 506, 507, 508, 509, 510, 511, 512, 513, 514, 515, 516, 517, 518, 519, 520, 521, 522, 523, 524, 525, 526, 527, 528, 529, 530, 531, 532, 533, 534, 535, 536, 537, 538, 539, 540, 541, 542, 543, 544, 545, 546, 547, 548, 549, 550, 551, 552, 553, 554, 555, 556, 557, 558, 559, 560, 561, 562, 563, 564, 565, 566, 567, 568, 569, 570, 571, 572, 573, 574, 575, 576, 577, 578, 579, 580, 581, 582, 583, 584, 585, 586, 587, 588, 589, 590, 591, 592, 593, 594, 595, 596, 597, 598, 599, 600, 601, 602, 603, 604, 605, 606, 607, 608, 609, 610, 611, 612, 613, 614, 615, 616, 617, 618, 619, 620, 621, 622, 623, 624, 625, 626, 627, 628, 629, 630, 631, 632, 633, 634, 635, 636, 637, 638, 639, 640, 641, 642, 643, 644, 645, 646, 647, 648, 649, 650, 651, 652, 653, 654, 655, 656, 657, 658, 659, 660, 661, 662, 663, 664, 665, 666, 667, 668, 669, 670, 671, 672, 673, 674, 675, 676, 677, 678, 679, 680, 681, 682, 683, 684, 685, 686, 687, 688, 689, 690, 691, 692, 693, 694, 695, 696, 697, 698, 699, 700, 701, 702, 703, 704, 705, 706, 707, 708, 709, 710, 711, 712, 713, 714, 715, 716, 717, 718, 719, 720, 721, 722, 723, 724, 725, 726, 727, 728, 729, 730, 731, 732, 733, 734, 735, 736, 737, 738, 739, 740, 741, 742, 743, 744, 745, 746, 747, 748, 749, 750, 751, 752, 753, 754, 755, 756, 757, 758, 759, 760, 761, 762, 763, 764, 765, 766, 767, 768, 769, 770, 771, 772, 773, 774, 775, 776, 777, 778, 779, 780, 781, 782, 783, 784, 785, 786, 787, 788, 789, 790, 791, 792, 793, 794, 795, 796, 797, 798, 799, 800, 801, 802, 803, 804, 805, 806, 807, 808, 809, 810, 811, 812, 813, 814, 815, 816, 817, 818, 819, 820, 821, 822, 823, 824, 825, 826, 827, 828, 829, 830, 831, 832, 833, 834, 835, 836, 837, 838, 839, 840, 841, 842, 843, 844, 845, 846, 847, 848, 849, 850, 851, 852, 853, 854, 855, 856, 857, 858, 859, 860, 861, 862, 863, 864, 865, 866, 867, 868, 869, 870, 871, 872, 873, 874, 875, 876, 877, 878, 879, 880, 881, 882, 883, 884, 885, 886, 887, 888, 889, 890, 891, 892, 893, 894, 895, 896, 897, 898, 899, 900, 901, 902, 903, 904, 905, 906, 907, 908, 909, 910, 911, 912, 913, 914, 915, 916, 917, 918, 919, 920, 921, 922, 923, 924, 925, 926, 927, 928, 929, 930, 931, 932, 933, 934, 935, 936, 937, 938, 939, 940, 941, 942, 943, 944, 945, 946, 947, 948, 949, 950, 951, 952, 953, 954, 955, 956, 957, 958, 959, 960, 961, 962, 963, 964, 965, 966, 967, 968, 969, 970, 971, 972, 973, 974, 975, 976, 977, 978, 979, 980, 981, 982, 983, 984, 985, 986, 987, 988, 989, 990, 991, 992, 993, 994, 995, 996, 997, 998, 999, 1000, 1001, 1002, 1003, 1004, 1005, 1006, 1007, 1008, 1009, 1010, 1011, 1012, 1013, 1014, 1015, 1016],
      "AcquisitionTime": ["135338.757500", "135339.217500", "135339.677500", "135340.137500", "135340.597500", "135341.057500", "135341.517500", "135341.977500", "135342.437500", "135342.897500", "135343.357500", "135343.817500", "135344.277500", "135344.737500", "135345.197500", "135345.657500", "135346.117500", "135346.577500", "135347.037500", "135347.497500", "135347.957500", "135348.417500", "135348.877500", "135349.337500", "135349.797500", "135350.257500", "135350.717500", "135351.177500", "135351.637500", "135352.097500", "135352.557500", "135353.017500", "135353.477500", "135353.937500", "135354.397500", "135354.857500", "135355.317500", "135355.777500", "135356.237500", "135356.697500", "135357.157500", "135357.617500", "135358.077500", "135358.537500", "135358.997500", "135359.457500", "135359.917500", "135400.377500", "135400.837500", "135401.297500", "135401.757500", "135402.217500", "135402.677500", "135403.137500", "135403.597500", "135404.057500", "135404.517500", "135404.977500", "135405.437500", "135405.897500", "135406.357500", "135406.817500", "135407.277500", "135407.737500", "135408.197500", "135408.657500", "135409.117500", "135409.577500", "135410.037500", "135410.497500", "135410.957500", "135411.417500", "135411.877500", "135412.337500", "135412.797500", "135413.257500", "135413.717500", "135414.177500", "135414.637500", "135415.097500", "135415.557500", "135416.017500", "135416.477500", "135416.937500", "135417.397500", "135417.857500", "135418.317500", "135418.777500", "135419.237500", "135419.697500", "135420.157500", "135420.617500", "135421.077500", "135421.537500", "135421.997500", "135422.457500", "135422.917500", "135423.377500", "135423.837500", "135424.297500", "135424.757500", "135425.217500", "135425.677500", "135426.137500", "135426.597500", "135427.057500", "135427.517500", "135427.977500", "135428.437500", "135428.897500", "135429.357500", "135429.817500", "135430.277500", "135430.737500", "135431.197500", "135431.657500", "135432.117500", "135432.577500", "135433.037500", "135433.497500", "135433.957500", "135434.417500", "135434.877500", "135435.337500", "135435.797500", "135436.257500", "135436.717500", "135437.177500", "135437.637500", "135438.097500", "135438.557500", "135439.017500", "135439.477500", "135439.937500", "135440.397500", "135440.857500", "135441.317500", "135441.777500", "135442.237500", "135442.697500", "135443.157500", "135443.617500", "135444.077500", "135444.537500", "135444.997500", "135445.457500", "135445.917500", "135446.377500", "135446.837500", "135447.297500", "135447.757500", "135448.217500", "135448.677500", "135449.137500", "135449.597500", "135450.057500", "135450.517500", "135450.977500", "135451.437500", "135451.897500", "135452.357500", "135452.817500", "135453.277500", "135453.737500", "135454.197500", "135454.657500", "135455.117500", "135455.577500", "135456.037500", "135456.497500", "135456.957500", "135457.417500", "135457.877500", "135458.337500", "135458.797500", "135459.257500", "135459.717500", "135500.177500", "135500.637500", "135501.097500", "135501.557500", "135502.017500", "135502.477500", "135502.937500", "135503.397500", "135503.857500", "135504.317500", "135504.777500", "135505.237500", "135505.697500", "135506.157500", "135506.617500", "135507.077500", "135507.537500", "135507.997500", "135508.457500", "135508.917500", "135509.377500", "135509.837500", "135510.297500", "135510.757500", "135511.217500", "135511.677500", "135512.137500", "135512.597500", "135513.057500", "135513.517500", "135513.977500", "135514.437500", "135514.897500", "135515.357500", "135515.817500", "135516.277500", "135516.737500", "135517.197500", "135517.657500", "135518.117500", "135518.577500", "135519.037500", "135519.497500", "135519.957500", "135520.417500", "135520.877500", "135521.337500", "135521.797500", "135522.257500", "135522.717500", "135523.177500", "135523.637500", "135524.097500", "135524.557500", "135525.017500", "135525.477500", "135525.937500", "135526.397500", "135526.857500", "135527.317500", "135527.777500", "135528.237500", "135528.697500", "135529.157500", "135529.617500", "135530.077500", "135530.537500", "135530.997500", "135531.457500", "135531.917500", "135532.377500", "135532.837500", "135533.297500", "135533.757500", "135534.217500", "135534.677500", "135535.137500", "135535.597500", "135536.057500", "135536.517500", "135536.977500", "135537.437500", "135537.897500", "135538.357500", "135538.817500", "135539.277500", "135539.737500", "135540.197500", "135540.657500", "135541.117500", "135541.577500", "135542.037500", "135542.497500", "135542.957500", "135543.417500", "135543.877500", "135544.337500", "135544.797500", "135545.257500", "135545.717500", "135546.177500", "135546.637500", "135547.097500", "135547.557500", "135548.017500", "135548.477500", "135548.937500", "135549.397500", "135549.857500", "135550.317500", "135550.777500", "135551.237500", "135551.697500", "135552.157500", "135552.617500", "135553.077500", "135553.537500", "135553.997500", "135554.457500", "135554.917500", "135555.377500", "135555.837500", "135556.297500", "135556.757500", "135557.217500", "135557.677500", "135558.137500", "135558.597500", "135559.057500", "135559.517500", "135559.977500", "135600.437500", "135600.897500", "135601.357500", "135601.817500", "135602.277500", "135602.737500", "135603.197500", "135603.657500", "135604.117500", "135604.577500", "135605.037500", "135605.497500", "135605.957500", "135606.417500", "135606.877500", "135607.337500", "135607.797500", "135608.257500", "135608.717500", "135609.177500", "135609.637500", "135610.097500", "135610.557500", "135611.017500", "135611.477500", "135611.937500", "135612.397500", "135612.857500", "135613.317500", "135613.777500", "135614.237500", "135614.697500", "135615.157500", "135615.617500", "135616.077500", "135616.537500", "135616.997500", "135617.457500", "135617.917500", "135618.377500", "135618.837500", "135619.297500", "135619.757500", "135620.217500", "135620.677500", "135621.137500", "135621.597500", "135622.057500", "135622.517500", "135622.977500", "135623.437500", "135623.897500", "135624.357500", "135624.817500", "135625.277500", "135625.737500", "135626.197500", "135626.657500", "135627.117500", "135627.577500", "135628.037500", "135628.497500", "135628.957500", "135629.417500", "135629.877500", "135630.337500", "135630.797500", "135631.257500", "135631.717500", "135632.177500", "135632.637500", "135633.097500", "135633.557500", "135634.017500", "135634.477500", "135634.937500", "135635.397500", "135635.857500", "135636.317500", "135636.777500", "135637.237500", "135637.697500", "135638.157500", "135638.617500", "135639.077500", "135639.537500", "135639.997500", "135640.457500", "135640.917500", "135641.377500", "135641.837500", "135642.297500", "135642.757500", "135643.217500", "135643.677500", "135644.137500", "135644.597500", "135645.057500", "135645.517500", "135645.977500", "135646.437500", "135646.897500", "135647.357500", "135647.817500", "135648.277500", "135648.737500", "135649.197500", "135649.657500", "135650.117500", "135650.577500", "135651.037500", "135651.497500", "135651.957500", "135652.417500", "135652.877500", "135653.337500", "135653.797500", "135654.257500", "135654.717500", "135655.177500", "135655.637500", "135656.097500", "135656.557500", "135657.017500", "135657.477500", "135657.937500", "135658.397500", "135658.857500", "135659.317500", "135659.777500", "135700.237500", "135700.697500", "135701.157500", "135701.617500", "135702.077500", "135702.537500", "135702.997500", "135703.457500", "135703.917500", "135704.377500", "135704.837500", "135705.297500", "135705.757500", "135706.217500", "135706.677500", "135707.137500", "135707.597500", "135708.057500", "135708.517500", "135708.977500", "135709.437500", "135709.897500", "135710.357500", "135710.817500", "135711.277500", "135711.737500", "135712.197500", "135712.657500", "135713.117500", "135713.577500", "135714.037500", "135714.497500", "135714.957500", "135715.417500", "135715.877500", "135716.337500", "135716.797500", "135717.257500", "135717.717500", "135718.177500", "135718.637500", "135719.097500", "135719.557500", "135720.017500", "135720.477500", "135720.937500", "135721.397500", "135721.857500", "135722.317500", "135722.777500", "135723.237500", "135723.697500", "135724.157500", "135724.617500", "135725.077500", "135725.537500", "135725.997500", "135726.457500", "135726.917500", "135727.377500", "135727.837500", "135728.297500", "135728.757500", "135729.217500", "135729.677500", "135730.137500", "135730.597500", "135731.057500", "135731.517500", "135731.977500", "135732.437500", "135732.897500", "135733.357500", "135733.817500", "135734.277500", "135734.737500", "135735.197500", "135735.657500", "135736.117500", "135736.577500", "135737.037500", "135737.497500", "135737.957500", "135738.417500", "135738.877500", "135739.337500", "135739.797500", "135740.257500", "135740.717500", "135741.177500", "135741.637500", "135742.097500", "135742.557500", "135743.017500", "135743.477500", "135743.937500", "135744.397500", "135744.857500", "135745.317500", "135745.777500", "135746.237500", "135746.697500", "135747.157500", "135747.617500", "135748.077500", "135748.537500", "135748.997500", "135749.457500", "135749.917500", "135750.377500", "135750.837500", "135751.297500", "135751.757500", "135752.217500", "135752.677500", "135753.137500", "135753.597500", "135754.057500", "135754.517500", "135754.977500", "135755.437500", "135755.897500", "135756.357500", "135756.817500", "135757.277500", "135757.737500", "135758.197500", "135758.657500", "135759.117500", "135759.577500", "135800.037500", "135800.497500", "135800.957500", "135801.417500", "135801.877500", "135802.337500", "135802.797500", "135803.257500", "135803.717500", "135804.177500", "135804.637500", "135805.097500", "135805.557500", "135806.017500", "135806.477500", "135806.937500", "135807.397500", "135807.857500", "135808.317500", "135808.777500", "135809.237500", "135809.697500", "135810.157500", "135810.617500", "135811.077500", "135811.537500", "135811.997500", "135812.457500", "135812.917500", "135813.377500", "135813.837500", "135814.297500", "135814.757500", "135815.217500", "135815.677500", "135816.137500", "135816.597500", "135817.057500", "135817.517500", "135817.977500", "135818.437500", "135818.897500", "135819.357500", "135819.817500", "135820.277500", "135820.737500", "135821.197500", "135821.657500", "135822.117500", "135822.577500", "135823.037500", "135823.497500", "135823.957500", "135824.417500", "135824.877500", "135825.337500", "135825.797500", "135826.257500", "135826.717500", "135827.177500", "135827.637500", "135828.097500", "135828.557500", "135829.017500", "135829.477500", "135829.937500", "135830.397500", "135830.857500", "135831.317500", "135831.777500", "135832.237500", "135832.697500", "135833.157500", "135833.617500", "135834.077500", "135834.537500", "135834.997500", "135835.457500", "135835.917500", "135836.377500", "135836.837500", "135837.297500", "135837.757500", "135838.217500", "135838.677500", "135839.137500", "135839.597500", "135840.057500", "135840.517500", "135840.977500", "135841.437500", "135841.897500", "135842.357500", "135842.817500", "135843.277500", "135843.737500", "135844.197500", "135844.657500", "135845.117500", "135845.577500", "135846.037500", "135846.497500", "135846.957500", "135847.417500", "135847.877500", "135848.337500", "135848.797500", "135849.257500", "135849.717500", "135850.177500", "135850.637500", "135851.097500", "135851.557500", "135852.017500", "135852.477500", "135852.937500", "135853.397500", "135853.857500", "135854.317500", "135854.777500", "135855.237500", "135855.697500", "135856.157500", "135856.617500", "135857.077500", "135857.537500", "135857.997500", "135858.457500", "135858.917500", "135859.377500", "135859.837500", "135900.297500", "135900.757500", "135901.217500", "135901.677500", "135902.137500", "135902.597500", "135903.057500", "135903.517500", "135903.977500", "135904.437500", "135904.897500", "135905.357500", "135905.817500", "135906.277500", "135906.737500", "135907.197500", "135907.657500", "135908.117500", "135908.577500", "135909.037500", "135909.497500", "135909.957500", "135910.417500", "135910.877500", "135911.337500", "135911.797500", "135912.257500", "135912.717500", "135913.177500", "135913.637500", "135914.097500", "135914.557500", "135915.017500", "135915.477500", "135915.937500", "135916.397500", "135916.857500", "135917.317500", "135917.777500", "135918.237500", "135918.697500", "135919.157500", "135919.617500", "135920.077500", "135920.537500", "135920.997500", "135921.457500", "135921.917500", "135922.377500", "135922.837500", "135923.297500", "135923.757500", "135924.217500", "135924.677500", "135925.137500", "135925.597500", "135926.057500", "135926.517500", "135926.977500", "135927.437500", "135927.897500", "135928.357500", "135928.817500", "135929.277500", "135929.737500", "135930.197500", "135930.657500", "135931.117500", "135931.577500", "135932.037500", "135932.497500", "135932.957500", "135933.417500", "135933.877500", "135934.337500", "135934.797500", "135935.257500", "135935.717500", "135936.177500", "135936.637500", "135937.097500", "135937.557500", "135938.017500", "135938.477500", "135938.937500", "135939.397500", "135939.857500", "135940.317500", "135940.777500", "135941.237500", "135941.697500", "135942.157500", "135942.617500", "135943.077500", "135943.537500", "135943.997500", "135944.457500", "135944.917500", "135945.377500", "135945.837500", "135946.297500", "135946.757500", "135947.217500", "135947.677500", "135948.137500", "135948.597500", "135949.057500", "135949.517500", "135949.977500", "135950.437500", "135950.897500", "135951.357500", "135951.817500", "135952.277500", "135952.737500", "135953.197500", "135953.657500", "135954.117500", "135954.577500", "135955.037500", "135955.497500", "135955.957500", "135956.417500", "135956.877500", "135957.337500", "135957.797500", "135958.257500", "135958.717500", "135959.177500", "135959.637500", "140000.097500", "140000.557500", "140001.017500", "140001.477500", "140001.937500", "140002.397500", "140002.857500", "140003.317500", "140003.777500", "140004.237500", "140004.697500", "140005.157500", "140005.617500", "140006.077500", "140006.537500", "140006.997500", "140007.457500", "140007.917500", "140008.377500", "140008.837500", "140009.297500", "140009.757500", "140010.217500", "140010.677500", "140011.137500", "140011.597500", "140012.057500", "140012.517500", "140012.977500", "140013.437500", "140013.897500", "140014.357500", "140014.817500", "140015.277500", "140015.737500", "140016.197500", "140016.657500", "140017.117500", "140017.577500", "140018.037500", "140018.497500", "140018.957500", "140019.417500", "140019.877500", "140020.337500", "140020.797500", "140021.257500", "140021.717500", "140022.177500", "140022.637500", "140023.097500", "140023.557500", "140024.017500", "140024.477500", "140024.937500", "140025.397500", "140025.857500", "140026.317500", "140026.777500", "140027.237500", "140027.697500", "140028.157500", "140028.617500", "140029.077500", "140029.537500", "140029.997500", "140030.457500", "140030.917500", "140031.377500", "140031.837500", "140032.297500", "140032.757500", "140033.217500", "140033.677500", "140034.137500", "140034.597500", "140035.057500", "140035.517500", "140035.977500", "140036.437500", "140036.897500", "140037.357500", "140037.817500", "140038.277500", "140038.737500", "140039.197500", "140039.657500", "140040.117500", "140040.577500", "140041.037500", "140041.497500", "140041.957500", "140042.417500", "140042.877500", "140043.337500", "140043.797500", "140044.257500", "140044.717500", "140045.177500", "140045.637500", "140046.097500", "140046.557500", "140047.017500", "140047.477500", "140047.937500", "140048.397500", "140048.857500", "140049.317500", "140049.777500", "140050.237500", "140050.697500", "140051.157500", "140051.617500", "140052.077500", "140052.537500", "140052.997500", "140053.457500", "140053.917500", "140054.377500", "140054.837500", "140055.297500", "140055.757500", "140056.217500", "140056.677500", "140057.137500", "140057.597500", "140058.057500", "140058.517500", "140058.977500", "140059.437500", "140059.897500", "140100.357500", "140100.817500", "140101.277500", "140101.737500", "140102.197500", "140102.657500", "140103.117500", "140103.577500", "140104.037500", "140104.497500", "140104.957500", "140105.417500", "140105.877500", "140106.337500", "140106.797500", "140107.257500", "140107.717500", "140108.177500", "140108.637500", "140109.097500", "140109.557500", "140110.017500", "140110.477500", "140110.937500", "140111.397500", "140111.857500", "140112.317500", "140112.777500", "140113.237500", "140113.697500", "140114.157500", "140114.617500", "140115.077500", "140115.537500", "140115.997500", "140116.457500", "140116.917500", "140117.377500", "140117.837500", "140118.297500", "140118.757500", "140119.217500", "140119.677500", "140120.137500", "140120.597500", "140121.057500", "140121.517500", "140121.977500", "140122.437500", "140122.897500", "140123.357500", "140123.817500", "140124.277500", "140124.737500", "140125.197500", "140125.657500"],
