{
  "AcquisitionMatrixPE": 82,
  "AcquisitionNumber": 1,
  "AcquisitionTime": "13:10:46.842500",
  "BandwidthPerPixelPhaseEncode": 24.888,
  "BaseResolution": 82,
  "BodyPartExamined": "BRAIN",
  "ConsistencyInfo": "N4_VE11E_LATEST_20181129",
  "ConversionSoftware": "dcm2niix",
  "ConversionSoftwareVersion": "v1.0.20201102",
  "DerivedVendorReportedEchoSpacing": 0.00049,
  "DeviceSerialNumber": "66112",
  "DwellTime": 2e-06,
  "EchoTime": 0.0272,
  "EchoTrainLength": 82,
  "EffectiveEchoSpacing": 0.00049,
  "FlipAngle": 44,
  "ImageComments": "Unaliased MB8/PE3",
  "ImageOrientationPatientDICOM": [0.997608, -0.015886, 0.0672746, 0.0139301, 0.999469, 0.029444],
  "ImageType": [
    "ORIGINAL",
    "PRIMARY",
    "M",
    "MB",
    "ND",
    "NORM",
    "MOSAIC"
],
  "ImagingFrequency": 123.252,
  "InPlanePhaseEncodingDirectionDICOM": "COL",
  "InstitutionAddress": "Maynard 3,Hanover,NH,US,03755",
  "InstitutionName": "Dartmouth College - PBS",
  "InstitutionalDepartmentName": "Department",
  "MRAcquisitionType": "2D",
  "MagneticFieldStrength": 3,
  "Manufacturer": "Siemens",
  "ManufacturersModelName": "Prisma",
  "Modality": "MR",
  "MultibandAccelerationFactor": 8,
  "PartialFourier": 1,
  "PatientPosition": "HFS",
  "PercentPhaseFOV": 100,
  "PercentSampling": 100,
  "PhaseEncodingDirection": "j-",
  "PhaseEncodingSteps": 82,
  "PhaseResolution": 1,
  "PixelBandwidth": 3050,
  "ProcedureStepDescription": "Wager_Wager^1076_spacetop",
  "ProtocolName": "func_run-06_task-social_acq-ap-mb8",
  "PulseSequenceDetails": "%CustomerSeq%\\cmrr_mbep2d_bold",
  "ReceiveCoilActiveElements": "HEA;HEP",
  "ReceiveCoilName": "Head_32",
  "ReconMatrixPE": 82,
  "RepetitionTime": 0.46,
  "SAR": 0.117663,
  "ScanOptions": "FS",
  "ScanningSequence": "EP",
  "SequenceName": "epfid2d1_82",
  "SequenceVariant": "SK\\SS",
  "SeriesDescription": "func_run-06_task-social_acq-ap-mb8",
  "SeriesNumber": 18,
  "ShimSetting": [4185, -7755, -7269, 438, 0, -62, 140, 41],
  "SliceThickness": 2.7,
  "SliceTiming": [0, 0.25, 0.0625, 0.3125, 0.125, 0.375, 0.1875, 0, 0.25, 0.0625, 0.3125, 0.125, 0.375, 0.1875, 0, 0.25, 0.0625, 0.3125, 0.125, 0.375, 0.1875, 0, 0.25, 0.0625, 0.3125, 0.125, 0.375, 0.1875, 0, 0.25, 0.0625, 0.3125, 0.125, 0.375, 0.1875, 0, 0.25, 0.0625, 0.3125, 0.125, 0.375, 0.1875, 0, 0.25, 0.0625, 0.3125, 0.125, 0.375, 0.1875, 0, 0.25, 0.0625, 0.3125, 0.125, 0.375, 0.1875],
  "SoftwareVersions": "syngo MR E11",
  "SpacingBetweenSlices": 2.7,
  "StationName": "AWP66112",
  "TaskName": "social",
  "TotalReadoutTime": 0.03969,
  "TxRefAmp": 261.034,
  "WipMemBlock": "b0d4850d-e170-45ee-90d0-878f91777572||Sequence: R016 ve11e/master r/434b28f1; Aug  7 2019 18:53:46 by eja",
  "dcmmeta_affine": [
    [-2.676509380340576, 0.037373412400484085, 0.182808056473732, 106.6148452758789],
    [0.04262106865644455, 2.6815032958984375, 0.07677837461233139, -91.77515411376953],
    [0.18049293756484985, -0.07899611443281174, 2.6927099227905273, -60.750526428222656],
    [0.0, 0.0, 0.0, 1.0]
],
  "dcmmeta_reorient_transform": [
    [0.0, -1.0, 0.0, 81.0],
    [1.0, 0.0, 0.0, 0.0],
    [0.0, 0.0, 1.0, 0.0],
    [0.0, 0.0, 0.0, 1.0]
],
  "dcmmeta_shape": [82, 82, 56, 872],
  "dcmmeta_slice_dim": 2,
  "dcmmeta_version": 0.6,
  "global": {
    "const": {
      "AccessionNumber": "A004015",
      "AcquisitionMatrix": [82, 0, 0, 82],
      "AngioFlag": "N",
      "BitsAllocated": 16,
      "BitsStored": 16,
      "BodyPartExamined": "BRAIN",
      "Columns": 656,
      "EchoNumbers": 1,
      "EchoTime": 27.2,
      "EchoTrainLength": 82,
      "FlipAngle": 44.0,
      "HighBit": 15,
      "ImageOrientationPatient": [0.99760801778666, -0.015886034195, 0.06727463686507, 0.01393009023089, 0.99946936079093, 0.02944400493007],
      "ImagePositionPatient": [-888.52645366491, -882.78578517463, -141.62256916248],
      "ImageType": [
        "ORIGINAL",
        "PRIMARY",
        "M",
        "MB",
        "ND",
        "NORM",
        "MOSAIC"
],
      "ImagedNucleus": "1H",
      "ImagingFrequency": 123.252174,
      "InPlanePhaseEncodingDirection": "COL",
      "MRAcquisitionType": "2D",
      "MagneticFieldStrength": 3.0,
      "Manufacturer": "SIEMENS",
      "ManufacturerModelName": "Prisma",
      "Modality": "MR",
      "NumberOfAverages": 1.0,
      "NumberOfPhaseEncodingSteps": 82,
      "PercentPhaseFieldOfView": 100.0,
      "PercentSampling": 100.0,
      "PerformedProcedureStepStartTime": "121031.412000",
      "PhotometricInterpretation": "MONOCHROME2",
      "PixelBandwidth": 3050.0,
      "PixelRepresentation": 0,
      "PixelSpacing": [2.6829268932343, 2.6829268932343],
      "ProtocolName": "func_run-06_task-social_acq-ap-mb8",
      "RepetitionTime": 460.0,
      "Rows": 656,
      "SAR": 0.11766250796501,
      "SamplesPerPixel": 1,
      "ScanOptions": "FS",
      "ScanningSequence": "EP",
      "SequenceName": "epfid2d1_82",
      "SequenceVariant": [
        "SK",
        "SS"
],
      "SeriesDescription": "func_run-06_task-social_acq-ap-mb8",
      "SeriesNumber": 18,
      "SeriesTime": "131115.384000",
      "SliceLocation": -55.97771829539,
      "SliceThickness": 2.7000000476837,
      "SmallestImagePixelValue": 0,
      "SoftwareVersions": "syngo MR E11",
      "SpacingBetweenSlices": 2.7000000629126,
      "SpecificCharacterSet": "ISO_IR 100",
      "StudyID": "2",
      "StudyTime": "121031.366000",
      "TransmitCoilName": "Body",
      "VariableFlipAngleFlag": "N",
      "WindowCenterWidthExplanation": "Algo1"
    },
    "slices": {}
  },
  "time": {
    "samples": {
      "AcquisitionNumber": [1, 2, 3, 4, 5, 6, 7, 8, 9, 10, 11, 12, 13, 14, 15, 16, 17, 18, 19, 20, 21, 22, 23, 24, 25, 26, 27, 28, 29, 30, 31, 32, 33, 34, 35, 36, 37, 38, 39, 40, 41, 42, 43, 44, 45, 46, 47, 48, 49, 50, 51, 52, 53, 54, 55, 56, 57, 58, 59, 60, 61, 62, 63, 64, 65, 66, 67, 68, 69, 70, 71, 72, 73, 74, 75, 76, 77, 78, 79, 80, 81, 82, 83, 84, 85, 86, 87, 88, 89, 90, 91, 92, 93, 94, 95, 96, 97, 98, 99, 100, 101, 102, 103, 104, 105, 106, 107, 108, 109, 110, 111, 112, 113, 114, 115, 116, 117, 118, 119, 120, 121, 122, 123, 124, 125, 126, 127, 128, 129, 130, 131, 132, 133, 134, 135, 136, 137, 138, 139, 140, 141, 142, 143, 144, 145, 146, 147, 148, 149, 150, 151, 152, 153, 154, 155, 156, 157, 158, 159, 160, 161, 162, 163, 164, 165, 166, 167, 168, 169, 170, 171, 172, 173, 174, 175, 176, 177, 178, 179, 180, 181, 182, 183, 184, 185, 186, 187, 188, 189, 190, 191, 192, 193, 194, 195, 196, 197, 198, 199, 200, 201, 202, 203, 204, 205, 206, 207, 208, 209, 210, 211, 212, 213, 214, 215, 216, 217, 218, 219, 220, 221, 222, 223, 224, 225, 226, 227, 228, 229, 230, 231, 232, 233, 234, 235, 236, 237, 238, 239, 240, 241, 242, 243, 244, 245, 246, 247, 248, 249, 250, 251, 252, 253, 254, 255, 256, 257, 258, 259, 260, 261, 262, 263, 264, 265, 266, 267, 268, 269, 270, 271, 272, 273, 274, 275, 276, 277, 278, 279, 280, 281, 282, 283, 284, 285, 286, 287, 288, 289, 290, 291, 292, 293, 294, 295, 296, 297, 298, 299, 300, 301, 302, 303, 304, 305, 306, 307, 308, 309, 310, 311, 312, 313, 314, 315, 316, 317, 318, 319, 320, 321, 322, 323, 324, 325, 326, 327, 328, 329, 330, 331, 332, 333, 334, 335, 336, 337, 338, 339, 340, 341, 342, 343, 344, 345, 346, 347, 348, 349, 350, 351, 352, 353, 354, 355, 356, 357, 358, 359, 360, 361, 362, 363, 364, 365, 366, 367, 368, 369, 370, 371, 372, 373, 374, 375, 376, 377, 378, 379, 380, 381, 382, 383, 384, 385, 386, 387, 388, 389, 390, 391, 392, 393, 394, 395, 396, 397, 398, 399, 400, 401, 402, 403, 404, 405, 406, 407, 408, 409, 410, 411, 412, 413, 414, 415, 416, 417, 418, 419, 420, 421, 422, 423, 424, 425, 426, 427, 428, 429, 430, 431, 432, 433, 434, 435, 436, 437, 438, 439, 440, 441, 442, 443, 444, 445, 446, 447, 448, 449, 450, 451, 452, 453, 454, 455, 456, 457, 458, 459, 460, 461, 462, 463, 464, 465, 466, 467, 468, 469, 470, 471, 472, 473, 474, 475, 476, 477, 478, 479, 480, 481, 482, 483, 484, 485, 486, 487, 488, 489, 490, 491, 492, 493, 494, 495, 496, 497, 498, 499, 500, 501, 502, 503, 504, 505, 506, 507, 508, 509, 510, 511, 512, 513, 514, 515, 516, 517, 518, 519, 520, 521, 522, 523, 524, 525, 526, 527, 528, 529, 530, 531, 532, 533, 534, 535, 536, 537, 538, 539, 540, 541, 542, 543, 544, 545, 546, 547, 548, 549, 550, 551, 552, 553, 554, 555, 556, 557, 558, 559, 560, 561, 562, 563, 564, 565, 566, 567, 568, 569, 570, 571, 572, 573, 574, 575, 576, 577, 578, 579, 580, 581, 582, 583, 584, 585, 586, 587, 588, 589, 590, 591, 592, 593, 594, 595, 596, 597, 598, 599, 600, 601, 602, 603, 604, 605, 606, 607, 608, 609, 610, 611, 612, 613, 614, 615, 616, 617, 618, 619, 620, 621, 622, 623, 624, 625, 626, 627, 628, 629, 630, 631, 632, 633, 634, 635, 636, 637, 638, 639, 640, 641, 642, 643, 644, 645, 646, 647, 648, 649, 650, 651, 652, 653, 654, 655, 656, 657, 658, 659, 660, 661, 662, 663, 664, 665, 666, 667, 668, 669, 670, 671, 672, 673, 674, 675, 676, 677, 678, 679, 680, 681, 682, 683, 684, 685, 686, 687, 688, 689, 690, 691, 692, 693, 694, 695, 696, 697, 698, 699, 700, 701, 702, 703, 704, 705, 706, 707, 708, 709, 710, 711, 712, 713, 714, 715, 716, 717, 718, 719, 720, 721, 722, 723, 724, 725, 726, 727, 728, 729, 730, 731, 732, 733, 734, 735, 736, 737, 738, 739, 740, 741, 742, 743, 744, 745, 746, 747, 748, 749, 750, 751, 752, 753, 754, 755, 756, 757, 758, 759, 760, 761, 762, 763, 764, 765, 766, 767, 768, 769, 770, 771, 772, 773, 774, 775, 776, 777, 778, 779, 780, 781, 782, 783, 784, 785, 786, 787, 788, 789, 790, 791, 792, 793, 794, 795, 796, 797, 798, 799, 800, 801, 802, 803, 804, 805, 806, 807, 808, 809, 810, 811, 812, 813, 814, 815, 816, 817, 818, 819, 820, 821, 822, 823, 824, 825, 826, 827, 828, 829, 830, 831, 832, 833, 834, 835, 836, 837, 838, 839, 840, 841, 842, 843, 844, 845, 846, 847, 848, 849, 850, 851, 852, 853, 854, 855, 856, 857, 858, 859, 860, 861, 862, 863, 864, 865, 866, 867, 868, 869, 870, 871, 872],
      "AcquisitionTime": ["131046.842500", "131047.302500", "131047.762500", "131048.222500", "131048.682500", "131049.142500", "131049.602500", "131050.062500", "131050.522500", "131050.982500", "131051.442500", "131051.902500", "131052.362500", "131052.822500", "131053.282500", "131053.742500", "131054.202500", "131054.662500", "131055.122500", "131055.582500", "131056.042500", "131056.502500", "131056.962500", "131057.422500", "131057.882500", "131058.342500", "131058.802500", "131059.262500", "131059.722500", "131100.182500", "131100.642500", "131101.102500", "131101.562500", "131102.022500", "131102.482500", "131102.942500", "131103.402500", "131103.862500", "131104.322500", "131104.782500", "131105.242500", "131105.702500", "131106.162500", "131106.622500", "131107.082500", "131107.542500", "131108.002500", "131108.462500", "131108.922500", "131109.382500", "131109.842500", "131110.302500", "131110.762500", "131111.222500", "131111.682500", "131112.142500", "131112.602500", "131113.062500", "131113.522500", "131113.982500", "131114.442500", "131114.902500", "131115.362500", "131115.822500", "131116.282500", "131116.742500", "131117.202500", "131117.662500", "131118.122500", "131118.582500", "131119.042500", "131119.502500", "131119.962500", "131120.422500", "131120.882500", "131121.342500", "131121.802500", "131122.262500", "131122.722500", "131123.182500", "131123.642500", "131124.102500", "131124.562500", "131125.022500", "131125.482500", "131125.942500", "131126.402500", "131126.862500", "131127.322500", "131127.782500", "131128.242500", "131128.702500", "131129.162500", "131129.622500", "131130.082500", "131130.542500", "131131.002500", "131131.462500", "131131.922500", "131132.382500", "131132.842500", "131133.302500", "131133.762500", "131134.222500", "131134.682500", "131135.142500", "131135.602500", "131136.062500", "131136.522500", "131136.982500", "131137.442500", "131137.902500", "131138.362500", "131138.822500", "131139.282500", "131139.742500", "131140.202500", "131140.662500", "131141.122500", "131141.582500", "131142.042500", "131142.502500", "131142.962500", "131143.422500", "131143.882500", "131144.342500", "131144.802500", "131145.262500", "131145.722500", "131146.182500", "131146.642500", "131147.102500", "131147.562500", "131148.022500", "131148.482500", "131148.942500", "131149.402500", "131149.862500", "131150.322500", "131150.782500", "131151.242500", "131151.702500", "131152.162500", "131152.622500", "131153.082500", "131153.542500", "131154.002500", "131154.462500", "131154.922500", "131155.382500", "131155.842500", "131156.302500", "131156.762500", "131157.222500", "131157.682500", "131158.142500", "131158.602500", "131159.062500", "131159.522500", "131159.982500", "131200.442500", "131200.902500", "131201.362500", "131201.822500", "131202.282500", "131202.742500", "131203.202500", "131203.662500", "131204.122500", "131204.582500", "131205.042500", "131205.502500", "131205.962500", "131206.422500", "131206.882500", "131207.342500", "131207.802500", "131208.262500", "131208.722500", "131209.182500", "131209.642500", "131210.102500", "131210.562500", "131211.022500", "131211.482500", "131211.942500", "131212.402500", "131212.862500", "131213.322500", "131213.782500", "131214.242500", "131214.702500", "131215.162500", "131215.622500", "131216.082500", "131216.542500", "131217.002500", "131217.462500", "131217.922500", "131218.382500", "131218.842500", "131219.302500", "131219.762500", "131220.222500", "131220.682500", "131221.142500", "131221.602500", "131222.062500", "131222.522500", "131222.982500", "131223.442500", "131223.902500", "131224.362500", "131224.822500", "131225.282500", "131225.742500", "131226.202500", "131226.662500", "131227.122500", "131227.582500", "131228.042500", "131228.502500", "131228.962500", "131229.422500", "131229.882500", "131230.342500", "131230.802500", "131231.262500", "131231.722500", "131232.182500", "131232.642500", "131233.102500", "131233.562500", "131234.022500", "131234.482500", "131234.942500", "131235.402500", "131235.862500", "131236.322500", "131236.782500", "131237.242500", "131237.702500", "131238.162500", "131238.622500", "131239.082500", "131239.542500", "131240.002500", "131240.462500", "131240.922500", "131241.382500", "131241.842500", "131242.302500", "131242.762500", "131243.222500", "131243.682500", "131244.142500", "131244.602500", "131245.062500", "131245.522500", "131245.982500", "131246.442500", "131246.902500", "131247.362500", "131247.822500", "131248.282500", "131248.742500", "131249.202500", "131249.662500", "131250.122500", "131250.582500", "131251.042500", "131251.502500", "131251.962500", "131252.422500", "131252.882500", "131253.342500", "131253.802500", "131254.262500", "131254.722500", "131255.182500", "131255.642500", "131256.102500", "131256.562500", "131257.022500", "131257.482500", "131257.942500", "131258.402500", "131258.862500", "131259.322500", "131259.782500", "131300.242500", "131300.702500", "131301.162500", "131301.622500", "131302.082500", "131302.542500", "131303.002500", "131303.462500", "131303.922500", "131304.382500", "131304.842500", "131305.302500", "131305.762500", "131306.222500", "131306.682500", "131307.142500", "131307.602500", "131308.062500", "131308.522500", "131308.982500", "131309.442500", "131309.902500", "131310.362500", "131310.822500", "131311.282500", "131311.742500", "131312.202500", "131312.662500", "131313.122500", "131313.582500", "131314.042500", "131314.502500", "131314.962500", "131315.422500", "131315.882500", "131316.342500", "131316.802500", "131317.262500", "131317.722500", "131318.182500", "131318.642500", "131319.102500", "131319.562500", "131320.022500", "131320.482500", "131320.942500", "131321.402500", "131321.862500", "131322.322500", "131322.782500", "131323.242500", "131323.702500", "131324.162500", "131324.622500", "131325.082500", "131325.542500", "131326.002500", "131326.462500", "131326.922500", "131327.382500", "131327.842500", "131328.302500", "131328.762500", "131329.222500", "131329.682500", "131330.142500", "131330.602500", "131331.062500", "131331.522500", "131331.982500", "131332.442500", "131332.902500", "131333.362500", "131333.822500", "131334.282500", "131334.742500", "131335.202500", "131335.662500", "131336.122500", "131336.582500", "131337.042500", "131337.502500", "131337.962500", "131338.422500", "131338.882500", "131339.342500", "131339.802500", "131340.262500", "131340.722500", "131341.182500", "131341.642500", "131342.102500", "131342.562500", "131343.022500", "131343.482500", "131343.942500", "131344.402500", "131344.862500", "131345.322500", "131345.782500", "131346.242500", "131346.702500", "131347.162500", "131347.622500", "131348.082500", "131348.542500", "131349.002500", "131349.462500", "131349.922500", "131350.382500", "131350.842500", "131351.302500", "131351.762500", "131352.222500", "131352.682500", "131353.142500", "131353.602500", "131354.062500", "131354.522500", "131354.982500", "131355.442500", "131355.902500", "131356.362500", "131356.822500", "131357.282500", "131357.742500", "131358.202500", "131358.662500", "131359.122500", "131359.582500", "131400.042500", "131400.502500", "131400.962500", "131401.422500", "131401.882500", "131402.342500", "131402.802500", "131403.262500", "131403.722500", "131404.182500", "131404.642500", "131405.102500", "131405.562500", "131406.022500", "131406.482500", "131406.942500", "131407.402500", "131407.862500", "131408.322500", "131408.782500", "131409.242500", "131409.702500", "131410.162500", "131410.622500", "131411.082500", "131411.542500", "131412.002500", "131412.462500", "131412.922500", "131413.382500", "131413.842500", "131414.302500", "131414.762500", "131415.222500", "131415.682500", "131416.142500", "131416.602500", "131417.062500", "131417.522500", "131417.982500", "131418.442500", "131418.902500", "131419.362500", "131419.822500", "131420.282500", "131420.742500", "131421.202500", "131421.662500", "131422.122500", "131422.582500", "131423.042500", "131423.502500", "131423.962500", "131424.422500", "131424.882500", "131425.342500", "131425.802500", "131426.262500", "131426.722500", "131427.182500", "131427.642500", "131428.102500", "131428.562500", "131429.022500", "131429.482500", "131429.942500", "131430.402500", "131430.862500", "131431.322500", "131431.782500", "131432.242500", "131432.702500", "131433.162500", "131433.622500", "131434.082500", "131434.542500", "131435.002500", "131435.462500", "131435.922500", "131436.382500", "131436.842500", "131437.302500", "131437.762500", "131438.222500", "131438.682500", "131439.142500", "131439.602500", "131440.062500", "131440.522500", "131440.982500", "131441.442500", "131441.902500", "131442.362500", "131442.822500", "131443.282500", "131443.742500", "131444.202500", "131444.662500", "131445.122500", "131445.582500", "131446.042500", "131446.502500", "131446.962500", "131447.422500", "131447.882500", "131448.342500", "131448.802500", "131449.262500", "131449.722500", "131450.182500", "131450.642500", "131451.102500", "131451.562500", "131452.022500", "131452.482500", "131452.942500", "131453.402500", "131453.862500", "131454.322500", "131454.782500", "131455.242500", "131455.702500", "131456.162500", "131456.622500", "131457.082500", "131457.542500", "131458.002500", "131458.462500", "131458.922500", "131459.382500", "131459.842500", "131500.302500", "131500.762500", "131501.222500", "131501.682500", "131502.142500", "131502.602500", "131503.062500", "131503.522500", "131503.982500", "131504.442500", "131504.902500", "131505.362500", "131505.822500", "131506.282500", "131506.742500", "131507.202500", "131507.662500", "131508.122500", "131508.582500", "131509.042500", "131509.502500", "131509.962500", "131510.422500", "131510.882500", "131511.342500", "131511.802500", "131512.262500", "131512.722500", "131513.182500", "131513.642500", "131514.102500", "131514.562500", "131515.022500", "131515.482500", "131515.942500", "131516.402500", "131516.862500", "131517.322500", "131517.782500", "131518.242500", "131518.702500", "131519.162500", "131519.622500", "131520.082500", "131520.542500", "131521.002500", "131521.462500", "131521.922500", "131522.382500", "131522.842500", "131523.302500", "131523.762500", "131524.222500", "131524.682500", "131525.142500", "131525.602500", "131526.062500", "131526.522500", "131526.982500", "131527.442500", "131527.902500", "131528.362500", "131528.822500", "131529.282500", "131529.742500", "131530.202500", "131530.662500", "131531.122500", "131531.582500", "131532.042500", "131532.502500", "131532.962500", "131533.422500", "131533.882500", "131534.342500", "131534.802500", "131535.262500", "131535.722500", "131536.182500", "131536.642500", "131537.102500", "131537.562500", "131538.022500", "131538.482500", "131538.942500", "131539.402500", "131539.862500", "131540.322500", "131540.782500", "131541.242500", "131541.702500", "131542.162500", "131542.622500", "131543.082500", "131543.542500", "131544.002500", "131544.462500", "131544.922500", "131545.382500", "131545.842500", "131546.302500", "131546.762500", "131547.222500", "131547.682500", "131548.142500", "131548.602500", "131549.062500", "131549.522500", "131549.982500", "131550.442500", "131550.902500", "131551.362500", "131551.822500", "131552.282500", "131552.742500", "131553.202500", "131553.662500", "131554.122500", "131554.582500", "131555.042500", "131555.502500", "131555.962500", "131556.422500", "131556.882500", "131557.342500", "131557.802500", "131558.262500", "131558.722500", "131559.182500", "131559.642500", "131600.102500", "131600.562500", "131601.022500", "131601.482500", "131601.942500", "131602.402500", "131602.862500", "131603.322500", "131603.782500", "131604.242500", "131604.702500", "131605.162500", "131605.622500", "131606.082500", "131606.542500", "131607.002500", "131607.462500", "131607.922500", "131608.382500", "131608.842500", "131609.302500", "131609.762500", "131610.222500", "131610.682500", "131611.142500", "131611.602500", "131612.062500", "131612.522500", "131612.982500", "131613.442500", "131613.902500", "131614.362500", "131614.822500", "131615.282500", "131615.742500", "131616.202500", "131616.662500", "131617.122500", "131617.582500", "131618.042500", "131618.502500", "131618.962500", "131619.422500", "131619.882500", "131620.342500", "131620.802500", "131621.262500", "131621.722500", "131622.182500", "131622.642500", "131623.102500", "131623.562500", "131624.022500", "131624.482500", "131624.942500", "131625.402500", "131625.862500", "131626.322500", "131626.782500", "131627.242500", "131627.702500", "131628.162500", "131628.622500", "131629.082500", "131629.542500", "131630.002500", "131630.462500", "131630.922500", "131631.382500", "131631.842500", "131632.302500", "131632.762500", "131633.222500", "131633.682500", "131634.142500", "131634.602500", "131635.062500", "131635.522500", "131635.982500", "131636.442500", "131636.902500", "131637.362500", "131637.822500", "131638.282500", "131638.742500", "131639.202500", "131639.662500", "131640.122500", "131640.582500", "131641.042500", "131641.502500", "131641.962500", "131642.422500", "131642.882500", "131643.342500", "131643.802500", "131644.262500", "131644.722500", "131645.182500", "131645.642500", "131646.102500", "131646.562500", "131647.022500", "131647.482500", "131647.942500", "131648.402500", "131648.862500", "131649.322500", "131649.782500", "131650.242500", "131650.702500", "131651.162500", "131651.622500", "131652.082500", "131652.542500", "131653.002500", "131653.462500", "131653.922500", "131654.382500", "131654.842500", "131655.302500", "131655.762500", "131656.222500", "131656.682500", "131657.142500", "131657.602500", "131658.062500", "131658.522500", "131658.982500", "131659.442500", "131659.902500", "131700.362500", "131700.822500", "131701.282500", "131701.742500", "131702.202500", "131702.662500", "131703.122500", "131703.582500", "131704.042500", "131704.502500", "131704.962500", "131705.422500", "131705.882500", "131706.342500", "131706.802500", "131707.262500", "131707.722500", "131708.182500", "131708.642500", "131709.102500", "131709.562500", "131710.022500", "131710.482500", "131710.942500", "131711.402500", "131711.862500", "131712.322500", "131712.782500", "131713.242500", "131713.702500", "131714.162500", "131714.622500", "131715.082500", "131715.542500", "131716.002500", "131716.462500", "131716.922500", "131717.382500", "131717.842500", "131718.302500", "131718.762500", "131719.222500", "131719.682500", "131720.142500", "131720.602500", "131721.062500", "131721.522500", "131721.982500", "131722.442500", "131722.902500", "131723.362500", "131723.822500", "131724.282500", "131724.742500", "131725.202500", "131725.662500", "131726.122500", "131726.582500", "131727.042500", "131727.502500"],
