{
  "AcquisitionMatrixPE": 140,
  "AcquisitionNumber": 1,
  "AcquisitionTime": "18:42:1.000000",
  "BandwidthPerPixelPhaseEncode": 10.352,
  "BaseResolution": 140,
  "BodyPartExamined": "BRAIN",
  "ConsistencyInfo": "N4_VE11E_LATEST_20181129",
  "ConversionSoftware": "dcm2niix",
  "ConversionSoftwareVersion": "v1.0.20201102",
  "DerivedVendorReportedEchoSpacing": 0.000689998,
  "DeviceSerialNumber": "66112",
  "DiffusionScheme": "Monopolar",
  "DwellTime": 2.1e-06,
  "EchoTime": 0.088,
  "EchoTrainLength": 105,
  "EffectiveEchoSpacing": 0.000689998,
  "FlipAngle": 90,
  "ImageComments": "Unaliased MB3/PE3",
  "ImageOrientationPatientDICOM": [0.999247, -0.00473128, 0.0385206, -0.00261602, 0.982073, 0.188484],
  "ImageType": [
    "ORIGINAL",
    "PRIMARY",
    "DIFFUSION",
    "NONE",
    "MB",
    "ND"
],
  "ImagingFrequency": 123.259,
  "InPlanePhaseEncodingDirectionDICOM": "COL",
  "InstitutionAddress": "Maynard 3,Hanover,NH,US,03755",
  "InstitutionName": "Dartmouth College - PBS",
  "InstitutionalDepartmentName": "Department",
  "IntendedFor": [
    "ses-01/dwi/sub-0105_ses-01_acq-96dirX6b0Xmb_dwi.nii.gz"
],
  "MRAcquisitionType": "2D",
  "MagneticFieldStrength": 3,
  "Manufacturer": "Siemens",
  "ManufacturersModelName": "Prisma",
  "Modality": "MR",
  "MultibandAccelerationFactor": 3,
  "PartialFourier": 0.75,
  "PatientPosition": "HFS",
  "PercentPhaseFOV": 100,
  "PercentSampling": 100,
  "PhaseEncodingDirection": "j-",
  "PhaseEncodingSteps": 105,
  "PhaseResolution": 1,
  "PixelBandwidth": 1700,
  "ProcedureStepDescription": "Wager_Wager^1076_spacetop",
  "ProtocolName": "dwi_acq-discorr-AP",
  "PulseSequenceDetails": "%CustomerSeq%\\cmrr_mbep2d_diff",
  "ReceiveCoilActiveElements": "HEA;HEP",
  "ReceiveCoilName": "Head_32",
  "ReconMatrixPE": 140,
  "RepetitionTime": 4.1,
  "SAR": 0.205587,
  "ScanOptions": "PFP\\FS",
  "ScanningSequence": "EP",
  "SequenceName": "ep_b0",
  "SequenceVariant": "SK\\SS",
  "SeriesDescription": "dwi_acq-discorr-AP",
  "SeriesNumber": 7,
  "ShimSetting": [4213, -7771, -7262, 226, -161, -93, -39, 57],
  "SliceThickness": 1.7,
  "SliceTiming": [0, 2.10938, 0.15625, 2.26562, 0.29688, 2.42188, 0.45312, 2.5625, 0.60938, 2.71875, 0.75, 2.875, 0.90625, 3.01562, 1.0625, 3.17188, 1.20312, 3.32812, 1.35938, 3.46875, 1.51562, 3.625, 1.65625, 3.78125, 1.8125, 3.92188, 1.96875, 0, 2.10938, 0.15625, 2.26562, 0.29688, 2.42188, 0.45312, 2.5625, 0.60938, 2.71875, 0.75, 2.875, 0.90625, 3.01562, 1.0625, 3.17188, 1.20312, 3.32812, 1.35938, 3.46875, 1.51562, 3.625, 1.65625, 3.78125, 1.8125, 3.92188, 1.96875, 0, 2.10938, 0.15625, 2.26562, 0.29688, 2.42188, 0.45312, 2.5625, 0.60938, 2.71875, 0.75, 2.875, 0.90625, 3.01562, 1.0625, 3.17188, 1.20312, 3.32812, 1.35938, 3.46875, 1.51562, 3.625, 1.65625, 3.78125, 1.8125, 3.92188, 1.96875],
  "SoftwareVersions": "syngo MR E11",
  "SpacingBetweenSlices": 1.7,
  "StationName": "AWP66112",
  "TotalReadoutTime": 0.0959097,
  "TxRefAmp": 283.487,
  "WipMemBlock": "efbdfd29-2046-4673-bca1-fa06bfbd9c62||Sequence: R016 ve11e/master r/434b28f1; Aug  7 2019 19:06:17 by eja",
  "dcmmeta_affine": [
    [-1.7129942178726196, -0.004484598524868488, 0.065826416015625, 123.19049072265625],
    [0.008110766299068928, 1.6835533380508423, 0.32035064697265625, -92.2139663696289],
    [0.06603526324033737, -0.3231152296066284, 1.6682510375976562, -39.772953033447266],
    [0.0, 0.0, 0.0, 1.0]
],
  "dcmmeta_reorient_transform": [
    [0.0, -1.0, 0.0, 139.0],
    [1.0, 0.0, 0.0, 0.0],
    [0.0, 0.0, -1.0, 80.0],
    [0.0, 0.0, 0.0, 1.0]
],
  "dcmmeta_shape": [140, 140, 81],
  "dcmmeta_slice_dim": 2,
  "dcmmeta_version": 0.6,
  "global": {
    "const": {
      "AccessionNumber": "A004368",
      "AcquisitionMatrix": [140, 0, 0, 140],
      "AcquisitionNumber": 1,
      "AngioFlag": "N",
      "BitsAllocated": 16,
      "BitsStored": 16,
      "BodyPartExamined": "BRAIN",
      "Columns": 140,
      "EchoNumbers": 1,
      "EchoTime": 88.0,
      "EchoTrainLength": 105,
      "FlipAngle": 90.0,
      "HighBit": 15,
      "ImageOrientationPatient": [0.99924660657127, -0.0047312802488, 0.03852056908982, -0.0026160156715, 0.98207279897659, 0.1884838825266],
      "ImageType": [
        "ORIGINAL",
        "PRIMARY",
        "DIFFUSION",
        "NONE",
        "MB",
        "ND"
],
      "ImagedNucleus": "1H",
      "ImagingFrequency": 123.259089,
      "InPlanePhaseEncodingDirection": "COL",
      "MRAcquisitionType": "2D",
      "MagneticFieldStrength": 3.0,
      "Manufacturer": "SIEMENS",
      "ManufacturerModelName": "Prisma",
      "Modality": "MR",
      "NumberOfAverages": 1.0,
      "NumberOfPhaseEncodingSteps": 105,
      "PercentPhaseFieldOfView": 100.0,
      "PercentSampling": 100.0,
      "PerformedProcedureStepStartTime": "182153.808000",
      "PhotometricInterpretation": "MONOCHROME2",
      "PixelBandwidth": 1700.0,
      "PixelRepresentation": 0,
      "PixelSpacing": [1.7142857313156, 1.7142857313156],
      "ProtocolName": "dwi_acq-discorr-AP",
      "RepetitionTime": 4100.0,
      "Rows": 140,
      "SAR": 0.20558682932174,
      "SamplesPerPixel": 1,
      "ScanOptions": [
        "PFP",
        "FS"
],
      "ScanningSequence": "EP",
      "SequenceName": "ep_b0",
      "SequenceVariant": [
        "SK",
        "SS"
],
      "SeriesDescription": "dwi_acq-discorr-AP",
      "SeriesNumber": 7,
      "SeriesTime": "184205.767000",
      "SliceThickness": 1.7000000476837,
      "SmallestImagePixelValue": 0,
      "SoftwareVersions": "syngo MR E11",
      "SpacingBetweenSlices": 1.7,
      "SpecificCharacterSet": "ISO_IR 100",
      "StudyID": "1",
      "StudyTime": "182153.680000",
      "TransmitCoilName": "Body",
      "VariableFlipAngleFlag": "N",
      "WindowCenterWidthExplanation": "Algo1"
    },
    "slices": {
      "AcquisitionTime": ["184201.000000", "184203.115000", "184201.150000", "184203.265000", "184201.302500", "184203.417500", "184201.452500", "184203.567500", "184201.605000", "184203.720000", "184201.755000", "184203.870000", "184201.905000", "184204.022500", "184202.057500", "184204.172500", "184202.207500", "184204.325000", "184202.360000", "184204.475000", "184202.510000", "184204.625000", "184202.662500", "184204.777500", "184202.812500", "184204.927500", "184202.965000", "184201.000000", "184203.115000", "184201.150000", "184203.265000", "184201.302500", "184203.417500", "184201.452500", "184203.567500", "184201.605000", "184203.720000", "184201.755000", "184203.870000", "184201.905000", "184204.022500", "184202.057500", "184204.172500", "184202.207500", "184204.325000", "184202.360000", "184204.475000", "184202.510000", "184204.625000", "184202.662500", "184204.777500", "184202.812500", "184204.927500", "184202.965000", "184201.000000", "184203.115000", "184201.150000", "184203.265000", "184201.302500", "184203.417500", "184201.452500", "184203.567500", "184201.605000", "184203.720000", "184201.755000", "184203.870000", "184201.905000", "184204.022500", "184202.057500", "184204.172500", "184202.207500", "184204.325000", "184202.360000", "184204.475000", "184202.510000", "184204.625000", "184202.662500", "184204.777500", "184202.812500", "184204.927500", "184202.965000"],
      "ContentTime": ["184205.770000", "184205.859000", "184205.777000", "184205.865000", "184205.783000", "184205.871000", "184205.789000", "184205.877000", "184205.795000", "184205.883000", "184205.801000", "184205.890000", "184205.807000", "184205.896000", "184205.813000", "184205.902000", "184205.819000", "184205.908000", "184205.825000", "184205.914000", "184205.831000", "184205.920000", "184205.837000", "184205.926000", "184205.847000", "184205.933000", "184205.853000", "184205.773000", "184205.861000", "184205.779000", "184205.867000", "184205.785000", "184205.873000", "184205.791000", "184205.879000", "184205.797000", "184205.885000", "184205.803000", "184205.892000", "184205.809000", "184205.898000", "184205.815000", "184205.904000", "184205.821000", "184205.910000", "184205.827000", "184205.916000", "184205.833000", "184205.922000", "184205.843000", "184205.929000", "184205.849000", "184205.935000", "184205.855000", "184205.775000", "184205.863000", "184205.781000", "184205.869000", "184205.787000", "184205.875000", "184205.793000", "184205.881000", "184205.799000", "184205.887000", "184205.805000", "184205.894000", "184205.811000", "184205.900000", "184205.817000", "184205.906000", "184205.823000", "184205.912000", "184205.829000", "184205.918000", "184205.835000", "184205.924000", "184205.845000", "184205.931000", "184205.851000", "184205.937000", "184205.857000"],
      "CsaImage.GSWDDataType": [
        "predicted",
        "predicted",
        "predicted",
        "predicted",
        "predicted",
        "predicted",
        "predicted",
        "predicted",
        "predicted",
        "predicted",
        "predicted",
        "predicted",
        "predicted",
        "predicted",
        "predicted",
        "predicted",
        "predicted",
        "predicted",
        "predicted",
        "predicted",
        "predicted",
        "predicted",
        "predicted",
        "measured",
        "predicted",
        "measured",
        "predicted",
        "predicted",
        "predicted",
        "predicted",
        "predicted",
        "predicted",
        "predicted",
        "predicted",
        "predicted",
        "predicted",
        "predicted",
        "predicted",
        "predicted",
        "predicted",
        "predicted",
        "predicted",
        "predicted",
        "predicted",
        "predicted",
        "predicted",
        "predicted",
        "predicted",
        "predicted",
        "predicted",
        "measured",
        "predicted",
        "measured",
        "predicted",
        "predicted",
        "predicted",
        "predicted",
        "predicted",
        "predicted",
        "predicted",
        "predicted",
        "predicted",
        "predicted",
        "predicted",
        "predicted",
        "predicted",
        "predicted",
        "predicted",
        "predicted",
        "predicted",
        "predicted",
        "predicted",
        "predicted",
        "predicted",
        "predicted",
        "predicted",
        "predicted",
        "measured",
        "predicted",
        "measured",
        "predicted"
],
      "CsaImage.ICE_Dims": [
        "X_1_1_1_1_1_1_1_1_1_1_1_174",
        "X_1_1_1_1_1_1_42_1_1_2_1_174",
        "X_1_1_1_1_1_1_2_1_1_3_1_174",
        "X_1_1_1_1_1_1_43_1_1_4_1_174",
        "X_1_1_1_1_1_1_3_1_1_5_1_174",
        "X_1_1_1_1_1_1_44_1_1_6_1_174",
        "X_1_1_1_1_1_1_4_1_1_7_1_174",
        "X_1_1_1_1_1_1_45_1_1_8_1_174",
        "X_1_1_1_1_1_1_5_1_1_9_1_174",
        "X_1_1_1_1_1_1_46_1_1_10_1_174",
        "X_1_1_1_1_1_1_6_1_1_11_1_174",
        "X_1_1_1_1_1_1_47_1_1_12_1_174",
        "X_1_1_1_1_1_1_7_1_1_13_1_174",
        "X_1_1_1_1_1_1_48_1_1_14_1_174",
        "X_1_1_1_1_1_1_8_1_1_15_1_174",
        "X_1_1_1_1_1_1_49_1_1_16_1_174",
        "X_1_1_1_1_1_1_9_1_1_17_1_174",
        "X_1_1_1_1_1_1_50_1_1_18_1_174",
        "X_1_1_1_1_1_1_10_1_1_19_1_174",
        "X_1_1_1_1_1_1_51_1_1_20_1_174",
        "X_1_1_1_1_1_1_11_1_1_21_1_174",
        "X_1_1_1_1_1_1_52_1_1_22_1_174",
        "X_1_1_1_1_1_1_12_1_1_23_1_174",
        "X_1_1_1_1_1_1_53_1_1_24_1_174",
        "X_1_1_1_1_1_1_13_1_1_25_1_174",
        "X_1_1_1_1_1_1_54_1_1_26_1_174",
        "X_1_1_1_1_1_1_14_1_1_27_1_174",
        "X_1_1_1_1_1_1_55_1_1_28_1_174",
        "X_1_1_1_1_1_1_15_1_1_29_1_174",
        "X_1_1_1_1_1_1_56_1_1_30_1_174",
        "X_1_1_1_1_1_1_16_1_1_31_1_174",
        "X_1_1_1_1_1_1_57_1_1_32_1_174",
        "X_1_1_1_1_1_1_17_1_1_33_1_174",
        "X_1_1_1_1_1_1_58_1_1_34_1_174",
        "X_1_1_1_1_1_1_18_1_1_35_1_174",
        "X_1_1_1_1_1_1_59_1_1_36_1_174",
        "X_1_1_1_1_1_1_19_1_1_37_1_174",
        "X_1_1_1_1_1_1_60_1_1_38_1_174",
        "X_1_1_1_1_1_1_20_1_1_39_1_174",
        "X_1_1_1_1_1_1_61_1_1_40_1_174",
        "X_1_1_1_1_1_1_21_1_1_41_1_174",
        "X_1_1_1_1_1_1_62_1_1_42_1_174",
        "X_1_1_1_1_1_1_22_1_1_43_1_174",
        "X_1_1_1_1_1_1_63_1_1_44_1_174",
        "X_1_1_1_1_1_1_23_1_1_45_1_174",
        "X_1_1_1_1_1_1_64_1_1_46_1_174",
        "X_1_1_1_1_1_1_24_1_1_47_1_174",
        "X_1_1_1_1_1_1_65_1_1_48_1_174",
        "X_1_1_1_1_1_1_25_1_1_49_1_174",
        "X_1_1_1_1_1_1_66_1_1_50_1_174",
        "X_1_1_1_1_1_1_26_1_1_51_1_174",
        "X_1_1_1_1_1_1_67_1_1_52_1_174",
        "X_1_1_1_1_1_1_27_1_1_53_1_174",
        "X_1_1_1_1_1_1_68_1_1_54_1_174",
        "X_1_1_1_1_1_1_28_1_1_55_1_174",
        "X_1_1_1_1_1_1_69_1_1_56_1_174",
        "X_1_1_1_1_1_1_29_1_1_57_1_174",
        "X_1_1_1_1_1_1_70_1_1_58_1_174",
        "X_1_1_1_1_1_1_30_1_1_59_1_174",
        "X_1_1_1_1_1_1_71_1_1_60_1_174",
        "X_1_1_1_1_1_1_31_1_1_61_1_174",
        "X_1_1_1_1_1_1_72_1_1_62_1_174",
        "X_1_1_1_1_1_1_32_1_1_63_1_174",
        "X_1_1_1_1_1_1_73_1_1_64_1_174",
        "X_1_1_1_1_1_1_33_1_1_65_1_174",
        "X_1_1_1_1_1_1_74_1_1_66_1_174",
        "X_1_1_1_1_1_1_34_1_1_67_1_174",
        "X_1_1_1_1_1_1_75_1_1_68_1_174",
        "X_1_1_1_1_1_1_35_1_1_69_1_174",
        "X_1_1_1_1_1_1_76_1_1_70_1_174",
        "X_1_1_1_1_1_1_36_1_1_71_1_174",
        "X_1_1_1_1_1_1_77_1_1_72_1_174",
        "X_1_1_1_1_1_1_37_1_1_73_1_174",
        "X_1_1_1_1_1_1_78_1_1_74_1_174",
        "X_1_1_1_1_1_1_38_1_1_75_1_174",
        "X_1_1_1_1_1_1_79_1_1_76_1_174",
        "X_1_1_1_1_1_1_39_1_1_77_1_174",
        "X_1_1_1_1_1_1_80_1_1_78_1_174",
        "X_1_1_1_1_1_1_40_1_1_79_1_174",
        "X_1_1_1_1_1_1_81_1_1_80_1_174",
        "X_1_1_1_1_1_1_41_1_1_81_1_174"
],
      "CsaImage.ProtocolSliceNumber": [0, 1, 2, 3, 4, 5, 6, 7, 8, 9, 10, 11, 12, 13, 14, 15, 16, 17, 18, 19, 20, 21, 22, 23, 24, 25, 26, 27, 28, 29, 30, 31, 32, 33, 34, 35, 36, 37, 38, 39, 40, 41, 42, 43, 44, 45, 46, 47, 48, 49, 50, 51, 52, 53, 54, 55, 56, 57, 58, 59, 60, 61, 62, 63, 64, 65, 66, 67, 68, 69, 70, 71, 72, 73, 74, 75, 76, 77, 78, 79, 80],
      "CsaImage.RFSWDDataType": [
        "predicted",
        "predicted",
        "predicted",
        "predicted",
        "predicted",
        "predicted",
        "predicted",
        "predicted",
        "predicted",
        "predicted",
        "predicted",
        "predicted",
        "predicted",
        "predicted",
        "predicted",
        "predicted",
        "predicted",
        "predicted",
        "predicted",
        "predicted",
        "predicted",
        "predicted",
        "predicted",
        "measured",
        "predicted",
        "measured",
        "predicted",
        "predicted",
        "predicted",
        "predicted",
        "predicted",
        "predicted",
        "predicted",
        "predicted",
        "predicted",
        "predicted",
        "predicted",
        "predicted",
        "predicted",
        "predicted",
        "predicted",
        "predicted",
        "predicted",
        "predicted",
        "predicted",
        "predicted",
        "predicted",
        "predicted",
        "predicted",
        "predicted",
        "measured",
        "predicted",
        "measured",
        "predicted",
        "predicted",
        "predicted",
        "predicted",
        "predicted",
        "predicted",
        "predicted",
        "predicted",
        "predicted",
        "predicted",
        "predicted",
        "predicted",
        "predicted",
        "predicted",
        "predicted",
        "predicted",
        "predicted",
        "predicted",
        "predicted",
        "predicted",
        "predicted",
        "predicted",
        "predicted",
        "predicted",
        "measured",
        "predicted",
        "measured",
        "predicted"
],
      "CsaImage.SlicePosition_PCS": [
        [-122.56708738, -141.79980894, -84.68548075],
        [-122.63291451, -142.1201615, -83.01723735],
        [-122.6987414, -142.44051405, -81.34899012],
        [-122.76456853, -142.76086661, -79.68074671],
        [-122.83039543, -143.08121916, -78.01250331],
        [-122.89622256, -143.40157172, -76.34425608],
        [-122.96204945, -143.72192427, -74.67601268],
        [-123.02787658, -144.04227682, -73.00776545],
        [-123.09370347, -144.36262938, -71.33952204],
        [-123.15953061, -144.68298193, -69.67127864],
        [-123.2253575, -145.00333449, -68.00303141],
        [-123.29118463, -145.32368704, -66.334788],
        [-123.35701152, -145.6440396, -64.66654078],
        [-123.42283865, -145.96439215, -62.99829737],
        [-123.48866555, -146.2847447, -61.33005397],
        [-123.55449268, -146.60509726, -59.66180674],
        [-123.62031981, -146.92544981, -57.99356333],
        [-123.6861467, -147.24580237, -56.32531802],
        [-123.75197359, -147.56615492, -54.6570727],
        [-123.81780049, -147.88650748, -52.98882739],
        [-123.88362738, -148.20686003, -51.32058207],
        [-123.94945475, -148.52721258, -49.65233866],
        [-124.01528164, -148.84756514, -47.98409335],
        [-124.08110854, -149.16791769, -46.31584803],
        [-124.14693543, -149.48827025, -44.64760272],
        [-124.2127628, -149.80862089, -42.97935836],
        [-124.27858969, -150.12897536, -41.31111304],
        [-124.34441658, -150.449326, -39.64286868],
        [-124.41024348, -150.76968046, -37.97462336],
        [-124.47607085, -151.09003111, -36.306379],
        [-124.54189774, -151.41038557, -34.63813368],
        [-124.60772463, -151.73073622, -32.96988885],
        [-124.67355152, -152.05109068, -31.30164401],
        [-124.73937889, -152.37144133, -29.63339917],
        [-124.80520579, -152.69179579, -27.96515427],
        [-124.87103268, -153.01214644, -26.29690931],
        [-124.93685957, -153.3325009, -24.62866441],
        [-125.00268694, -153.65285155, -22.96041934],
        [-125.06851384, -153.97320601, -21.2921745],
        [-125.13434073, -154.29355665, -19.62392966],
        [-125.20016762, -154.61391112, -17.95568434],
        [-125.26599499, -154.93426176, -16.28743998],
        [-125.33182188, -155.25461622, -14.61919467],
        [-125.39764878, -155.57496687, -12.9509503],
        [-125.46347567, -155.89532133, -11.28270499],
        [-125.52930304, -156.21567198, -9.61446063],
        [-125.59512993, -156.53602644, -7.94621531],
        [-125.66095683, -156.85637709, -6.27797],
        [-125.72678372, -157.17673155, -4.60972468],
        [-125.79261061, -157.4970822, -2.94148127],
        [-125.85843798, -157.81743666, -1.27323596],
        [-125.92426487, -158.13778731, 0.39500936],
        [-125.99009177, -158.45814177, 2.06325467],
        [-126.05591866, -158.77849242, 3.73149808],
        [-126.12174603, -159.09884688, 5.3997434],
        [-126.18757292, -159.41919752, 7.06799062],
        [-126.25339981, -159.73955199, 8.73623403],
        [-126.31922671, -160.05990263, 10.40447744],
        [-126.38505408, -160.38025709, 12.07272466],
        [-126.45088097, -160.70060774, 13.74096807],
        [-126.51670786, -161.02095839, 15.40921148],
        [-126.58253476, -161.34131285, 17.0774587],
        [-126.64836213, -161.6616635, 18.74570211],
        [-126.71418902, -161.98201796, 20.41394933],
        [-126.78001591, -162.30236861, 22.08219274],
        [-126.8458428, -162.62272307, 23.75043615],
        [-126.91167017, -162.94307371, 25.41868337],
        [-126.97749707, -163.26342818, 27.08692678],
        [-127.04332396, -163.58377882, 28.755174],
        [-127.10915085, -163.90413328, 30.42341741],
        [-127.17497822, -164.22448393, 32.09166082],
        [-127.24080511, -164.54483839, 33.75990804],
        [-127.30663201, -164.86518904, 35.42815145],
        [-127.3724589, -165.1855435, 37.09639486],
        [-127.43828627, -165.50589415, 38.76464589],
        [-127.50411316, -165.82624861, 40.4328893],
        [-127.56994006, -166.14659926, 42.10113271],
        [-127.63576743, -166.46695372, 43.76937612],
        [-127.70159384, -166.78730437, 45.43761953],
        [-127.76742121, -167.10765883, 47.10586294],
        [-127.83324763, -167.42800947, 48.77411397]
],
      "CsaImage.TimeAfterStart": [16.4, 18.515, 16.55, 18.665, 16.7, 18.8175, 16.8525, 18.9675, 17.0025, 19.12, 17.155, 19.27, 17.305, 19.42, 17.4575, 19.5725, 17.6075, 19.7225, 17.76, 19.875, 17.91, 20.025, 18.06, 20.1775, 18.2125, 20.3275, 18.3625, 16.4, 18.515, 16.55, 18.665, 16.7, 18.8175, 16.8525, 18.9675, 17.0025, 19.12, 17.155, 19.27, 17.305, 19.42, 17.4575, 19.5725, 17.6075, 19.7225, 17.76, 19.875, 17.91, 20.025, 18.06, 20.1775, 18.2125, 20.3275, 18.3625, 16.4, 18.515, 16.55, 18.665, 16.7, 18.8175, 16.8525, 18.9675, 17.0025, 19.12, 17.155, 19.27, 17.305, 19.42, 17.4575, 19.5725, 17.6075, 19.7225, 17.76, 19.875, 17.91, 20.025, 18.06, 20.1775, 18.2125, 20.3275, 18.3625],
      "ImagePositionPatient": [
        [-122.56708737734, -141.79980894342, -84.685480753643],
        [-122.63291450862, -142.12016149774, -83.01723734544],
        [-122.69874140147, -142.44051405206, -81.34899012254],
        [-122.76456853274, -142.76086660638, -79.680746714337],
        [-122.83039542559, -143.08121916071, -78.012503306134],
        [-122.89622255686, -143.40157171503, -76.344256083233],
        [-122.96204944972, -143.72192426935, -74.67601267503],
        [-123.02787658099, -144.04227682367, -73.00776545213],
        [-123.09370347384, -144.36262937799, -71.339522043926],
        [-123.15953060511, -144.68298193231, -69.671278635723],
        [-123.22535749796, -145.00333448663, -68.003031412823],
        [-123.29118462924, -145.32368704096, -66.33478800462],
        [-123.35701152209, -145.64403959528, -64.666540781719],
        [-123.42283865336, -145.9643921496, -62.998297373516],
        [-123.48866554621, -146.28474470392, -61.330053965313],
        [-123.55449267748, -146.60509725824, -59.661806742413],
        [-123.62031980876, -146.92544981256, -57.99356333421],
        [-123.68614670161, -147.24580236688, -56.325318018658],
        [-123.75197359446, -147.5661549212, -54.657072703106],
        [-123.81780048731, -147.88650747553, -52.988827387554],
        [-123.88362738017, -148.20686002985, -51.320582072003],
        [-123.94945474986, -148.52721258417, -49.6523386638],
        [-124.01528164271, -148.84756513849, -47.984093348248],
        [-124.08110853556, -149.16791769281, -46.315848032696],
        [-124.14693542842, -149.48827024713, -44.647602717144],
        [-124.21276279811, -149.8086208941, -42.979358355267],
        [-124.27858969096, -150.12897535577, -41.311113039715],
        [-124.34441658381, -150.44932600275, -39.642868677838],
        [-124.41024347666, -150.76968046442, -37.974623362286],
        [-124.47607084635, -151.09003111139, -36.306379000408],
        [-124.54189773921, -151.41038557306, -34.638133684857],
        [-124.60772463206, -151.73073622003, -32.969888846142],
        [-124.67355152491, -152.0510906817, -31.301644007427],
        [-124.7393788946, -152.37144132867, -29.633399168713],
        [-124.80520578745, -152.69179579034, -27.965154270394],
        [-124.87103268031, -153.01214643732, -26.29690931247],
        [-124.93685957316, -153.33250089899, -24.62866441415],
        [-125.00268694285, -153.65285154596, -22.960419337017],
        [-125.0685138357, -153.97320600763, -21.292174498303],
        [-125.13434072856, -154.2935566546, -19.623929659588],
        [-125.20016762141, -154.61391111627, -17.955684344036],
        [-125.2659949911, -154.93426176325, -16.287439982159],
        [-125.33182188395, -155.25461622492, -14.619194666607],
        [-125.3976487768, -155.57496687189, -12.95095030473],
        [-125.46347566966, -155.89532133356, -11.282704989178],
        [-125.52930303935, -156.21567198053, -9.6144606273005],
        [-125.5951299322, -156.5360264422, -7.9462153117488],
        [-125.66095682505, -156.85637708917, -6.277969996197],
        [-125.7267837179, -157.17673155084, -4.6097246806452],
        [-125.79261061076, -157.49708219782, -2.9414812724421],
        [-125.85843798045, -157.81743665949, -1.2732359568904],
        [-125.9242648733, -158.13778730646, 0.39500935866139],
        [-125.99009176615, -158.45814176813, 2.0632546742132],
        [-126.05591865901, -158.7784924151, 3.7314980824163],
        [-126.1217460287, -159.09884687677, 5.399743397968],
        [-126.18757292155, -159.41919752374, 7.0679906208684],
        [-126.2533998144, -159.73955198541, 8.7362340290716],
        [-126.31922670725, -160.05990263239, 10.404477437275],
        [-126.38505407694, -160.38025709406, 12.072724660175],
        [-126.4508809698, -160.70060774103, 13.740968068378],
        [-126.51670786265, -161.020958388, 15.409211476581],
        [-126.5825347555, -161.34131284967, 17.077458699482],
        [-126.64836212519, -161.66166349664, 18.745702107685],
        [-126.71418901805, -161.98201795831, 20.413949330585],
        [-126.7800159109, -162.30236860529, 22.082192738788],
        [-126.84584280375, -162.62272306696, 23.750436146991],
        [-126.91167017344, -162.94307371393, 25.418683369892],
        [-126.97749706629, -163.2634281756, 27.086926778095],
        [-127.04332395915, -163.58377882257, 28.755174000995],
        [-127.109150852, -163.90413328424, 30.423417409199],
        [-127.17497822169, -164.22448393121, 32.091660817402],
        [-127.24080511454, -164.54483839288, 33.759908040302],
        [-127.30663200739, -164.86518903986, 35.428151448505],
        [-127.37245890025, -165.18554350153, 37.096394856708],
        [-127.43828626994, -165.5058941485, 38.764645894306],
        [-127.50411316279, -165.82624861017, 40.432889302509],
        [-127.56994005564, -166.14659925714, 42.101132710712],
        [-127.63576742533, -166.46695371881, 43.769376118915],
        [-127.70159384135, -166.78730436578, 45.437619527118],
        [-127.76742121104, -167.10765882745, 47.105862935322],
        [-127.83324762705, -167.42800947443, 48.774113972919]
],
      "InstanceCreationTime": ["184205.770000", "184205.859000", "184205.777000", "184205.865000", "184205.783000", "184205.871000", "184205.789000", "184205.877000", "184205.795000", "184205.883000", "184205.801000", "184205.890000", "184205.807000", "184205.896000", "184205.813000", "184205.902000", "184205.819000", "184205.908000", "184205.825000", "184205.914000", "184205.831000", "184205.920000", "184205.837000", "184205.926000", "184205.847000", "184205.933000", "184205.853000", "184205.773000", "184205.861000", "184205.779000", "184205.867000", "184205.785000", "184205.873000", "184205.791000", "184205.879000", "184205.797000", "184205.885000", "184205.803000", "184205.892000", "184205.809000", "184205.898000", "184205.815000", "184205.904000", "184205.821000", "184205.910000", "184205.827000", "184205.916000", "184205.833000", "184205.922000", "184205.843000", "184205.929000", "184205.849000", "184205.935000", "184205.855000", "184205.775000", "184205.863000", "184205.781000", "184205.869000", "184205.787000", "184205.875000", "184205.793000", "184205.881000", "184205.799000", "184205.887000", "184205.805000", "184205.894000", "184205.811000", "184205.900000", "184205.817000", "184205.906000", "184205.823000", "184205.912000", "184205.829000", "184205.918000", "184205.835000", "184205.924000", "184205.845000", "184205.931000", "184205.851000", "184205.937000", "184205.857000"],
      "InstanceNumber": [1, 2, 3, 4, 5, 6, 7, 8, 9, 10, 11, 12, 13, 14, 15, 16, 17, 18, 19, 20, 21, 22, 23, 24, 25, 26, 27, 28, 29, 30, 31, 32, 33, 34, 35, 36, 37, 38, 39, 40, 41, 42, 43, 44, 45, 46, 47, 48, 49, 50, 51, 52, 53, 54, 55, 56, 57, 58, 59, 60, 61, 62, 63, 64, 65, 66, 67, 68, 69, 70, 71, 72, 73, 74, 75, 76, 77, 78, 79, 80, 81],
      "LargestImagePixelValue": [20192, 17236, 16632, 20323, 18301, 21802, 26206, 29654, 43768, 22914, 20683, 22986, 29741, 29365, 25572, 30517, 34543, 44883, 55681, 60824, 65535, 65535, 65535, 65535, 65535, 60373, 60900, 46354, 38655, 41048, 65535, 42354, 44870, 43957, 47309, 39589, 32960, 35244, 43239, 43141, 41400, 35581, 39782, 47330, 55150, 44365, 49498, 65535, 65535, 64397, 58125, 65535, 54204, 54151, 58063, 49400, 60803, 65076, 65535, 65535, 56622, 47329, 58020, 41087, 45461, 43584, 46474, 50036, 44784, 46187, 47565, 46177, 51986, 50570, 60938, 45389, 25600, 13006, 33534, 18299, 16482],
      "SliceLocation": [-51.636454470257, -49.936455929292, -48.236453654117, -46.536455113152, -44.836456581419, -43.136454297012, -41.436455765279, -39.736453480873, -38.036454949139, -36.336456408174, -34.636454133, -32.936455592034, -31.23645331686, -29.536454775895, -27.836456244161, -26.136453959755, -24.436455418789, -22.736455015336, -21.036454611882, -19.336454208428, -17.636453804974, -15.936455254777, -14.236454851323, -12.536454447869, -10.836454044415, -9.1364549177834, -7.4364541549037, -5.7364550467359, -4.0364542838563, -2.3364551572245, -0.6364543943448, 1.0635451817531, 2.7635454767027, 4.4635450712646, 6.1635454247054, 7.8635451177858, 9.5635454712266, 11.263545299754, 12.963545594703, 14.663545170801, 16.363545933681, 18.063545060312, 19.763545823192, 21.46354493136, 23.16354569424, 24.863544820871, 26.563545583751, 28.263545627779, 29.963546390659, 31.663544562966, 33.36354534431, 35.063545388338, 36.763546151218, 38.463544323525, 40.163545104869, 41.863547020617, 43.563545911777, 45.263544084084, 46.963546737148, 48.663544909456, 50.363543081763, 52.063545716364, 53.763543907135, 55.463546541735, 57.163544714043, 58.863543605202, 60.563545539414, 62.263544430574, 63.963546346322, 65.663545237481, 67.363543428253, 69.063546062853, 70.763544235161, 72.46354312632, 74.163548803973, 75.863547695132, 77.56354586744, 79.263544777063, 80.963542930907, 82.66354184053, 84.363547481255],
