{
  "AcquisitionMatrixPE": 140,
  "AcquisitionNumber": 1,
  "AcquisitionTime": "21:42:29.442500",
  "BandwidthPerPixelPhaseEncode": 10.352,
  "BaseResolution": 140,
  "BodyPartExamined": "BRAIN",
  "ConsistencyInfo": "N4_VE11E_LATEST_20181129",
  "ConversionSoftware": "dcm2niix",
  "ConversionSoftwareVersion": "v1.0.20201102",
  "DerivedVendorReportedEchoSpacing": 0.000689998,
  "DeviceSerialNumber": "66112",
  "DiffusionScheme": "Monopolar",
  "DwellTime": 2.1e-06,
  "EchoTime": 0.088,
  "EchoTrainLength": 105,
  "EffectiveEchoSpacing": 0.000689998,
  "FlipAngle": 90,
  "ImageComments": "Unaliased MB3/PE3",
  "ImageOrientationPatientDICOM": [0.996722, 0.0736789, 0.0334114, -0.0800192, 0.958656, 0.273085],
  "ImageType": [
    "ORIGINAL",
    "PRIMARY",
    "DIFFUSION",
    "NONE",
    "MB",
    "ND"
],
  "ImagingFrequency": 123.252,
  "InPlanePhaseEncodingDirectionDICOM": "COL",
  "InstitutionAddress": "Maynard 3,Hanover,NH,US,03755",
  "InstitutionName": "Dartmouth College - PBS",
  "InstitutionalDepartmentName": "Department",
  "IntendedFor": [
    "ses-01/dwi/sub-0085_ses-01_acq-96dirX6b0Xmb_dwi.nii.gz"
],
  "MRAcquisitionType": "2D",
  "MagneticFieldStrength": 3,
  "Manufacturer": "Siemens",
  "ManufacturersModelName": "Prisma",
  "Modality": "MR",
  "MultibandAccelerationFactor": 3,
  "PartialFourier": 0.75,
  "PatientPosition": "HFS",
  "PercentPhaseFOV": 100,
  "PercentSampling": 100,
  "PhaseEncodingDirection": "j",
  "PhaseEncodingSteps": 105,
  "PhaseResolution": 1,
  "PixelBandwidth": 1700,
  "ProcedureStepDescription": "Wager_Wager^1076_spacetop",
  "ProtocolName": "dwi_acq-discorr-PA",
  "PulseSequenceDetails": "%CustomerSeq%\\cmrr_mbep2d_diff",
  "ReceiveCoilActiveElements": "HEA;HEP",
  "ReceiveCoilName": "Head_32",
  "ReconMatrixPE": 140,
  "RepetitionTime": 4.1,
  "SAR": 0.176288,
  "ScanOptions": "PFP\\FS",
  "ScanningSequence": "EP",
  "SequenceName": "ep_b0",
  "SequenceVariant": "SK\\SS",
  "SeriesDescription": "dwi_acq-discorr-PA",
  "SeriesNumber": 6,
  "ShimSetting": [4168, -7773, -7210, 598, -8, -284, 170, 11],
  "SliceThickness": 1.7,
  "SliceTiming": [0, 2.125, 0.15625, 2.26562, 0.3125, 2.42188, 0.45312, 2.57812, 0.60938, 2.71875, 0.76562, 2.875, 0.90625, 3.03125, 1.0625, 3.17188, 1.21875, 3.32812, 1.35938, 3.48438, 1.51562, 3.625, 1.67188, 3.78125, 1.8125, 3.9375, 1.96875, 0, 2.125, 0.15625, 2.26562, 0.3125, 2.42188, 0.45312, 2.57812, 0.60938, 2.71875, 0.76562, 2.875, 0.90625, 3.03125, 1.0625, 3.17188, 1.21875, 3.32812, 1.35938, 3.48438, 1.51562, 3.625, 1.67188, 3.78125, 1.8125, 3.9375, 1.96875, 0, 2.125, 0.15625, 2.26562, 0.3125, 2.42188, 0.45312, 2.57812, 0.60938, 2.71875, 0.76562, 2.875, 0.90625, 3.03125, 1.0625, 3.17188, 1.21875, 3.32812, 1.35938, 3.48438, 1.51562, 3.625, 1.67188, 3.78125, 1.8125, 3.9375, 1.96875],
  "SoftwareVersions": "syngo MR E11",
  "SpacingBetweenSlices": 1.7,
  "StationName": "AWP66112",
  "TotalReadoutTime": 0.0959097,
  "TxRefAmp": 252.803,
  "WipMemBlock": "82b22427-2670-4150-9948-44e61b8bf277||Sequence: R016 ve11e/master r/434b28f1; Aug  7 2019 19:06:17 by eja",
  "dcmmeta_affine": [
    [-1.7086665630340576, -0.13717582821846008, 0.020246028900146484, 130.4610595703125],
    [-0.12630677223205566, 1.643410325050354, 0.4672660827636719, -88.7783432006836],
    [0.05727675184607506, -0.468146413564682, 1.6343994140625, -30.731037139892578],
    [0.0, 0.0, 0.0, 1.0]
],
  "dcmmeta_reorient_transform": [
    [0.0, -1.0, 0.0, 139.0],
    [1.0, 0.0, 0.0, 0.0],
    [0.0, 0.0, -1.0, 80.0],
    [0.0, 0.0, 0.0, 1.0]
],
  "dcmmeta_shape": [140, 140, 81],
  "dcmmeta_slice_dim": 2,
  "dcmmeta_version": 0.6,
  "global": {
    "const": {
      "AccessionNumber": "A004080",
      "AcquisitionMatrix": [140, 0, 0, 140],
      "AcquisitionNumber": 1,
      "AngioFlag": "N",
      "BitsAllocated": 16,
      "BitsStored": 16,
      "BodyPartExamined": "BRAIN",
      "Columns": 140,
      "EchoNumbers": 1,
      "EchoTime": 88.0,
      "EchoTrainLength": 105,
      "FlipAngle": 90.0,
      "HighBit": 15,
      "ImageOrientationPatient": [0.99672217203197, 0.07367894978525, 0.03341143723953, -0.0800192307446, 0.95865597961908, 0.27308539955779],
      "ImageType": [
        "ORIGINAL",
        "PRIMARY",
        "DIFFUSION",
        "NONE",
        "MB",
        "ND"
],
      "ImagedNucleus": "1H",
      "ImagingFrequency": 123.252161,
      "InPlanePhaseEncodingDirection": "COL",
      "MRAcquisitionType": "2D",
      "MagneticFieldStrength": 3.0,
      "Manufacturer": "SIEMENS",
      "ManufacturerModelName": "Prisma",
      "Modality": "MR",
      "NumberOfAverages": 1.0,
      "NumberOfPhaseEncodingSteps": 105,
      "PercentPhaseFieldOfView": 100.0,
      "PercentSampling": 100.0,
      "PerformedProcedureStepStartTime": "213338.133000",
      "PhotometricInterpretation": "MONOCHROME2",
      "PixelBandwidth": 1700.0,
      "PixelRepresentation": 0,
      "PixelSpacing": [1.7142857313156, 1.7142857313156],
      "ProtocolName": "dwi_acq-discorr-PA",
      "RepetitionTime": 4100.0,
      "Rows": 140,
      "SAR": 0.17628798134028,
      "SamplesPerPixel": 1,
      "ScanOptions": [
        "PFP",
        "FS"
],
      "ScanningSequence": "EP",
      "SequenceName": "ep_b0",
      "SequenceVariant": [
        "SK",
        "SS"
],
      "SeriesDescription": "dwi_acq-discorr-PA",
      "SeriesNumber": 6,
      "SeriesTime": "214234.238000",
      "SliceThickness": 1.7000000476837,
      "SmallestImagePixelValue": 0,
      "SoftwareVersions": "syngo MR E11",
      "SpacingBetweenSlices": 1.7,
      "SpecificCharacterSet": "ISO_IR 100",
      "StudyID": "1",
      "StudyTime": "213338.068000",
      "TransmitCoilName": "Body",
      "VariableFlipAngleFlag": "N",
      "WindowCenterWidthExplanation": "Algo1"
    },
    "slices": {
      "AcquisitionTime": ["214229.442500", "214231.557500", "214229.592500", "214231.707500", "214229.742500", "214231.860000", "214229.895000", "214232.010000", "214230.045000", "214232.162500", "214230.197500", "214232.312500", "214230.347500", "214232.462500", "214230.500000", "214232.615000", "214230.650000", "214232.765000", "214230.802500", "214232.917500", "214230.952500", "214233.067500", "214231.102500", "214233.220000", "214231.255000", "214233.370000", "214231.405000", "214229.442500", "214231.557500", "214229.592500", "214231.707500", "214229.742500", "214231.860000", "214229.895000", "214232.010000", "214230.045000", "214232.162500", "214230.197500", "214232.312500", "214230.347500", "214232.462500", "214230.500000", "214232.615000", "214230.650000", "214232.765000", "214230.802500", "214232.917500", "214230.952500", "214233.067500", "214231.102500", "214233.220000", "214231.255000", "214233.370000", "214231.405000", "214229.442500", "214231.557500", "214229.592500", "214231.707500", "214229.742500", "214231.860000", "214229.895000", "214232.010000", "214230.045000", "214232.162500", "214230.197500", "214232.312500", "214230.347500", "214232.462500", "214230.500000", "214232.615000", "214230.650000", "214232.765000", "214230.802500", "214232.917500", "214230.952500", "214233.067500", "214231.102500", "214233.220000", "214231.255000", "214233.370000", "214231.405000"],
      "ContentTime": ["214234.240000", "214234.339000", "214234.247000", "214234.346000", "214234.253000", "214234.353000", "214234.266000", "214234.359000", "214234.272000", "214234.366000", "214234.278000", "214234.373000", "214234.284000", "214234.379000", "214234.289000", "214234.385000", "214234.296000", "214234.392000", "214234.301000", "214234.397000", "214234.307000", "214234.404000", "214234.313000", "214234.410000", "214234.319000", "214234.416000", "214234.326000", "214234.243000", "214234.341000", "214234.249000", "214234.348000", "214234.255000", "214234.355000", "214234.268000", "214234.361000", "214234.274000", "214234.369000", "214234.280000", "214234.375000", "214234.286000", "214234.381000", "214234.292000", "214234.388000", "214234.297000", "214234.393000", "214234.303000", "214234.400000", "214234.309000", "214234.406000", "214234.315000", "214234.411000", "214234.321000", "214234.418000", "214234.328000", "214234.245000", "214234.343000", "214234.251000", "214234.351000", "214234.264000", "214234.357000", "214234.270000", "214234.364000", "214234.276000", "214234.371000", "214234.282000", "214234.377000", "214234.287000", "214234.383000", "214234.294000", "214234.390000", "214234.299000", "214234.395000", "214234.305000", "214234.402000", "214234.311000", "214234.408000", "214234.317000", "214234.414000", "214234.324000", "214234.420000", "214234.336000"],
      "CsaImage.GSWDDataType": [
        "predicted",
        "predicted",
        "predicted",
        "predicted",
        "predicted",
        "predicted",
        "predicted",
        "predicted",
        "predicted",
        "predicted",
        "predicted",
        "predicted",
        "predicted",
        "predicted",
        "predicted",
        "predicted",
        "predicted",
        "predicted",
        "predicted",
        "predicted",
        "predicted",
        "predicted",
        "predicted",
        "measured",
        "predicted",
        "measured",
        "predicted",
        "predicted",
        "predicted",
        "predicted",
        "predicted",
        "predicted",
        "predicted",
        "predicted",
        "predicted",
        "predicted",
        "predicted",
        "predicted",
        "predicted",
        "predicted",
        "predicted",
        "predicted",
        "predicted",
        "predicted",
        "predicted",
        "predicted",
        "predicted",
        "predicted",
        "predicted",
        "predicted",
        "measured",
        "predicted",
        "measured",
        "predicted",
        "predicted",
        "predicted",
        "predicted",
        "predicted",
        "predicted",
        "predicted",
        "predicted",
        "predicted",
        "predicted",
        "predicted",
        "predicted",
        "predicted",
        "predicted",
        "predicted",
        "predicted",
        "predicted",
        "predicted",
        "predicted",
        "predicted",
        "predicted",
        "predicted",
        "predicted",
        "predicted",
        "measured",
        "predicted",
        "measured",
        "predicted"
],
      "CsaImage.ICE_Dims": [
        "X_1_1_1_1_1_1_1_1_1_1_1_48",
        "X_1_1_1_1_1_1_42_1_1_2_1_48",
        "X_1_1_1_1_1_1_2_1_1_3_1_48",
        "X_1_1_1_1_1_1_43_1_1_4_1_48",
        "X_1_1_1_1_1_1_3_1_1_5_1_48",
        "X_1_1_1_1_1_1_44_1_1_6_1_48",
        "X_1_1_1_1_1_1_4_1_1_7_1_48",
        "X_1_1_1_1_1_1_45_1_1_8_1_48",
        "X_1_1_1_1_1_1_5_1_1_9_1_48",
        "X_1_1_1_1_1_1_46_1_1_10_1_48",
        "X_1_1_1_1_1_1_6_1_1_11_1_48",
        "X_1_1_1_1_1_1_47_1_1_12_1_48",
        "X_1_1_1_1_1_1_7_1_1_13_1_48",
        "X_1_1_1_1_1_1_48_1_1_14_1_48",
        "X_1_1_1_1_1_1_8_1_1_15_1_48",
        "X_1_1_1_1_1_1_49_1_1_16_1_48",
        "X_1_1_1_1_1_1_9_1_1_17_1_48",
        "X_1_1_1_1_1_1_50_1_1_18_1_48",
        "X_1_1_1_1_1_1_10_1_1_19_1_48",
        "X_1_1_1_1_1_1_51_1_1_20_1_48",
        "X_1_1_1_1_1_1_11_1_1_21_1_48",
        "X_1_1_1_1_1_1_52_1_1_22_1_48",
        "X_1_1_1_1_1_1_12_1_1_23_1_48",
        "X_1_1_1_1_1_1_53_1_1_24_1_48",
        "X_1_1_1_1_1_1_13_1_1_25_1_48",
        "X_1_1_1_1_1_1_54_1_1_26_1_48",
        "X_1_1_1_1_1_1_14_1_1_27_1_48",
        "X_1_1_1_1_1_1_55_1_1_28_1_48",
        "X_1_1_1_1_1_1_15_1_1_29_1_48",
        "X_1_1_1_1_1_1_56_1_1_30_1_48",
        "X_1_1_1_1_1_1_16_1_1_31_1_48",
        "X_1_1_1_1_1_1_57_1_1_32_1_48",
        "X_1_1_1_1_1_1_17_1_1_33_1_48",
        "X_1_1_1_1_1_1_58_1_1_34_1_48",
        "X_1_1_1_1_1_1_18_1_1_35_1_48",
        "X_1_1_1_1_1_1_59_1_1_36_1_48",
        "X_1_1_1_1_1_1_19_1_1_37_1_48",
        "X_1_1_1_1_1_1_60_1_1_38_1_48",
        "X_1_1_1_1_1_1_20_1_1_39_1_48",
        "X_1_1_1_1_1_1_61_1_1_40_1_48",
        "X_1_1_1_1_1_1_21_1_1_41_1_48",
        "X_1_1_1_1_1_1_62_1_1_42_1_48",
        "X_1_1_1_1_1_1_22_1_1_43_1_48",
        "X_1_1_1_1_1_1_63_1_1_44_1_48",
        "X_1_1_1_1_1_1_23_1_1_45_1_48",
        "X_1_1_1_1_1_1_64_1_1_46_1_48",
        "X_1_1_1_1_1_1_24_1_1_47_1_48",
        "X_1_1_1_1_1_1_65_1_1_48_1_48",
        "X_1_1_1_1_1_1_25_1_1_49_1_48",
        "X_1_1_1_1_1_1_66_1_1_50_1_48",
        "X_1_1_1_1_1_1_26_1_1_51_1_48",
        "X_1_1_1_1_1_1_67_1_1_52_1_48",
        "X_1_1_1_1_1_1_27_1_1_53_1_48",
        "X_1_1_1_1_1_1_68_1_1_54_1_48",
        "X_1_1_1_1_1_1_28_1_1_55_1_48",
        "X_1_1_1_1_1_1_69_1_1_56_1_48",
        "X_1_1_1_1_1_1_29_1_1_57_1_48",
        "X_1_1_1_1_1_1_70_1_1_58_1_48",
        "X_1_1_1_1_1_1_30_1_1_59_1_48",
        "X_1_1_1_1_1_1_71_1_1_60_1_48",
        "X_1_1_1_1_1_1_31_1_1_61_1_48",
        "X_1_1_1_1_1_1_72_1_1_62_1_48",
        "X_1_1_1_1_1_1_32_1_1_63_1_48",
        "X_1_1_1_1_1_1_73_1_1_64_1_48",
        "X_1_1_1_1_1_1_33_1_1_65_1_48",
        "X_1_1_1_1_1_1_74_1_1_66_1_48",
        "X_1_1_1_1_1_1_34_1_1_67_1_48",
        "X_1_1_1_1_1_1_75_1_1_68_1_48",
        "X_1_1_1_1_1_1_35_1_1_69_1_48",
        "X_1_1_1_1_1_1_76_1_1_70_1_48",
        "X_1_1_1_1_1_1_36_1_1_71_1_48",
        "X_1_1_1_1_1_1_77_1_1_72_1_48",
        "X_1_1_1_1_1_1_37_1_1_73_1_48",
        "X_1_1_1_1_1_1_78_1_1_74_1_48",
        "X_1_1_1_1_1_1_38_1_1_75_1_48",
        "X_1_1_1_1_1_1_79_1_1_76_1_48",
        "X_1_1_1_1_1_1_39_1_1_77_1_48",
        "X_1_1_1_1_1_1_80_1_1_78_1_48",
        "X_1_1_1_1_1_1_40_1_1_79_1_48",
        "X_1_1_1_1_1_1_81_1_1_80_1_48",
        "X_1_1_1_1_1_1_41_1_1_81_1_48"
],
      "CsaImage.ProtocolSliceNumber": [0, 1, 2, 3, 4, 5, 6, 7, 8, 9, 10, 11, 12, 13, 14, 15, 16, 17, 18, 19, 20, 21, 22, 23, 24, 25, 26, 27, 28, 29, 30, 31, 32, 33, 34, 35, 36, 37, 38, 39, 40, 41, 42, 43, 44, 45, 46, 47, 48, 49, 50, 51, 52, 53, 54, 55, 56, 57, 58, 59, 60, 61, 62, 63, 64, 65, 66, 67, 68, 69, 70, 71, 72, 73, 74, 75, 76, 77, 78, 79, 80],
      "CsaImage.RFSWDDataType": [
        "predicted",
        "predicted",
        "predicted",
        "predicted",
        "predicted",
        "predicted",
        "predicted",
        "predicted",
        "predicted",
        "predicted",
        "predicted",
        "predicted",
        "predicted",
        "predicted",
        "predicted",
        "predicted",
        "predicted",
        "predicted",
        "predicted",
        "predicted",
        "predicted",
        "predicted",
        "predicted",
        "measured",
        "predicted",
        "measured",
        "predicted",
        "predicted",
        "predicted",
        "predicted",
        "predicted",
        "predicted",
        "predicted",
        "predicted",
        "predicted",
        "predicted",
        "predicted",
        "predicted",
        "predicted",
        "predicted",
        "predicted",
        "predicted",
        "predicted",
        "predicted",
        "predicted",
        "predicted",
        "predicted",
        "predicted",
        "predicted",
        "predicted",
        "measured",
        "predicted",
        "measured",
        "predicted",
        "predicted",
        "predicted",
        "predicted",
        "predicted",
        "predicted",
        "predicted",
        "predicted",
        "predicted",
        "predicted",
        "predicted",
        "predicted",
        "predicted",
        "predicted",
        "predicted",
        "predicted",
        "predicted",
        "predicted",
        "predicted",
        "predicted",
        "predicted",
        "predicted",
        "predicted",
        "predicted",
        "measured",
        "predicted",
        "measured",
        "predicted"
],
      "CsaImage.SlicePosition_PCS": [
        [-111.39361994, -139.65548992, -95.80311169],
        [-111.41386597, -140.12275791, -94.16871609],
        [-111.434112, -140.59002781, -92.53432049],
        [-111.45435803, -141.0572958, -90.89992489],
        [-111.47460406, -141.52456379, -89.26552929],
        [-111.49485009, -141.99183178, -87.63113369],
        [-111.515096, -142.45910168, -85.99673809],
        [-111.53534203, -142.92636967, -84.36233868],
        [-111.55558805, -143.39363766, -82.72794308],
        [-111.57583408, -143.86090756, -81.09354748],
        [-111.59608011, -144.32817555, -79.45915188],
        [-111.61632602, -144.79544354, -77.82475628],
        [-111.63657205, -145.26271153, -76.19036068],
        [-111.65681808, -145.72998142, -74.55596508],
        [-111.67706411, -146.19724942, -72.92156948],
        [-111.69731014, -146.66451741, -71.28717388],
        [-111.71755617, -147.1317854, -69.65277447],
        [-111.73780208, -147.59905529, -68.01838078],
        [-111.7580481, -148.06632328, -66.38398518],
        [-111.77829413, -148.53359127, -64.74958767],
        [-111.79854016, -149.00086117, -63.11519207],
        [-111.81878619, -149.46812916, -61.48079647],
        [-111.8390321, -149.93539715, -59.84640087],
        [-111.85927813, -150.40266514, -58.21200527],
        [-111.87952416, -150.86993504, -56.57760777],
        [-111.89977019, -151.33720303, -54.94321217],
        [-111.92001622, -151.80447102, -53.30881657],
        [-111.94026225, -152.27173901, -51.67442097],
        [-111.96050816, -152.73900891, -50.04002441],
        [-111.98075418, -153.2062769, -48.40562881],
        [-112.00100021, -153.67354489, -46.77123226],
        [-112.02124624, -154.14081478, -45.13683666],
        [-112.04149227, -154.60808277, -43.50244059],
        [-112.0617383, -155.07535076, -41.86804451],
        [-112.08198433, -155.54261875, -40.23364867],
        [-112.10223036, -156.00988865, -38.5992526],
        [-112.12247615, -156.47715473, -36.96485665],
        [-112.14272218, -156.94442463, -35.33046068],
        [-112.16296821, -157.41169453, -33.69606461],
        [-112.18321423, -157.87896061, -32.06166853],
        [-112.20346026, -158.34623051, -30.42727293],
        [-112.22370629, -158.81350041, -28.79287685],
        [-112.24395232, -159.28076649, -27.1584803],
        [-112.26419835, -159.74803639, -25.5240847],
        [-112.28444438, -160.21530628, -23.8896891],
        [-112.30469041, -160.68257237, -22.25529255],
        [-112.32493644, -161.14984226, -20.62089695],
        [-112.34518247, -161.61710835, -18.98650135],
        [-112.36542826, -162.08437824, -17.35210575],
        [-112.38567429, -162.55164814, -15.71770824],
        [-112.40592031, -163.01891423, -14.08331265],
        [-112.42616634, -163.48618412, -12.44891705],
        [-112.44641237, -163.95345402, -10.81452145],
        [-112.4666584, -164.4207201, -9.18012585],
        [-112.48690443, -164.88799, -7.54572834],
        [-112.50715046, -165.3552599, -5.91133274],
        [-112.52739649, -165.82252598, -4.27693523],
        [-112.54764252, -166.28979588, -2.64253963],
        [-112.56788855, -166.75706196, -1.00814404],
        [-112.58813434, -167.22433186, 0.62625156],
        [-112.60838036, -167.69160176, 2.26064716],
        [-112.62862639, -168.15886784, 3.89504276],
        [-112.64887242, -168.62613774, 5.52943836],
        [-112.66911845, -169.09340763, 7.16383396],
        [-112.68936448, -169.56067372, 8.79822956],
        [-112.70961051, -170.02794361, 10.43262516],
        [-112.72985654, -170.49521351, 12.06702457],
        [-112.75010257, -170.96247959, 13.70142017],
        [-112.7703486, -171.42974949, 15.33581577],
        [-112.79059462, -171.89701557, 16.97021137],
        [-112.81084042, -172.36428547, 18.60460697],
        [-112.83108644, -172.83155537, 20.23900257],
        [-112.85133247, -173.29882145, 21.87339817],
        [-112.8715785, -173.76609135, 23.50779377],
        [-112.89182453, -174.23336125, 25.14218937],
        [-112.91207056, -174.70062733, 26.77658497],
        [-112.93231659, -175.16789723, 28.41098438],
        [-112.95256262, -175.63516712, 30.04537617],
        [-112.97280865, -176.10243321, 31.67977558],
        [-112.99305468, -176.5697031, 33.31416737],
        [-113.0133007, -177.03696919, 34.94856678]
],
      "CsaImage.TimeAfterStart": [16.4, 18.5175, 16.5525, 18.6675, 16.7025, 18.8175, 16.855, 18.97, 17.005, 19.12, 17.1575, 19.2725, 17.3075, 19.4225, 17.4575, 19.575, 17.61, 19.725, 17.76, 19.8775, 17.9125, 20.0275, 18.0625, 20.1775, 18.215, 20.33, 18.365, 16.4, 18.5175, 16.5525, 18.6675, 16.7025, 18.8175, 16.855, 18.97, 17.005, 19.12, 17.1575, 19.2725, 17.3075, 19.4225, 17.4575, 19.575, 17.61, 19.725, 17.76, 19.8775, 17.9125, 20.0275, 18.0625, 20.1775, 18.215, 20.33, 18.365, 16.4, 18.5175, 16.5525, 18.6675, 16.7025, 18.8175, 16.855, 18.97, 17.005, 19.12, 17.1575, 19.2725, 17.3075, 19.4225, 17.4575, 19.575, 17.61, 19.725, 17.76, 19.8775, 17.9125, 20.0275, 18.0625, 20.1775, 18.215, 20.33, 18.365],
      "ImagePositionPatient": [
        [-111.39361994217, -139.65548992408, -95.803111686813],
        [-111.41386597108, -140.12275791419, -94.168716087447],
        [-111.43411199998, -140.59002781165, -92.534320488082],
        [-111.45435802888, -141.05729580176, -90.899924888717],
        [-111.47460405778, -141.52456379187, -89.265529289352],
        [-111.49485008668, -141.99183178199, -87.631133689987],
        [-111.51509599637, -142.45910167945, -85.996738090621],
        [-111.53534202527, -142.92636966956, -84.362338676559],
        [-111.55558805417, -143.39363765967, -82.727943077194],
        [-111.57583408307, -143.86090755713, -81.093547477828],
        [-111.59608011197, -144.32817554724, -79.459151878463],
        [-111.61632602166, -144.79544353736, -77.824756279098],
        [-111.63657205056, -145.26271152747, -76.190360679733],
        [-111.65681807946, -145.72998142493, -74.555965080367],
        [-111.67706410836, -146.19724941504, -72.921569481002],
        [-111.69731013726, -146.66451740515, -71.287173881637],
        [-111.71755616616, -147.13178539527, -69.652774467574],
        [-111.73780207585, -147.59905529273, -68.018380775558],
        [-111.75804810475, -148.06632328284, -66.383985176193],
        [-111.77829413365, -148.53359127295, -64.749587669479],
        [-111.79854016255, -149.00086117041, -63.115192070113],
        [-111.81878619145, -149.46812916053, -61.480796470748],
        [-111.83903210114, -149.93539715064, -59.846400871383],
        [-111.85927813004, -150.40266514075, -58.212005272018],
        [-111.87952415894, -150.86993503821, -56.577607765304],
        [-111.89977018784, -151.33720302832, -54.943212165939],
        [-111.92001621674, -151.80447101844, -53.308816566573],
        [-111.94026224564, -152.27173900855, -51.674420967208],
        [-111.96050815533, -152.73900890601, -50.040024414169],
        [-111.98075418423, -153.20627689612, -48.405628814803],
        [-112.00100021313, -153.67354488623, -46.771232261764],
        [-112.02124624203, -154.14081478369, -45.136836662399],
        [-112.04149227093, -154.60808277381, -43.502440586196],
        [-112.06173829983, -155.07535076392, -41.868044509994],
        [-112.08198432873, -155.54261875403, -40.23364867221],
        [-112.10223035763, -156.00988865149, -38.599252596008],
        [-112.12247614812, -156.47715473426, -36.964856653916],
        [-112.14272217702, -156.94442463172, -35.330460682021],
        [-112.16296820592, -157.41169452918, -33.696064605819],
        [-112.18321423482, -157.87896061194, -32.061668529617],
        [-112.20346026372, -158.3462305094, -30.427272930251],
        [-112.22370629262, -158.81350040686, -28.792876854049],
        [-112.24395232152, -159.28076648963, -27.158480301009],
        [-112.26419835042, -159.74803638709, -25.524084701644],
        [-112.28444437932, -160.21530628455, -23.889689102279],
        [-112.30469040822, -160.68257236731, -22.255292549239],
        [-112.32493643712, -161.14984226477, -20.620896949874],
        [-112.34518246602, -161.61710834754, -18.986501350509],
        [-112.3654282565, -162.084378245, -17.352105751144],
        [-112.3856742854, -162.55164814246, -15.71770824443],
        [-112.4059203143, -163.01891422522, -14.083312645065],
        [-112.4261663432, -163.48618412268, -12.448917045699],
        [-112.4464123721, -163.95345402014, -10.814521446334],
        [-112.466658401, -164.42072010291, -9.1801258469689],
        [-112.4869044299, -164.88799000037, -7.5457283402551],
        [-112.5071504588, -165.35525989783, -5.9113327408898],
        [-112.5273964877, -165.82252598059, -4.276935234176],
        [-112.5476425166, -166.28979587805, -2.6425396348107],
        [-112.5678885455, -166.75706196082, -1.0081440354455],
        [-112.58813433598, -167.22433185828, 0.62625156391972],
        [-112.60838036488, -167.69160175574, 2.260647163285],
        [-112.62862639378, -168.1588678385, 3.8950427626502],
        [-112.64887242268, -168.62613773597, 5.5294383620154],
        [-112.66911845158, -169.09340763343, 7.1638339613807],
        [-112.68936448048, -169.56067371619, 8.7982295607459],
        [-112.70961050938, -170.02794361365, 10.432625160111],
        [-112.72985653828, -170.49521351111, 12.067024574174],
        [-112.75010256718, -170.96247959388, 13.701420173539],
        [-112.77034859608, -171.42974949134, 15.335815772904],
        [-112.79059462498, -171.8970155741, 16.970211372269],
        [-112.81084041546, -172.36428547156, 18.604606971635],
        [-112.83108644436, -172.83155536902, 20.239002571],
        [-112.85133247326, -173.29882145179, 21.873398170365],
        [-112.87157850216, -173.76609134925, 23.50779376973],
        [-112.89182453107, -174.23336124671, 25.142189369096],
        [-112.91207055997, -174.70062732947, 26.776584968461],
        [-112.93231658887, -175.16789722693, 28.410984382523],
        [-112.95256261777, -175.63516712439, 30.045376167191],
        [-112.97280864667, -176.10243320716, 31.679775581254],
        [-112.99305467557, -176.56970310462, 33.314167365922],
        [-113.01330070447, -177.03696918738, 34.948566779984]
],
      "InstanceCreationTime": ["214234.240000", "214234.339000", "214234.247000", "214234.346000", "214234.253000", "214234.353000", "214234.266000", "214234.359000", "214234.272000", "214234.366000", "214234.278000", "214234.373000", "214234.284000", "214234.379000", "214234.289000", "214234.385000", "214234.296000", "214234.392000", "214234.301000", "214234.397000", "214234.307000", "214234.404000", "214234.313000", "214234.410000", "214234.319000", "214234.416000", "214234.326000", "214234.243000", "214234.341000", "214234.249000", "214234.348000", "214234.255000", "214234.355000", "214234.268000", "214234.361000", "214234.274000", "214234.369000", "214234.280000", "214234.375000", "214234.286000", "214234.381000", "214234.292000", "214234.388000", "214234.297000", "214234.393000", "214234.303000", "214234.400000", "214234.309000", "214234.406000", "214234.315000", "214234.411000", "214234.321000", "214234.418000", "214234.328000", "214234.245000", "214234.343000", "214234.251000", "214234.351000", "214234.264000", "214234.357000", "214234.270000", "214234.364000", "214234.276000", "214234.371000", "214234.282000", "214234.377000", "214234.287000", "214234.383000", "214234.294000", "214234.390000", "214234.299000", "214234.395000", "214234.305000", "214234.402000", "214234.311000", "214234.408000", "214234.317000", "214234.414000", "214234.324000", "214234.420000", "214234.336000"],
      "InstanceNumber": [1, 2, 3, 4, 5, 6, 7, 8, 9, 10, 11, 12, 13, 14, 15, 16, 17, 18, 19, 20, 21, 22, 23, 24, 25, 26, 27, 28, 29, 30, 31, 32, 33, 34, 35, 36, 37, 38, 39, 40, 41, 42, 43, 44, 45, 46, 47, 48, 49, 50, 51, 52, 53, 54, 55, 56, 57, 58, 59, 60, 61, 62, 63, 64, 65, 66, 67, 68, 69, 70, 71, 72, 73, 74, 75, 76, 77, 78, 79, 80, 81],
      "LargestImagePixelValue": [26488, 29226, 28359, 22840, 25513, 20209, 21872, 39648, 46151, 49433, 55299, 48746, 41740, 48229, 39526, 35627, 38113, 30000, 31966, 35361, 45411, 40789, 63711, 56776, 58571, 65535, 65535, 65535, 65535, 65535, 65535, 65535, 65535, 65535, 65535, 65535, 65535, 65535, 59990, 36282, 47248, 47160, 54874, 51572, 49828, 39361, 34397, 35041, 42607, 36630, 37596, 44373, 43728, 50295, 56773, 56170, 65535, 60964, 53937, 58339, 50885, 56659, 58719, 55825, 56789, 49145, 56701, 47475, 48942, 50245, 49583, 55061, 56103, 61434, 49878, 56993, 51964, 34906, 15210, 14761, 13400],
      "SliceLocation": [-52.393135199012, -50.693135713278, -48.993135703284, -47.29313621755, -45.593136731817, -43.893137246083, -42.193137237508, -40.493134084289, -38.793134598556, -37.093134588561, -35.393135102827, -33.693135618514, -31.99313613278, -30.293136122786, -28.593136637052, -26.893137151319, -25.193133998099, -23.493135823267, -21.793136337534, -20.093135018057, -18.393135008063, -16.693135522329, -14.993136038016, -13.293136552282, -11.593134708545, -9.8931352228111, -8.1931357370776, -6.4931362513441, -4.7931353258977, -3.0931358401642, -1.3931354375593, 0.30686457243534, 2.0068645166046, 3.7068644607738, 5.4068641757251, 7.1068646441555, 8.8068639322891, 10.506864300437, 12.206864768867, 13.906864188775, 15.60686419877, 17.3068646672, 19.006864545544, 20.706864555538, 22.406864565533, 24.106864443877, 25.806864453871, 27.506863415344, 29.206863422499, 30.906865266237, 32.606864227709, 34.306864237704, 36.006864247698, 37.706863209171, 39.406865052908, 41.106865062903, 42.806865858118, 44.506865868113, 46.206864829585, 47.90686483674, 49.606864846735, 51.306863808207, 53.006863818202, 54.706863828196, 56.406862789669, 58.106862799663, 59.806866477144, 61.506865438616, 63.206865448611, 64.906864410083, 66.606864417238, 68.306864427233, 70.006863388705, 71.7068633987, 73.406863408694, 75.106862370167, 76.806866047647, 78.506862390156, 80.206865019114, 81.906861361623, 83.606863990581],
