{
  "AcquisitionMatrixPE": 82,
  "AcquisitionNumber": 1,
  "AcquisitionTime": "15:25:37.422500",
  "BandwidthPerPixelPhaseEncode": 24.888,
  "BaseResolution": 82,
  "BodyPartExamined": "BRAIN",
  "ConsistencyInfo": "N4_VE11E_LATEST_20181129",
  "ConversionSoftware": "dcm2niix",
  "ConversionSoftwareVersion": "v1.0.20201102",
  "DerivedVendorReportedEchoSpacing": 0.00049,
  "DeviceSerialNumber": "66112",
  "DwellTime": 2e-06,
  "EchoTime": 0.0272,
  "EchoTrainLength": 82,
  "EffectiveEchoSpacing": 0.00049,
  "FlipAngle": 44,
  "ImageComments": "Unaliased MB8/PE3",
  "ImageOrientationPatientDICOM": [0.998781, 0.0301899, 0.0390562, -0.0315625, 0.998888, 0.0350189],
  "ImageType": [
    "ORIGINAL",
    "PRIMARY",
    "M",
    "MB",
    "ND",
    "NORM",
    "MOSAIC"
],
  "ImagingFrequency": 123.252,
  "InPlanePhaseEncodingDirectionDICOM": "COL",
  "InstitutionAddress": "Maynard 3,Hanover,NH,US,03755",
  "InstitutionName": "Dartmouth College - PBS",
  "InstitutionalDepartmentName": "Department",
  "MRAcquisitionType": "2D",
  "MagneticFieldStrength": 3,
  "Manufacturer": "Siemens",
  "ManufacturersModelName": "Prisma",
  "Modality": "MR",
  "MultibandAccelerationFactor": 8,
  "PartialFourier": 1,
  "PatientPosition": "HFS",
  "PercentPhaseFOV": 100,
  "PercentSampling": 100,
  "PhaseEncodingDirection": "j-",
  "PhaseEncodingSteps": 82,
  "PhaseResolution": 1,
  "PixelBandwidth": 3050,
  "ProcedureStepDescription": "Wager_Wager^1076_spacetop",
  "ProtocolName": "func_run-05_task-social_acq-ap-mb8",
  "PulseSequenceDetails": "%CustomerSeq%\\cmrr_mbep2d_bold",
  "ReceiveCoilActiveElements": "HEA;HEP",
  "ReceiveCoilName": "Head_32",
  "ReconMatrixPE": 82,
  "RepetitionTime": 0.46,
  "SAR": 0.0856444,
  "ScanOptions": "FS",
  "ScanningSequence": "EP",
  "SequenceName": "epfid2d1_82",
  "SequenceVariant": "SK\\SS",
  "SeriesDescription": "func_run-05_task-social_acq-ap-mb8",
  "SeriesNumber": 16,
  "ShimSetting": [4162, -7779, -7193, 525, 4, -124, 30, 54],
  "SliceThickness": 2.7,
  "SliceTiming": [0, 0.2525, 0.0625, 0.315, 0.125, 0.3775, 0.19, 0, 0.2525, 0.0625, 0.315, 0.125, 0.3775, 0.19, 0, 0.2525, 0.0625, 0.315, 0.125, 0.3775, 0.19, 0, 0.2525, 0.0625, 0.315, 0.125, 0.3775, 0.19, 0, 0.2525, 0.0625, 0.315, 0.125, 0.3775, 0.19, 0, 0.2525, 0.0625, 0.315, 0.125, 0.3775, 0.19, 0, 0.2525, 0.0625, 0.315, 0.125, 0.3775, 0.19, 0, 0.2525, 0.0625, 0.315, 0.125, 0.3775, 0.19],
  "SoftwareVersions": "syngo MR E11",
  "SpacingBetweenSlices": 2.7,
  "StationName": "AWP66112",
  "TaskName": "social",
  "TotalReadoutTime": 0.03969,
  "TxRefAmp": 253.132,
  "WipMemBlock": "abc76bd6-86fb-4823-81bf-735d156d2205||Sequence: R016 ve11e/master r/434b28f1; Aug  7 2019 18:53:46 by eja",
  "dcmmeta_affine": [
    [-2.6796560287475586, -0.08467990159988403, 0.10248000919818878, 116.60674285888672],
    [-0.0809972733259201, 2.679943799972534, 0.09776397049427032, -94.74284362792969],
    [0.10478492826223373, -0.09395303577184677, 2.6962826251983643, -62.48627853393555],
    [0.0, 0.0, 0.0, 1.0]
],
  "dcmmeta_reorient_transform": [
    [0.0, -1.0, 0.0, 81.0],
    [1.0, 0.0, 0.0, 0.0],
    [0.0, 0.0, 1.0, 0.0],
    [0.0, 0.0, 0.0, 1.0]
],
  "dcmmeta_shape": [82, 82, 56, 872],
  "dcmmeta_slice_dim": 2,
  "dcmmeta_version": 0.6,
  "global": {
    "const": {
      "AccessionNumber": "A004154",
      "AcquisitionMatrix": [82, 0, 0, 82],
      "AngioFlag": "N",
      "BitsAllocated": 16,
      "BitsStored": 16,
      "BodyPartExamined": "BRAIN",
      "Columns": 656,
      "EchoNumbers": 1,
      "EchoTime": 27.2,
      "EchoTrainLength": 82,
      "FlipAngle": 44.0,
      "HighBit": 15,
      "ImageOrientationPatient": [0.99878084861687, 0.03018989298621, 0.03905620050194, -0.0315625086555, 0.99888812566477, 0.03501885853774],
      "ImagePositionPatient": [-854.50581026739, -914.72269690179, -127.13427280839],
      "ImageType": [
        "ORIGINAL",
        "PRIMARY",
        "M",
        "MB",
        "ND",
        "NORM",
        "MOSAIC"
],
      "ImagedNucleus": "1H",
      "ImagingFrequency": 123.252153,
      "InPlanePhaseEncodingDirection": "COL",
      "MRAcquisitionType": "2D",
      "MagneticFieldStrength": 3.0,
      "Manufacturer": "SIEMENS",
      "ManufacturerModelName": "Prisma",
      "Modality": "MR",
      "NumberOfAverages": 1.0,
      "NumberOfPhaseEncodingSteps": 82,
      "PercentPhaseFieldOfView": 100.0,
      "PercentSampling": 100.0,
      "PerformedProcedureStepStartTime": "144158.143000",
      "PhotometricInterpretation": "MONOCHROME2",
      "PixelBandwidth": 3050.0,
      "PixelRepresentation": 0,
      "PixelSpacing": [2.6829268932343, 2.6829268932343],
      "ProtocolName": "func_run-05_task-social_acq-ap-mb8",
      "RepetitionTime": 460.0,
      "Rows": 656,
      "SAR": 0.0856444431318,
      "SamplesPerPixel": 1,
      "ScanOptions": "FS",
      "ScanningSequence": "EP",
      "SequenceName": "epfid2d1_82",
      "SequenceVariant": [
        "SK",
        "SS"
],
      "SeriesDescription": "func_run-05_task-social_acq-ap-mb8",
      "SeriesNumber": 16,
      "SeriesTime": "152604.770000",
      "SliceLocation": -61.404906645017,
      "SliceThickness": 2.7000000476837,
      "SmallestImagePixelValue": 0,
      "SoftwareVersions": "syngo MR E11",
      "SpacingBetweenSlices": 2.7000000450836,
      "SpecificCharacterSet": "ISO_IR 100",
      "StudyID": "3",
      "StudyTime": "144158.088000",
      "TransmitCoilName": "Body",
      "VariableFlipAngleFlag": "N",
      "WindowCenterWidthExplanation": "Algo1"
    },
    "slices": {}
  },
  "time": {
    "samples": {
      "AcquisitionNumber": [1, 2, 3, 4, 5, 6, 7, 8, 9, 10, 11, 12, 13, 14, 15, 16, 17, 18, 19, 20, 21, 22, 23, 24, 25, 26, 27, 28, 29, 30, 31, 32, 33, 34, 35, 36, 37, 38, 39, 40, 41, 42, 43, 44, 45, 46, 47, 48, 49, 50, 51, 52, 53, 54, 55, 56, 57, 58, 59, 60, 61, 62, 63, 64, 65, 66, 67, 68, 69, 70, 71, 72, 73, 74, 75, 76, 77, 78, 79, 80, 81, 82, 83, 84, 85, 86, 87, 88, 89, 90, 91, 92, 93, 94, 95, 96, 97, 98, 99, 100, 101, 102, 103, 104, 105, 106, 107, 108, 109, 110, 111, 112, 113, 114, 115, 116, 117, 118, 119, 120, 121, 122, 123, 124, 125, 126, 127, 128, 129, 130, 131, 132, 133, 134, 135, 136, 137, 138, 139, 140, 141, 142, 143, 144, 145, 146, 147, 148, 149, 150, 151, 152, 153, 154, 155, 156, 157, 158, 159, 160, 161, 162, 163, 164, 165, 166, 167, 168, 169, 170, 171, 172, 173, 174, 175, 176, 177, 178, 179, 180, 181, 182, 183, 184, 185, 186, 187, 188, 189, 190, 191, 192, 193, 194, 195, 196, 197, 198, 199, 200, 201, 202, 203, 204, 205, 206, 207, 208, 209, 210, 211, 212, 213, 214, 215, 216, 217, 218, 219, 220, 221, 222, 223, 224, 225, 226, 227, 228, 229, 230, 231, 232, 233, 234, 235, 236, 237, 238, 239, 240, 241, 242, 243, 244, 245, 246, 247, 248, 249, 250, 251, 252, 253, 254, 255, 256, 257, 258, 259, 260, 261, 262, 263, 264, 265, 266, 267, 268, 269, 270, 271, 272, 273, 274, 275, 276, 277, 278, 279, 280, 281, 282, 283, 284, 285, 286, 287, 288, 289, 290, 291, 292, 293, 294, 295, 296, 297, 298, 299, 300, 301, 302, 303, 304, 305, 306, 307, 308, 309, 310, 311, 312, 313, 314, 315, 316, 317, 318, 319, 320, 321, 322, 323, 324, 325, 326, 327, 328, 329, 330, 331, 332, 333, 334, 335, 336, 337, 338, 339, 340, 341, 342, 343, 344, 345, 346, 347, 348, 349, 350, 351, 352, 353, 354, 355, 356, 357, 358, 359, 360, 361, 362, 363, 364, 365, 366, 367, 368, 369, 370, 371, 372, 373, 374, 375, 376, 377, 378, 379, 380, 381, 382, 383, 384, 385, 386, 387, 388, 389, 390, 391, 392, 393, 394, 395, 396, 397, 398, 399, 400, 401, 402, 403, 404, 405, 406, 407, 408, 409, 410, 411, 412, 413, 414, 415, 416, 417, 418, 419, 420, 421, 422, 423, 424, 425, 426, 427, 428, 429, 430, 431, 432, 433, 434, 435, 436, 437, 438, 439, 440, 441, 442, 443, 444, 445, 446, 447, 448, 449, 450, 451, 452, 453, 454, 455, 456, 457, 458, 459, 460, 461, 462, 463, 464, 465, 466, 467, 468, 469, 470, 471, 472, 473, 474, 475, 476, 477, 478, 479, 480, 481, 482, 483, 484, 485, 486, 487, 488, 489, 490, 491, 492, 493, 494, 495, 496, 497, 498, 499, 500, 501, 502, 503, 504, 505, 506, 507, 508, 509, 510, 511, 512, 513, 514, 515, 516, 517, 518, 519, 520, 521, 522, 523, 524, 525, 526, 527, 528, 529, 530, 531, 532, 533, 534, 535, 536, 537, 538, 539, 540, 541, 542, 543, 544, 545, 546, 547, 548, 549, 550, 551, 552, 553, 554, 555, 556, 557, 558, 559, 560, 561, 562, 563, 564, 565, 566, 567, 568, 569, 570, 571, 572, 573, 574, 575, 576, 577, 578, 579, 580, 581, 582, 583, 584, 585, 586, 587, 588, 589, 590, 591, 592, 593, 594, 595, 596, 597, 598, 599, 600, 601, 602, 603, 604, 605, 606, 607, 608, 609, 610, 611, 612, 613, 614, 615, 616, 617, 618, 619, 620, 621, 622, 623, 624, 625, 626, 627, 628, 629, 630, 631, 632, 633, 634, 635, 636, 637, 638, 639, 640, 641, 642, 643, 644, 645, 646, 647, 648, 649, 650, 651, 652, 653, 654, 655, 656, 657, 658, 659, 660, 661, 662, 663, 664, 665, 666, 667, 668, 669, 670, 671, 672, 673, 674, 675, 676, 677, 678, 679, 680, 681, 682, 683, 684, 685, 686, 687, 688, 689, 690, 691, 692, 693, 694, 695, 696, 697, 698, 699, 700, 701, 702, 703, 704, 705, 706, 707, 708, 709, 710, 711, 712, 713, 714, 715, 716, 717, 718, 719, 720, 721, 722, 723, 724, 725, 726, 727, 728, 729, 730, 731, 732, 733, 734, 735, 736, 737, 738, 739, 740, 741, 742, 743, 744, 745, 746, 747, 748, 749, 750, 751, 752, 753, 754, 755, 756, 757, 758, 759, 760, 761, 762, 763, 764, 765, 766, 767, 768, 769, 770, 771, 772, 773, 774, 775, 776, 777, 778, 779, 780, 781, 782, 783, 784, 785, 786, 787, 788, 789, 790, 791, 792, 793, 794, 795, 796, 797, 798, 799, 800, 801, 802, 803, 804, 805, 806, 807, 808, 809, 810, 811, 812, 813, 814, 815, 816, 817, 818, 819, 820, 821, 822, 823, 824, 825, 826, 827, 828, 829, 830, 831, 832, 833, 834, 835, 836, 837, 838, 839, 840, 841, 842, 843, 844, 845, 846, 847, 848, 849, 850, 851, 852, 853, 854, 855, 856, 857, 858, 859, 860, 861, 862, 863, 864, 865, 866, 867, 868, 869, 870, 871, 872],
      "AcquisitionTime": ["152537.422500", "152537.882500", "152538.342500", "152538.802500", "152539.262500", "152539.722500", "152540.182500", "152540.642500", "152541.102500", "152541.562500", "152542.022500", "152542.482500", "152542.942500", "152543.402500", "152543.862500", "152544.322500", "152544.782500", "152545.242500", "152545.702500", "152546.162500", "152546.622500", "152547.082500", "152547.542500", "152548.002500", "152548.462500", "152548.922500", "152549.382500", "152549.842500", "152550.302500", "152550.762500", "152551.222500", "152551.682500", "152552.142500", "152552.602500", "152553.062500", "152553.522500", "152553.982500", "152554.442500", "152554.902500", "152555.362500", "152555.822500", "152556.282500", "152556.742500", "152557.202500", "152557.662500", "152558.122500", "152558.582500", "152559.042500", "152559.502500", "152559.962500", "152600.422500", "152600.882500", "152601.342500", "152601.802500", "152602.262500", "152602.722500", "152603.182500", "152603.642500", "152604.102500", "152604.562500", "152605.022500", "152605.482500", "152605.942500", "152606.402500", "152606.862500", "152607.322500", "152607.782500", "152608.242500", "152608.702500", "152609.162500", "152609.622500", "152610.082500", "152610.542500", "152611.002500", "152611.462500", "152611.922500", "152612.382500", "152612.842500", "152613.302500", "152613.762500", "152614.222500", "152614.682500", "152615.142500", "152615.602500", "152616.062500", "152616.522500", "152616.982500", "152617.442500", "152617.902500", "152618.362500", "152618.822500", "152619.282500", "152619.742500", "152620.202500", "152620.662500", "152621.122500", "152621.582500", "152622.042500", "152622.502500", "152622.962500", "152623.422500", "152623.882500", "152624.342500", "152624.802500", "152625.262500", "152625.722500", "152626.182500", "152626.642500", "152627.102500", "152627.562500", "152628.022500", "152628.482500", "152628.942500", "152629.402500", "152629.862500", "152630.322500", "152630.782500", "152631.242500", "152631.702500", "152632.162500", "152632.622500", "152633.082500", "152633.542500", "152634.002500", "152634.462500", "152634.922500", "152635.382500", "152635.842500", "152636.302500", "152636.762500", "152637.222500", "152637.682500", "152638.142500", "152638.602500", "152639.062500", "152639.522500", "152639.982500", "152640.442500", "152640.902500", "152641.362500", "152641.822500", "152642.282500", "152642.742500", "152643.202500", "152643.662500", "152644.122500", "152644.582500", "152645.042500", "152645.502500", "152645.962500", "152646.422500", "152646.882500", "152647.342500", "152647.802500", "152648.262500", "152648.722500", "152649.182500", "152649.642500", "152650.102500", "152650.562500", "152651.022500", "152651.482500", "152651.942500", "152652.402500", "152652.862500", "152653.322500", "152653.782500", "152654.242500", "152654.702500", "152655.162500", "152655.622500", "152656.082500", "152656.542500", "152657.002500", "152657.462500", "152657.922500", "152658.382500", "152658.842500", "152659.302500", "152659.762500", "152700.222500", "152700.682500", "152701.142500", "152701.602500", "152702.062500", "152702.522500", "152702.982500", "152703.442500", "152703.902500", "152704.362500", "152704.822500", "152705.282500", "152705.742500", "152706.202500", "152706.662500", "152707.122500", "152707.582500", "152708.042500", "152708.502500", "152708.962500", "152709.422500", "152709.882500", "152710.342500", "152710.802500", "152711.262500", "152711.722500", "152712.182500", "152712.642500", "152713.102500", "152713.562500", "152714.022500", "152714.482500", "152714.942500", "152715.402500", "152715.862500", "152716.322500", "152716.782500", "152717.242500", "152717.702500", "152718.162500", "152718.622500", "152719.082500", "152719.542500", "152720.002500", "152720.462500", "152720.922500", "152721.382500", "152721.842500", "152722.302500", "152722.762500", "152723.222500", "152723.682500", "152724.142500", "152724.602500", "152725.062500", "152725.522500", "152725.982500", "152726.442500", "152726.902500", "152727.362500", "152727.822500", "152728.282500", "152728.742500", "152729.202500", "152729.662500", "152730.122500", "152730.582500", "152731.042500", "152731.502500", "152731.962500", "152732.422500", "152732.882500", "152733.342500", "152733.802500", "152734.262500", "152734.722500", "152735.182500", "152735.642500", "152736.102500", "152736.562500", "152737.022500", "152737.482500", "152737.942500", "152738.402500", "152738.862500", "152739.322500", "152739.782500", "152740.242500", "152740.702500", "152741.162500", "152741.622500", "152742.082500", "152742.542500", "152743.002500", "152743.462500", "152743.922500", "152744.382500", "152744.842500", "152745.302500", "152745.762500", "152746.222500", "152746.682500", "152747.142500", "152747.602500", "152748.062500", "152748.522500", "152748.982500", "152749.442500", "152749.902500", "152750.362500", "152750.822500", "152751.282500", "152751.742500", "152752.202500", "152752.662500", "152753.122500", "152753.582500", "152754.042500", "152754.502500", "152754.962500", "152755.422500", "152755.882500", "152756.342500", "152756.802500", "152757.262500", "152757.722500", "152758.182500", "152758.642500", "152759.102500", "152759.562500", "152800.022500", "152800.482500", "152800.942500", "152801.402500", "152801.862500", "152802.322500", "152802.782500", "152803.242500", "152803.702500", "152804.162500", "152804.622500", "152805.082500", "152805.542500", "152806.002500", "152806.462500", "152806.922500", "152807.382500", "152807.842500", "152808.302500", "152808.762500", "152809.222500", "152809.682500", "152810.142500", "152810.602500", "152811.062500", "152811.522500", "152811.982500", "152812.442500", "152812.902500", "152813.362500", "152813.822500", "152814.282500", "152814.742500", "152815.202500", "152815.662500", "152816.122500", "152816.582500", "152817.042500", "152817.502500", "152817.962500", "152818.422500", "152818.882500", "152819.342500", "152819.802500", "152820.262500", "152820.722500", "152821.182500", "152821.642500", "152822.102500", "152822.562500", "152823.022500", "152823.482500", "152823.942500", "152824.402500", "152824.862500", "152825.322500", "152825.782500", "152826.242500", "152826.702500", "152827.162500", "152827.622500", "152828.082500", "152828.542500", "152829.002500", "152829.462500", "152829.922500", "152830.382500", "152830.842500", "152831.302500", "152831.762500", "152832.222500", "152832.682500", "152833.142500", "152833.602500", "152834.062500", "152834.522500", "152834.982500", "152835.442500", "152835.902500", "152836.362500", "152836.822500", "152837.282500", "152837.742500", "152838.202500", "152838.662500", "152839.122500", "152839.582500", "152840.042500", "152840.502500", "152840.962500", "152841.422500", "152841.882500", "152842.342500", "152842.802500", "152843.262500", "152843.722500", "152844.182500", "152844.642500", "152845.102500", "152845.562500", "152846.022500", "152846.482500", "152846.942500", "152847.402500", "152847.862500", "152848.322500", "152848.782500", "152849.242500", "152849.702500", "152850.162500", "152850.622500", "152851.082500", "152851.542500", "152852.002500", "152852.462500", "152852.922500", "152853.382500", "152853.842500", "152854.302500", "152854.762500", "152855.222500", "152855.682500", "152856.142500", "152856.602500", "152857.062500", "152857.522500", "152857.982500", "152858.442500", "152858.902500", "152859.362500", "152859.822500", "152900.282500", "152900.742500", "152901.202500", "152901.662500", "152902.122500", "152902.582500", "152903.042500", "152903.502500", "152903.962500", "152904.422500", "152904.882500", "152905.342500", "152905.802500", "152906.262500", "152906.722500", "152907.182500", "152907.642500", "152908.102500", "152908.562500", "152909.022500", "152909.482500", "152909.942500", "152910.402500", "152910.862500", "152911.322500", "152911.782500", "152912.242500", "152912.702500", "152913.162500", "152913.622500", "152914.082500", "152914.542500", "152915.002500", "152915.462500", "152915.922500", "152916.382500", "152916.842500", "152917.302500", "152917.762500", "152918.222500", "152918.682500", "152919.142500", "152919.602500", "152920.062500", "152920.522500", "152920.982500", "152921.442500", "152921.902500", "152922.362500", "152922.822500", "152923.282500", "152923.742500", "152924.202500", "152924.662500", "152925.122500", "152925.582500", "152926.042500", "152926.502500", "152926.962500", "152927.422500", "152927.882500", "152928.342500", "152928.802500", "152929.262500", "152929.722500", "152930.182500", "152930.642500", "152931.102500", "152931.562500", "152932.022500", "152932.482500", "152932.942500", "152933.402500", "152933.862500", "152934.322500", "152934.782500", "152935.242500", "152935.702500", "152936.162500", "152936.622500", "152937.082500", "152937.542500", "152938.002500", "152938.462500", "152938.922500", "152939.382500", "152939.842500", "152940.302500", "152940.762500", "152941.222500", "152941.682500", "152942.142500", "152942.602500", "152943.062500", "152943.522500", "152943.982500", "152944.442500", "152944.902500", "152945.362500", "152945.822500", "152946.282500", "152946.742500", "152947.202500", "152947.662500", "152948.122500", "152948.582500", "152949.042500", "152949.502500", "152949.962500", "152950.422500", "152950.882500", "152951.342500", "152951.802500", "152952.262500", "152952.722500", "152953.182500", "152953.642500", "152954.102500", "152954.562500", "152955.022500", "152955.482500", "152955.942500", "152956.402500", "152956.862500", "152957.322500", "152957.782500", "152958.242500", "152958.702500", "152959.162500", "152959.622500", "153000.082500", "153000.542500", "153001.002500", "153001.462500", "153001.922500", "153002.382500", "153002.842500", "153003.302500", "153003.762500", "153004.222500", "153004.682500", "153005.142500", "153005.602500", "153006.062500", "153006.522500", "153006.982500", "153007.442500", "153007.902500", "153008.362500", "153008.822500", "153009.282500", "153009.742500", "153010.202500", "153010.662500", "153011.122500", "153011.582500", "153012.042500", "153012.502500", "153012.962500", "153013.422500", "153013.882500", "153014.342500", "153014.802500", "153015.262500", "153015.722500", "153016.182500", "153016.642500", "153017.102500", "153017.562500", "153018.022500", "153018.482500", "153018.942500", "153019.402500", "153019.862500", "153020.322500", "153020.782500", "153021.242500", "153021.702500", "153022.162500", "153022.622500", "153023.082500", "153023.542500", "153024.002500", "153024.462500", "153024.922500", "153025.382500", "153025.842500", "153026.302500", "153026.762500", "153027.222500", "153027.682500", "153028.142500", "153028.602500", "153029.062500", "153029.522500", "153029.982500", "153030.442500", "153030.902500", "153031.362500", "153031.822500", "153032.282500", "153032.742500", "153033.202500", "153033.662500", "153034.122500", "153034.582500", "153035.042500", "153035.502500", "153035.962500", "153036.422500", "153036.882500", "153037.342500", "153037.802500", "153038.262500", "153038.722500", "153039.182500", "153039.642500", "153040.102500", "153040.562500", "153041.022500", "153041.482500", "153041.942500", "153042.402500", "153042.862500", "153043.322500", "153043.782500", "153044.242500", "153044.702500", "153045.162500", "153045.622500", "153046.082500", "153046.542500", "153047.002500", "153047.462500", "153047.922500", "153048.382500", "153048.842500", "153049.302500", "153049.762500", "153050.222500", "153050.682500", "153051.142500", "153051.602500", "153052.062500", "153052.522500", "153052.982500", "153053.442500", "153053.902500", "153054.362500", "153054.822500", "153055.282500", "153055.742500", "153056.202500", "153056.662500", "153057.122500", "153057.582500", "153058.042500", "153058.502500", "153058.962500", "153059.422500", "153059.882500", "153100.342500", "153100.802500", "153101.262500", "153101.722500", "153102.182500", "153102.642500", "153103.102500", "153103.562500", "153104.022500", "153104.482500", "153104.942500", "153105.402500", "153105.862500", "153106.322500", "153106.782500", "153107.242500", "153107.702500", "153108.162500", "153108.622500", "153109.082500", "153109.542500", "153110.002500", "153110.462500", "153110.922500", "153111.382500", "153111.842500", "153112.302500", "153112.762500", "153113.222500", "153113.682500", "153114.142500", "153114.602500", "153115.062500", "153115.522500", "153115.982500", "153116.442500", "153116.902500", "153117.362500", "153117.822500", "153118.282500", "153118.742500", "153119.202500", "153119.662500", "153120.122500", "153120.582500", "153121.042500", "153121.502500", "153121.962500", "153122.422500", "153122.882500", "153123.342500", "153123.802500", "153124.262500", "153124.722500", "153125.182500", "153125.642500", "153126.102500", "153126.562500", "153127.022500", "153127.482500", "153127.942500", "153128.402500", "153128.862500", "153129.322500", "153129.782500", "153130.242500", "153130.702500", "153131.162500", "153131.622500", "153132.082500", "153132.542500", "153133.002500", "153133.462500", "153133.922500", "153134.382500", "153134.842500", "153135.302500", "153135.762500", "153136.222500", "153136.682500", "153137.142500", "153137.602500", "153138.062500", "153138.522500", "153138.982500", "153139.442500", "153139.902500", "153140.362500", "153140.822500", "153141.282500", "153141.742500", "153142.202500", "153142.662500", "153143.122500", "153143.582500", "153144.042500", "153144.502500", "153144.962500", "153145.422500", "153145.882500", "153146.342500", "153146.802500", "153147.262500", "153147.722500", "153148.182500", "153148.642500", "153149.102500", "153149.562500", "153150.022500", "153150.482500", "153150.942500", "153151.402500", "153151.862500", "153152.322500", "153152.782500", "153153.242500", "153153.702500", "153154.162500", "153154.622500", "153155.082500", "153155.542500", "153156.002500", "153156.462500", "153156.922500", "153157.382500", "153157.842500", "153158.302500", "153158.762500", "153159.222500", "153159.682500", "153200.142500", "153200.602500", "153201.062500", "153201.522500", "153201.982500", "153202.442500", "153202.902500", "153203.362500", "153203.822500", "153204.282500", "153204.742500", "153205.202500", "153205.662500", "153206.122500", "153206.582500", "153207.042500", "153207.502500", "153207.962500", "153208.422500", "153208.882500", "153209.342500", "153209.802500", "153210.262500", "153210.722500", "153211.182500", "153211.642500", "153212.102500", "153212.562500", "153213.022500", "153213.482500", "153213.942500", "153214.402500", "153214.862500", "153215.322500", "153215.782500", "153216.242500", "153216.702500", "153217.162500", "153217.622500", "153218.082500"],
