{
  "AcquisitionMatrixPE": 82,
  "AcquisitionNumber": 1,
  "AcquisitionTime": "14:59:7.120000",
  "BandwidthPerPixelPhaseEncode": 24.888,
  "BaseResolution": 82,
  "BodyPartExamined": "BRAIN",
  "ConsistencyInfo": "N4_VE11E_LATEST_20181129",
  "ConversionSoftware": "dcm2niix",
  "ConversionSoftwareVersion": "v1.0.20201102",
  "DerivedVendorReportedEchoSpacing": 0.00049,
  "DeviceSerialNumber": "66112",
  "DwellTime": 2e-06,
  "EchoTime": 0.0272,
  "EchoTrainLength": 82,
  "EffectiveEchoSpacing": 0.00049,
  "FlipAngle": 44,
  "ImageComments": "Unaliased MB8/PE3",
  "ImageOrientationPatientDICOM": [0.998781, 0.0301899, 0.0390562, -0.0315625, 0.998888, 0.0350189],
  "ImageType": [
    "ORIGINAL",
    "PRIMARY",
    "M",
    "MB",
    "ND",
    "NORM",
    "MOSAIC"
],
  "ImagingFrequency": 123.252,
  "InPlanePhaseEncodingDirectionDICOM": "COL",
  "InstitutionAddress": "Maynard 3,Hanover,NH,US,03755",
  "InstitutionName": "Dartmouth College - PBS",
  "InstitutionalDepartmentName": "Department",
  "MRAcquisitionType": "2D",
  "MagneticFieldStrength": 3,
  "Manufacturer": "Siemens",
  "ManufacturersModelName": "Prisma",
  "Modality": "MR",
  "MultibandAccelerationFactor": 8,
  "PartialFourier": 1,
  "PatientPosition": "HFS",
  "PercentPhaseFOV": 100,
  "PercentSampling": 100,
  "PhaseEncodingDirection": "j-",
  "PhaseEncodingSteps": 82,
  "PhaseResolution": 1,
  "PixelBandwidth": 3050,
  "ProcedureStepDescription": "Wager_Wager^1076_spacetop",
  "ProtocolName": "func_run-02_task-social_acq-ap-mb8",
  "PulseSequenceDetails": "%CustomerSeq%\\cmrr_mbep2d_bold",
  "ReceiveCoilActiveElements": "HEA;HEP",
  "ReceiveCoilName": "Head_32",
  "ReconMatrixPE": 82,
  "RepetitionTime": 0.46,
  "SAR": 0.0856444,
  "ScanOptions": "FS",
  "ScanningSequence": "EP",
  "SequenceName": "epfid2d1_82",
  "SequenceVariant": "SK\\SS",
  "SeriesDescription": "func_run-02_task-social_acq-ap-mb8",
  "SeriesNumber": 10,
  "ShimSetting": [4162, -7779, -7193, 525, 4, -124, 30, 54],
  "SliceThickness": 2.7,
  "SliceTiming": [0, 0.2525, 0.0625, 0.315, 0.1275, 0.3775, 0.19, 0, 0.2525, 0.0625, 0.315, 0.1275, 0.3775, 0.19, 0, 0.2525, 0.0625, 0.315, 0.1275, 0.3775, 0.19, 0, 0.2525, 0.0625, 0.315, 0.1275, 0.3775, 0.19, 0, 0.2525, 0.0625, 0.315, 0.1275, 0.3775, 0.19, 0, 0.2525, 0.0625, 0.315, 0.1275, 0.3775, 0.19, 0, 0.2525, 0.0625, 0.315, 0.1275, 0.3775, 0.19, 0, 0.2525, 0.0625, 0.315, 0.1275, 0.3775, 0.19],
  "SoftwareVersions": "syngo MR E11",
  "SpacingBetweenSlices": 2.7,
  "StationName": "AWP66112",
  "TaskName": "social",
  "TotalReadoutTime": 0.03969,
  "TxRefAmp": 253.132,
  "WipMemBlock": "95f98b8f-8660-4b50-92af-2087fd264061||Sequence: R016 ve11e/master r/434b28f1; Aug  7 2019 18:53:46 by eja",
  "dcmmeta_affine": [
    [-2.6796560287475586, -0.08467990159988403, 0.10248000919818878, 116.60674285888672],
    [-0.0809972733259201, 2.679943799972534, 0.09776397049427032, -94.74284362792969],
    [0.10478492826223373, -0.09395303577184677, 2.6962826251983643, -62.48627853393555],
    [0.0, 0.0, 0.0, 1.0]
],
  "dcmmeta_reorient_transform": [
    [0.0, -1.0, 0.0, 81.0],
    [1.0, 0.0, 0.0, 0.0],
    [0.0, 0.0, 1.0, 0.0],
    [0.0, 0.0, 0.0, 1.0]
],
  "dcmmeta_shape": [82, 82, 56, 872],
  "dcmmeta_slice_dim": 2,
  "dcmmeta_version": 0.6,
  "global": {
    "const": {
      "AccessionNumber": "A004154",
      "AcquisitionMatrix": [82, 0, 0, 82],
      "AngioFlag": "N",
      "BitsAllocated": 16,
      "BitsStored": 16,
      "BodyPartExamined": "BRAIN",
      "Columns": 656,
      "EchoNumbers": 1,
      "EchoTime": 27.2,
      "EchoTrainLength": 82,
      "FlipAngle": 44.0,
      "HighBit": 15,
      "ImageOrientationPatient": [0.99878084861687, 0.03018989298621, 0.03905620050194, -0.0315625086555, 0.99888812566477, 0.03501885853774],
      "ImagePositionPatient": [-854.50581026739, -914.72269690179, -127.13427280839],
      "ImageType": [
        "ORIGINAL",
        "PRIMARY",
        "M",
        "MB",
        "ND",
        "NORM",
        "MOSAIC"
],
      "ImagedNucleus": "1H",
      "ImagingFrequency": 123.252152,
      "InPlanePhaseEncodingDirection": "COL",
      "MRAcquisitionType": "2D",
      "MagneticFieldStrength": 3.0,
      "Manufacturer": "SIEMENS",
      "ManufacturerModelName": "Prisma",
      "Modality": "MR",
      "NumberOfAverages": 1.0,
      "NumberOfPhaseEncodingSteps": 82,
      "PercentPhaseFieldOfView": 100.0,
      "PercentSampling": 100.0,
      "PerformedProcedureStepStartTime": "144158.143000",
      "PhotometricInterpretation": "MONOCHROME2",
      "PixelBandwidth": 3050.0,
      "PixelRepresentation": 0,
      "PixelSpacing": [2.6829268932343, 2.6829268932343],
      "ProtocolName": "func_run-02_task-social_acq-ap-mb8",
      "RepetitionTime": 460.0,
      "Rows": 656,
      "SAR": 0.0856444431318,
      "SamplesPerPixel": 1,
      "ScanOptions": "FS",
      "ScanningSequence": "EP",
      "SequenceName": "epfid2d1_82",
      "SequenceVariant": [
        "SK",
        "SS"
],
      "SeriesDescription": "func_run-02_task-social_acq-ap-mb8",
      "SeriesNumber": 10,
      "SeriesTime": "145924.765000",
      "SliceLocation": -61.404906645017,
      "SliceThickness": 2.7000000476837,
      "SmallestImagePixelValue": 0,
      "SoftwareVersions": "syngo MR E11",
      "SpacingBetweenSlices": 2.7000000450836,
      "SpecificCharacterSet": "ISO_IR 100",
      "StudyID": "3",
      "StudyTime": "144158.088000",
      "TransmitCoilName": "Body",
      "VariableFlipAngleFlag": "N",
      "WindowCenterWidthExplanation": "Algo1"
    },
    "slices": {}
  },
  "time": {
    "samples": {
      "AcquisitionNumber": [1, 2, 3, 4, 5, 6, 7, 8, 9, 10, 11, 12, 13, 14, 15, 16, 17, 18, 19, 20, 21, 22, 23, 24, 25, 26, 27, 28, 29, 30, 31, 32, 33, 34, 35, 36, 37, 38, 39, 40, 41, 42, 43, 44, 45, 46, 47, 48, 49, 50, 51, 52, 53, 54, 55, 56, 57, 58, 59, 60, 61, 62, 63, 64, 65, 66, 67, 68, 69, 70, 71, 72, 73, 74, 75, 76, 77, 78, 79, 80, 81, 82, 83, 84, 85, 86, 87, 88, 89, 90, 91, 92, 93, 94, 95, 96, 97, 98, 99, 100, 101, 102, 103, 104, 105, 106, 107, 108, 109, 110, 111, 112, 113, 114, 115, 116, 117, 118, 119, 120, 121, 122, 123, 124, 125, 126, 127, 128, 129, 130, 131, 132, 133, 134, 135, 136, 137, 138, 139, 140, 141, 142, 143, 144, 145, 146, 147, 148, 149, 150, 151, 152, 153, 154, 155, 156, 157, 158, 159, 160, 161, 162, 163, 164, 165, 166, 167, 168, 169, 170, 171, 172, 173, 174, 175, 176, 177, 178, 179, 180, 181, 182, 183, 184, 185, 186, 187, 188, 189, 190, 191, 192, 193, 194, 195, 196, 197, 198, 199, 200, 201, 202, 203, 204, 205, 206, 207, 208, 209, 210, 211, 212, 213, 214, 215, 216, 217, 218, 219, 220, 221, 222, 223, 224, 225, 226, 227, 228, 229, 230, 231, 232, 233, 234, 235, 236, 237, 238, 239, 240, 241, 242, 243, 244, 245, 246, 247, 248, 249, 250, 251, 252, 253, 254, 255, 256, 257, 258, 259, 260, 261, 262, 263, 264, 265, 266, 267, 268, 269, 270, 271, 272, 273, 274, 275, 276, 277, 278, 279, 280, 281, 282, 283, 284, 285, 286, 287, 288, 289, 290, 291, 292, 293, 294, 295, 296, 297, 298, 299, 300, 301, 302, 303, 304, 305, 306, 307, 308, 309, 310, 311, 312, 313, 314, 315, 316, 317, 318, 319, 320, 321, 322, 323, 324, 325, 326, 327, 328, 329, 330, 331, 332, 333, 334, 335, 336, 337, 338, 339, 340, 341, 342, 343, 344, 345, 346, 347, 348, 349, 350, 351, 352, 353, 354, 355, 356, 357, 358, 359, 360, 361, 362, 363, 364, 365, 366, 367, 368, 369, 370, 371, 372, 373, 374, 375, 376, 377, 378, 379, 380, 381, 382, 383, 384, 385, 386, 387, 388, 389, 390, 391, 392, 393, 394, 395, 396, 397, 398, 399, 400, 401, 402, 403, 404, 405, 406, 407, 408, 409, 410, 411, 412, 413, 414, 415, 416, 417, 418, 419, 420, 421, 422, 423, 424, 425, 426, 427, 428, 429, 430, 431, 432, 433, 434, 435, 436, 437, 438, 439, 440, 441, 442, 443, 444, 445, 446, 447, 448, 449, 450, 451, 452, 453, 454, 455, 456, 457, 458, 459, 460, 461, 462, 463, 464, 465, 466, 467, 468, 469, 470, 471, 472, 473, 474, 475, 476, 477, 478, 479, 480, 481, 482, 483, 484, 485, 486, 487, 488, 489, 490, 491, 492, 493, 494, 495, 496, 497, 498, 499, 500, 501, 502, 503, 504, 505, 506, 507, 508, 509, 510, 511, 512, 513, 514, 515, 516, 517, 518, 519, 520, 521, 522, 523, 524, 525, 526, 527, 528, 529, 530, 531, 532, 533, 534, 535, 536, 537, 538, 539, 540, 541, 542, 543, 544, 545, 546, 547, 548, 549, 550, 551, 552, 553, 554, 555, 556, 557, 558, 559, 560, 561, 562, 563, 564, 565, 566, 567, 568, 569, 570, 571, 572, 573, 574, 575, 576, 577, 578, 579, 580, 581, 582, 583, 584, 585, 586, 587, 588, 589, 590, 591, 592, 593, 594, 595, 596, 597, 598, 599, 600, 601, 602, 603, 604, 605, 606, 607, 608, 609, 610, 611, 612, 613, 614, 615, 616, 617, 618, 619, 620, 621, 622, 623, 624, 625, 626, 627, 628, 629, 630, 631, 632, 633, 634, 635, 636, 637, 638, 639, 640, 641, 642, 643, 644, 645, 646, 647, 648, 649, 650, 651, 652, 653, 654, 655, 656, 657, 658, 659, 660, 661, 662, 663, 664, 665, 666, 667, 668, 669, 670, 671, 672, 673, 674, 675, 676, 677, 678, 679, 680, 681, 682, 683, 684, 685, 686, 687, 688, 689, 690, 691, 692, 693, 694, 695, 696, 697, 698, 699, 700, 701, 702, 703, 704, 705, 706, 707, 708, 709, 710, 711, 712, 713, 714, 715, 716, 717, 718, 719, 720, 721, 722, 723, 724, 725, 726, 727, 728, 729, 730, 731, 732, 733, 734, 735, 736, 737, 738, 739, 740, 741, 742, 743, 744, 745, 746, 747, 748, 749, 750, 751, 752, 753, 754, 755, 756, 757, 758, 759, 760, 761, 762, 763, 764, 765, 766, 767, 768, 769, 770, 771, 772, 773, 774, 775, 776, 777, 778, 779, 780, 781, 782, 783, 784, 785, 786, 787, 788, 789, 790, 791, 792, 793, 794, 795, 796, 797, 798, 799, 800, 801, 802, 803, 804, 805, 806, 807, 808, 809, 810, 811, 812, 813, 814, 815, 816, 817, 818, 819, 820, 821, 822, 823, 824, 825, 826, 827, 828, 829, 830, 831, 832, 833, 834, 835, 836, 837, 838, 839, 840, 841, 842, 843, 844, 845, 846, 847, 848, 849, 850, 851, 852, 853, 854, 855, 856, 857, 858, 859, 860, 861, 862, 863, 864, 865, 866, 867, 868, 869, 870, 871, 872],
      "AcquisitionTime": ["145907.120000", "145907.580000", "145908.040000", "145908.500000", "145908.960000", "145909.420000", "145909.880000", "145910.340000", "145910.800000", "145911.260000", "145911.720000", "145912.180000", "145912.640000", "145913.100000", "145913.560000", "145914.020000", "145914.480000", "145914.940000", "145915.400000", "145915.860000", "145916.320000", "145916.780000", "145917.240000", "145917.700000", "145918.160000", "145918.620000", "145919.080000", "145919.540000", "145920.000000", "145920.460000", "145920.920000", "145921.380000", "145921.840000", "145922.300000", "145922.760000", "145923.220000", "145923.680000", "145924.140000", "145924.600000", "145925.060000", "145925.520000", "145925.980000", "145926.440000", "145926.900000", "145927.360000", "145927.820000", "145928.280000", "145928.740000", "145929.200000", "145929.660000", "145930.120000", "145930.580000", "145931.040000", "145931.500000", "145931.960000", "145932.420000", "145932.880000", "145933.340000", "145933.800000", "145934.260000", "145934.720000", "145935.180000", "145935.640000", "145936.100000", "145936.560000", "145937.020000", "145937.480000", "145937.940000", "145938.400000", "145938.860000", "145939.320000", "145939.780000", "145940.240000", "145940.700000", "145941.160000", "145941.620000", "145942.080000", "145942.540000", "145943.000000", "145943.460000", "145943.920000", "145944.380000", "145944.840000", "145945.300000", "145945.760000", "145946.220000", "145946.680000", "145947.140000", "145947.600000", "145948.060000", "145948.520000", "145948.980000", "145949.440000", "145949.900000", "145950.360000", "145950.820000", "145951.280000", "145951.740000", "145952.200000", "145952.660000", "145953.120000", "145953.580000", "145954.040000", "145954.500000", "145954.960000", "145955.420000", "145955.880000", "145956.340000", "145956.800000", "145957.260000", "145957.720000", "145958.180000", "145958.640000", "145959.100000", "145959.560000", "150000.020000", "150000.480000", "150000.940000", "150001.400000", "150001.860000", "150002.320000", "150002.780000", "150003.240000", "150003.700000", "150004.160000", "150004.620000", "150005.080000", "150005.540000", "150006.000000", "150006.460000", "150006.920000", "150007.380000", "150007.840000", "150008.300000", "150008.760000", "150009.220000", "150009.680000", "150010.140000", "150010.600000", "150011.060000", "150011.520000", "150011.980000", "150012.440000", "150012.900000", "150013.360000", "150013.820000", "150014.280000", "150014.740000", "150015.200000", "150015.660000", "150016.120000", "150016.580000", "150017.040000", "150017.500000", "150017.960000", "150018.420000", "150018.880000", "150019.340000", "150019.800000", "150020.260000", "150020.720000", "150021.180000", "150021.640000", "150022.100000", "150022.560000", "150023.020000", "150023.480000", "150023.940000", "150024.400000", "150024.860000", "150025.320000", "150025.780000", "150026.240000", "150026.700000", "150027.160000", "150027.620000", "150028.080000", "150028.540000", "150029.000000", "150029.460000", "150029.920000", "150030.380000", "150030.840000", "150031.300000", "150031.760000", "150032.220000", "150032.680000", "150033.140000", "150033.600000", "150034.060000", "150034.520000", "150034.980000", "150035.440000", "150035.900000", "150036.360000", "150036.820000", "150037.280000", "150037.740000", "150038.200000", "150038.660000", "150039.120000", "150039.580000", "150040.040000", "150040.500000", "150040.960000", "150041.420000", "150041.880000", "150042.340000", "150042.800000", "150043.260000", "150043.720000", "150044.180000", "150044.640000", "150045.100000", "150045.560000", "150046.020000", "150046.480000", "150046.940000", "150047.400000", "150047.860000", "150048.320000", "150048.780000", "150049.240000", "150049.700000", "150050.160000", "150050.620000", "150051.080000", "150051.540000", "150052.000000", "150052.460000", "150052.920000", "150053.380000", "150053.840000", "150054.300000", "150054.760000", "150055.220000", "150055.680000", "150056.140000", "150056.600000", "150057.060000", "150057.520000", "150057.980000", "150058.440000", "150058.900000", "150059.360000", "150059.820000", "150100.280000", "150100.740000", "150101.200000", "150101.660000", "150102.120000", "150102.580000", "150103.040000", "150103.500000", "150103.960000", "150104.420000", "150104.880000", "150105.340000", "150105.800000", "150106.260000", "150106.720000", "150107.180000", "150107.640000", "150108.100000", "150108.560000", "150109.020000", "150109.480000", "150109.940000", "150110.400000", "150110.860000", "150111.320000", "150111.780000", "150112.240000", "150112.700000", "150113.160000", "150113.620000", "150114.080000", "150114.540000", "150115.000000", "150115.460000", "150115.920000", "150116.380000", "150116.840000", "150117.300000", "150117.760000", "150118.220000", "150118.680000", "150119.140000", "150119.600000", "150120.060000", "150120.520000", "150120.980000", "150121.440000", "150121.900000", "150122.360000", "150122.820000", "150123.280000", "150123.740000", "150124.200000", "150124.660000", "150125.120000", "150125.580000", "150126.040000", "150126.500000", "150126.960000", "150127.420000", "150127.880000", "150128.340000", "150128.800000", "150129.260000", "150129.720000", "150130.180000", "150130.640000", "150131.100000", "150131.560000", "150132.020000", "150132.480000", "150132.940000", "150133.400000", "150133.860000", "150134.320000", "150134.780000", "150135.240000", "150135.700000", "150136.160000", "150136.620000", "150137.080000", "150137.540000", "150138.000000", "150138.460000", "150138.920000", "150139.380000", "150139.840000", "150140.300000", "150140.760000", "150141.220000", "150141.680000", "150142.140000", "150142.600000", "150143.060000", "150143.520000", "150143.980000", "150144.440000", "150144.900000", "150145.360000", "150145.820000", "150146.280000", "150146.740000", "150147.200000", "150147.660000", "150148.120000", "150148.580000", "150149.040000", "150149.500000", "150149.960000", "150150.420000", "150150.880000", "150151.340000", "150151.800000", "150152.260000", "150152.720000", "150153.180000", "150153.640000", "150154.100000", "150154.560000", "150155.020000", "150155.480000", "150155.940000", "150156.400000", "150156.860000", "150157.320000", "150157.780000", "150158.240000", "150158.700000", "150159.160000", "150159.620000", "150200.080000", "150200.540000", "150201.000000", "150201.460000", "150201.920000", "150202.380000", "150202.840000", "150203.300000", "150203.760000", "150204.220000", "150204.680000", "150205.140000", "150205.600000", "150206.060000", "150206.520000", "150206.980000", "150207.440000", "150207.900000", "150208.360000", "150208.820000", "150209.280000", "150209.740000", "150210.200000", "150210.660000", "150211.120000", "150211.580000", "150212.040000", "150212.500000", "150212.960000", "150213.420000", "150213.880000", "150214.340000", "150214.800000", "150215.260000", "150215.720000", "150216.180000", "150216.640000", "150217.100000", "150217.560000", "150218.020000", "150218.480000", "150218.940000", "150219.400000", "150219.860000", "150220.320000", "150220.780000", "150221.240000", "150221.700000", "150222.160000", "150222.620000", "150223.080000", "150223.540000", "150224.000000", "150224.460000", "150224.920000", "150225.380000", "150225.840000", "150226.300000", "150226.760000", "150227.220000", "150227.680000", "150228.140000", "150228.600000", "150229.060000", "150229.520000", "150229.980000", "150230.440000", "150230.900000", "150231.360000", "150231.820000", "150232.280000", "150232.740000", "150233.200000", "150233.660000", "150234.120000", "150234.580000", "150235.040000", "150235.500000", "150235.960000", "150236.420000", "150236.880000", "150237.340000", "150237.800000", "150238.260000", "150238.720000", "150239.180000", "150239.640000", "150240.100000", "150240.560000", "150241.020000", "150241.480000", "150241.940000", "150242.400000", "150242.860000", "150243.320000", "150243.780000", "150244.240000", "150244.700000", "150245.160000", "150245.620000", "150246.080000", "150246.540000", "150247.000000", "150247.460000", "150247.920000", "150248.380000", "150248.840000", "150249.300000", "150249.760000", "150250.220000", "150250.680000", "150251.140000", "150251.600000", "150252.060000", "150252.520000", "150252.980000", "150253.440000", "150253.900000", "150254.360000", "150254.820000", "150255.280000", "150255.740000", "150256.200000", "150256.660000", "150257.120000", "150257.580000", "150258.040000", "150258.500000", "150258.960000", "150259.420000", "150259.880000", "150300.340000", "150300.800000", "150301.260000", "150301.720000", "150302.180000", "150302.640000", "150303.100000", "150303.560000", "150304.020000", "150304.480000", "150304.940000", "150305.400000", "150305.860000", "150306.320000", "150306.780000", "150307.240000", "150307.700000", "150308.160000", "150308.620000", "150309.080000", "150309.540000", "150310.000000", "150310.460000", "150310.920000", "150311.380000", "150311.840000", "150312.300000", "150312.760000", "150313.220000", "150313.680000", "150314.140000", "150314.600000", "150315.060000", "150315.520000", "150315.980000", "150316.440000", "150316.900000", "150317.360000", "150317.820000", "150318.280000", "150318.740000", "150319.200000", "150319.660000", "150320.120000", "150320.580000", "150321.040000", "150321.500000", "150321.960000", "150322.420000", "150322.880000", "150323.340000", "150323.800000", "150324.260000", "150324.720000", "150325.180000", "150325.640000", "150326.100000", "150326.560000", "150327.020000", "150327.480000", "150327.940000", "150328.400000", "150328.860000", "150329.320000", "150329.780000", "150330.240000", "150330.700000", "150331.160000", "150331.620000", "150332.080000", "150332.540000", "150333.000000", "150333.460000", "150333.920000", "150334.380000", "150334.840000", "150335.300000", "150335.760000", "150336.220000", "150336.680000", "150337.140000", "150337.600000", "150338.060000", "150338.520000", "150338.980000", "150339.440000", "150339.900000", "150340.360000", "150340.820000", "150341.280000", "150341.740000", "150342.200000", "150342.660000", "150343.120000", "150343.580000", "150344.040000", "150344.500000", "150344.960000", "150345.420000", "150345.880000", "150346.340000", "150346.800000", "150347.260000", "150347.720000", "150348.180000", "150348.640000", "150349.100000", "150349.560000", "150350.020000", "150350.480000", "150350.940000", "150351.400000", "150351.860000", "150352.320000", "150352.780000", "150353.240000", "150353.700000", "150354.160000", "150354.620000", "150355.080000", "150355.540000", "150356.000000", "150356.460000", "150356.920000", "150357.380000", "150357.840000", "150358.300000", "150358.760000", "150359.220000", "150359.680000", "150400.140000", "150400.600000", "150401.060000", "150401.520000", "150401.980000", "150402.440000", "150402.900000", "150403.360000", "150403.820000", "150404.280000", "150404.740000", "150405.200000", "150405.660000", "150406.120000", "150406.580000", "150407.040000", "150407.500000", "150407.960000", "150408.420000", "150408.880000", "150409.340000", "150409.800000", "150410.260000", "150410.720000", "150411.180000", "150411.640000", "150412.100000", "150412.560000", "150413.020000", "150413.480000", "150413.940000", "150414.400000", "150414.860000", "150415.320000", "150415.780000", "150416.240000", "150416.700000", "150417.160000", "150417.620000", "150418.080000", "150418.540000", "150419.000000", "150419.460000", "150419.920000", "150420.380000", "150420.840000", "150421.300000", "150421.760000", "150422.220000", "150422.680000", "150423.140000", "150423.600000", "150424.060000", "150424.520000", "150424.980000", "150425.440000", "150425.900000", "150426.360000", "150426.820000", "150427.280000", "150427.740000", "150428.200000", "150428.660000", "150429.120000", "150429.580000", "150430.040000", "150430.500000", "150430.960000", "150431.420000", "150431.880000", "150432.340000", "150432.800000", "150433.260000", "150433.720000", "150434.180000", "150434.640000", "150435.100000", "150435.560000", "150436.020000", "150436.480000", "150436.940000", "150437.400000", "150437.860000", "150438.320000", "150438.780000", "150439.240000", "150439.700000", "150440.160000", "150440.620000", "150441.080000", "150441.540000", "150442.000000", "150442.460000", "150442.920000", "150443.380000", "150443.840000", "150444.300000", "150444.760000", "150445.220000", "150445.680000", "150446.140000", "150446.600000", "150447.060000", "150447.520000", "150447.980000", "150448.440000", "150448.900000", "150449.360000", "150449.820000", "150450.280000", "150450.740000", "150451.200000", "150451.660000", "150452.120000", "150452.580000", "150453.040000", "150453.500000", "150453.960000", "150454.420000", "150454.880000", "150455.340000", "150455.800000", "150456.260000", "150456.720000", "150457.180000", "150457.640000", "150458.100000", "150458.560000", "150459.020000", "150459.480000", "150459.940000", "150500.400000", "150500.860000", "150501.320000", "150501.780000", "150502.240000", "150502.700000", "150503.160000", "150503.620000", "150504.080000", "150504.540000", "150505.000000", "150505.460000", "150505.920000", "150506.380000", "150506.840000", "150507.300000", "150507.760000", "150508.220000", "150508.680000", "150509.140000", "150509.600000", "150510.060000", "150510.520000", "150510.980000", "150511.440000", "150511.900000", "150512.360000", "150512.820000", "150513.280000", "150513.740000", "150514.200000", "150514.660000", "150515.120000", "150515.580000", "150516.040000", "150516.500000", "150516.960000", "150517.420000", "150517.880000", "150518.340000", "150518.800000", "150519.260000", "150519.720000", "150520.180000", "150520.640000", "150521.100000", "150521.560000", "150522.020000", "150522.480000", "150522.940000", "150523.400000", "150523.860000", "150524.320000", "150524.780000", "150525.240000", "150525.700000", "150526.160000", "150526.620000", "150527.080000", "150527.540000", "150528.000000", "150528.460000", "150528.920000", "150529.380000", "150529.840000", "150530.300000", "150530.760000", "150531.220000", "150531.680000", "150532.140000", "150532.600000", "150533.060000", "150533.520000", "150533.980000", "150534.440000", "150534.900000", "150535.360000", "150535.820000", "150536.280000", "150536.740000", "150537.200000", "150537.660000", "150538.120000", "150538.580000", "150539.040000", "150539.500000", "150539.960000", "150540.420000", "150540.880000", "150541.340000", "150541.800000", "150542.260000", "150542.720000", "150543.180000", "150543.640000", "150544.100000", "150544.560000", "150545.020000", "150545.480000", "150545.940000", "150546.400000", "150546.860000", "150547.320000", "150547.780000"],
