{
  "AcquisitionMatrixPE": 82,
  "AcquisitionNumber": 1,
  "AcquisitionTime": "16:17:33.895000",
  "BandwidthPerPixelPhaseEncode": 24.888,
  "BaseResolution": 82,
  "BodyPartExamined": "BRAIN",
  "ConsistencyInfo": "N4_VE11E_LATEST_20181129",
  "ConversionSoftware": "dcm2niix",
  "ConversionSoftwareVersion": "v1.0.20201102",
  "DerivedVendorReportedEchoSpacing": 0.00049,
  "DeviceSerialNumber": "66112",
  "DwellTime": 2e-06,
  "EchoTime": 0.0272,
  "EchoTrainLength": 82,
  "EffectiveEchoSpacing": 0.00049,
  "FlipAngle": 44,
  "ImageComments": "Unaliased MB8/PE3",
  "ImageOrientationPatientDICOM": [0.998868, 0.0286751, 0.0379453, -0.0301692, 0.998768, 0.0394052],
  "ImageType": [
    "ORIGINAL",
    "PRIMARY",
    "M",
    "MB",
    "ND",
    "NORM",
    "MOSAIC"
],
  "ImagingFrequency": 123.252,
  "InPlanePhaseEncodingDirectionDICOM": "COL",
  "InstitutionAddress": "Maynard 3,Hanover,NH,US,03755",
  "InstitutionName": "Dartmouth College - PBS",
  "InstitutionalDepartmentName": "Department",
  "MRAcquisitionType": "2D",
  "MagneticFieldStrength": 3,
  "Manufacturer": "Siemens",
  "ManufacturersModelName": "Prisma",
  "Modality": "MR",
  "MultibandAccelerationFactor": 8,
  "PartialFourier": 1,
  "PatientPosition": "HFS",
  "PercentPhaseFOV": 100,
  "PercentSampling": 100,
  "PhaseEncodingDirection": "j-",
  "PhaseEncodingSteps": 82,
  "PhaseResolution": 1,
  "PixelBandwidth": 3050,
  "ProcedureStepDescription": "Wager_Wager^1076_spacetop",
  "ProtocolName": "func_run-03_task-alignvideo_acq-ap-mb8",
  "PulseSequenceDetails": "%CustomerSeq%\\cmrr_mbep2d_bold",
  "ReceiveCoilActiveElements": "HEA;HEP",
  "ReceiveCoilName": "Head_32",
  "ReconMatrixPE": 82,
  "RepetitionTime": 0.46,
  "SAR": 0.0857411,
  "ScanOptions": "FS",
  "ScanningSequence": "EP",
  "SequenceName": "epfid2d1_82",
  "SequenceVariant": "SK\\SS",
  "SeriesDescription": "func_run-03_task-alignvideo_acq-ap-mb8",
  "SeriesNumber": 32,
  "ShimSetting": [4162, -7771, -7178, 568, 5, -86, 24, 58],
  "SliceThickness": 2.7,
  "SliceTiming": [0, 0.2525, 0.065, 0.315, 0.1275, 0.3775, 0.19, 0, 0.2525, 0.065, 0.315, 0.1275, 0.3775, 0.19, 0, 0.2525, 0.065, 0.315, 0.1275, 0.3775, 0.19, 0, 0.2525, 0.065, 0.315, 0.1275, 0.3775, 0.19, 0, 0.2525, 0.065, 0.315, 0.1275, 0.3775, 0.19, 0, 0.2525, 0.065, 0.315, 0.1275, 0.3775, 0.19, 0, 0.2525, 0.065, 0.315, 0.1275, 0.3775, 0.19, 0, 0.2525, 0.065, 0.315, 0.1275, 0.3775, 0.19],
  "SoftwareVersions": "syngo MR E11",
  "SpacingBetweenSlices": 2.7,
  "StationName": "AWP66112",
  "TaskName": "alignvideo",
  "TotalReadoutTime": 0.03969,
  "TxRefAmp": 253.132,
  "WipMemBlock": "2a25e440-1bef-42ca-aa4d-f0fd3cd08738||Sequence: R016 ve11e/master r/434b28f1; Aug  7 2019 18:53:46 by eja",
  "dcmmeta_affine": [
    [-2.6798906326293945, -0.08094170689582825, 0.09927511215209961, 116.6722412109375],
    [-0.07693328708410263, 2.6796209812164307, 0.10936444252729416, -91.88948822021484],
    [0.10180437564849854, -0.10572117567062378, 2.6959569454193115, -51.06537628173828],
    [0.0, 0.0, 0.0, 1.0]
],
  "dcmmeta_reorient_transform": [
    [0.0, -1.0, 0.0, 81.0],
    [1.0, 0.0, 0.0, 0.0],
    [0.0, 0.0, 1.0, 0.0],
    [0.0, 0.0, 0.0, 1.0]
],
  "dcmmeta_shape": [82, 82, 56, 1065],
  "dcmmeta_slice_dim": 2,
  "dcmmeta_version": 0.6,
  "global": {
    "const": {
      "AccessionNumber": "A004154",
      "AcquisitionMatrix": [82, 0, 0, 82],
      "AngioFlag": "N",
      "BitsAllocated": 16,
      "BitsStored": 16,
      "BodyPartExamined": "BRAIN",
      "Columns": 656,
      "EchoNumbers": 1,
      "EchoTime": 27.2,
      "EchoTrainLength": 82,
      "FlipAngle": 44.0,
      "HighBit": 15,
      "ImageOrientationPatient": [0.99886830637972, 0.02867513488259, 0.03794526517983, -0.030169182168, 0.99876776749817, 0.03940516532181],
      "ImagePositionPatient": [-856.01430901194, -916.290856508, -119.18862353683],
      "ImageType": [
        "ORIGINAL",
        "PRIMARY",
        "M",
        "MB",
        "ND",
        "NORM",
        "MOSAIC"
],
      "ImagedNucleus": "1H",
      "ImagingFrequency": 123.252159,
      "InPlanePhaseEncodingDirection": "COL",
      "MRAcquisitionType": "2D",
      "MagneticFieldStrength": 3.0,
      "Manufacturer": "SIEMENS",
      "ManufacturerModelName": "Prisma",
      "Modality": "MR",
      "NumberOfAverages": 1.0,
      "NumberOfPhaseEncodingSteps": 82,
      "PercentPhaseFieldOfView": 100.0,
      "PercentSampling": 100.0,
      "PerformedProcedureStepStartTime": "144158.143000",
      "PhotometricInterpretation": "MONOCHROME2",
      "PixelBandwidth": 3050.0,
      "PixelRepresentation": 0,
      "PixelSpacing": [2.6829268932343, 2.6829268932343],
      "ProtocolName": "func_run-03_task-alignvideo_acq-ap-mb8",
      "RepetitionTime": 460.0,
      "Rows": 656,
      "SAR": 0.08574105547805,
      "SamplesPerPixel": 1,
      "ScanOptions": "FS",
      "ScanningSequence": "EP",
      "SequenceName": "epfid2d1_82",
      "SequenceVariant": [
        "SK",
        "SS"
],
      "SeriesDescription": "func_run-03_task-alignvideo_acq-ap-mb8",
      "SeriesNumber": 32,
      "SeriesTime": "161744.688000",
      "SliceLocation": -50.421054083159,
      "SliceThickness": 2.7000000476837,
      "SmallestImagePixelValue": 0,
      "SoftwareVersions": "syngo MR E11",
      "SpacingBetweenSlices": 2.6999999582457,
      "SpecificCharacterSet": "ISO_IR 100",
      "StudyID": "3",
      "StudyTime": "144158.088000",
      "TransmitCoilName": "Body",
      "VariableFlipAngleFlag": "N",
      "WindowCenterWidthExplanation": "Algo1"
    },
    "slices": {}
  },
  "time": {
    "samples": {
      "AcquisitionNumber": [1, 2, 3, 4, 5, 6, 7, 8, 9, 10, 11, 12, 13, 14, 15, 16, 17, 18, 19, 20, 21, 22, 23, 24, 25, 26, 27, 28, 29, 30, 31, 32, 33, 34, 35, 36, 37, 38, 39, 40, 41, 42, 43, 44, 45, 46, 47, 48, 49, 50, 51, 52, 53, 54, 55, 56, 57, 58, 59, 60, 61, 62, 63, 64, 65, 66, 67, 68, 69, 70, 71, 72, 73, 74, 75, 76, 77, 78, 79, 80, 81, 82, 83, 84, 85, 86, 87, 88, 89, 90, 91, 92, 93, 94, 95, 96, 97, 98, 99, 100, 101, 102, 103, 104, 105, 106, 107, 108, 109, 110, 111, 112, 113, 114, 115, 116, 117, 118, 119, 120, 121, 122, 123, 124, 125, 126, 127, 128, 129, 130, 131, 132, 133, 134, 135, 136, 137, 138, 139, 140, 141, 142, 143, 144, 145, 146, 147, 148, 149, 150, 151, 152, 153, 154, 155, 156, 157, 158, 159, 160, 161, 162, 163, 164, 165, 166, 167, 168, 169, 170, 171, 172, 173, 174, 175, 176, 177, 178, 179, 180, 181, 182, 183, 184, 185, 186, 187, 188, 189, 190, 191, 192, 193, 194, 195, 196, 197, 198, 199, 200, 201, 202, 203, 204, 205, 206, 207, 208, 209, 210, 211, 212, 213, 214, 215, 216, 217, 218, 219, 220, 221, 222, 223, 224, 225, 226, 227, 228, 229, 230, 231, 232, 233, 234, 235, 236, 237, 238, 239, 240, 241, 242, 243, 244, 245, 246, 247, 248, 249, 250, 251, 252, 253, 254, 255, 256, 257, 258, 259, 260, 261, 262, 263, 264, 265, 266, 267, 268, 269, 270, 271, 272, 273, 274, 275, 276, 277, 278, 279, 280, 281, 282, 283, 284, 285, 286, 287, 288, 289, 290, 291, 292, 293, 294, 295, 296, 297, 298, 299, 300, 301, 302, 303, 304, 305, 306, 307, 308, 309, 310, 311, 312, 313, 314, 315, 316, 317, 318, 319, 320, 321, 322, 323, 324, 325, 326, 327, 328, 329, 330, 331, 332, 333, 334, 335, 336, 337, 338, 339, 340, 341, 342, 343, 344, 345, 346, 347, 348, 349, 350, 351, 352, 353, 354, 355, 356, 357, 358, 359, 360, 361, 362, 363, 364, 365, 366, 367, 368, 369, 370, 371, 372, 373, 374, 375, 376, 377, 378, 379, 380, 381, 382, 383, 384, 385, 386, 387, 388, 389, 390, 391, 392, 393, 394, 395, 396, 397, 398, 399, 400, 401, 402, 403, 404, 405, 406, 407, 408, 409, 410, 411, 412, 413, 414, 415, 416, 417, 418, 419, 420, 421, 422, 423, 424, 425, 426, 427, 428, 429, 430, 431, 432, 433, 434, 435, 436, 437, 438, 439, 440, 441, 442, 443, 444, 445, 446, 447, 448, 449, 450, 451, 452, 453, 454, 455, 456, 457, 458, 459, 460, 461, 462, 463, 464, 465, 466, 467, 468, 469, 470, 471, 472, 473, 474, 475, 476, 477, 478, 479, 480, 481, 482, 483, 484, 485, 486, 487, 488, 489, 490, 491, 492, 493, 494, 495, 496, 497, 498, 499, 500, 501, 502, 503, 504, 505, 506, 507, 508, 509, 510, 511, 512, 513, 514, 515, 516, 517, 518, 519, 520, 521, 522, 523, 524, 525, 526, 527, 528, 529, 530, 531, 532, 533, 534, 535, 536, 537, 538, 539, 540, 541, 542, 543, 544, 545, 546, 547, 548, 549, 550, 551, 552, 553, 554, 555, 556, 557, 558, 559, 560, 561, 562, 563, 564, 565, 566, 567, 568, 569, 570, 571, 572, 573, 574, 575, 576, 577, 578, 579, 580, 581, 582, 583, 584, 585, 586, 587, 588, 589, 590, 591, 592, 593, 594, 595, 596, 597, 598, 599, 600, 601, 602, 603, 604, 605, 606, 607, 608, 609, 610, 611, 612, 613, 614, 615, 616, 617, 618, 619, 620, 621, 622, 623, 624, 625, 626, 627, 628, 629, 630, 631, 632, 633, 634, 635, 636, 637, 638, 639, 640, 641, 642, 643, 644, 645, 646, 647, 648, 649, 650, 651, 652, 653, 654, 655, 656, 657, 658, 659, 660, 661, 662, 663, 664, 665, 666, 667, 668, 669, 670, 671, 672, 673, 674, 675, 676, 677, 678, 679, 680, 681, 682, 683, 684, 685, 686, 687, 688, 689, 690, 691, 692, 693, 694, 695, 696, 697, 698, 699, 700, 701, 702, 703, 704, 705, 706, 707, 708, 709, 710, 711, 712, 713, 714, 715, 716, 717, 718, 719, 720, 721, 722, 723, 724, 725, 726, 727, 728, 729, 730, 731, 732, 733, 734, 735, 736, 737, 738, 739, 740, 741, 742, 743, 744, 745, 746, 747, 748, 749, 750, 751, 752, 753, 754, 755, 756, 757, 758, 759, 760, 761, 762, 763, 764, 765, 766, 767, 768, 769, 770, 771, 772, 773, 774, 775, 776, 777, 778, 779, 780, 781, 782, 783, 784, 785, 786, 787, 788, 789, 790, 791, 792, 793, 794, 795, 796, 797, 798, 799, 800, 801, 802, 803, 804, 805, 806, 807, 808, 809, 810, 811, 812, 813, 814, 815, 816, 817, 818, 819, 820, 821, 822, 823, 824, 825, 826, 827, 828, 829, 830, 831, 832, 833, 834, 835, 836, 837, 838, 839, 840, 841, 842, 843, 844, 845, 846, 847, 848, 849, 850, 851, 852, 853, 854, 855, 856, 857, 858, 859, 860, 861, 862, 863, 864, 865, 866, 867, 868, 869, 870, 871, 872, 873, 874, 875, 876, 877, 878, 879, 880, 881, 882, 883, 884, 885, 886, 887, 888, 889, 890, 891, 892, 893, 894, 895, 896, 897, 898, 899, 900, 901, 902, 903, 904, 905, 906, 907, 908, 909, 910, 911, 912, 913, 914, 915, 916, 917, 918, 919, 920, 921, 922, 923, 924, 925, 926, 927, 928, 929, 930, 931, 932, 933, 934, 935, 936, 937, 938, 939, 940, 941, 942, 943, 944, 945, 946, 947, 948, 949, 950, 951, 952, 953, 954, 955, 956, 957, 958, 959, 960, 961, 962, 963, 964, 965, 966, 967, 968, 969, 970, 971, 972, 973, 974, 975, 976, 977, 978, 979, 980, 981, 982, 983, 984, 985, 986, 987, 988, 989, 990, 991, 992, 993, 994, 995, 996, 997, 998, 999, 1000, 1001, 1002, 1003, 1004, 1005, 1006, 1007, 1008, 1009, 1010, 1011, 1012, 1013, 1014, 1015, 1016, 1017, 1018, 1019, 1020, 1021, 1022, 1023, 1024, 1025, 1026, 1027, 1028, 1029, 1030, 1031, 1032, 1033, 1034, 1035, 1036, 1037, 1038, 1039, 1040, 1041, 1042, 1043, 1044, 1045, 1046, 1047, 1048, 1049, 1050, 1051, 1052, 1053, 1054, 1055, 1056, 1057, 1058, 1059, 1060, 1061, 1062, 1063, 1064, 1065],
      "AcquisitionTime": ["161733.895000", "161734.355000", "161734.815000", "161735.275000", "161735.735000", "161736.195000", "161736.655000", "161737.115000", "161737.575000", "161738.035000", "161738.495000", "161738.955000", "161739.415000", "161739.875000", "161740.335000", "161740.795000", "161741.255000", "161741.715000", "161742.175000", "161742.635000", "161743.095000", "161743.555000", "161744.015000", "161744.475000", "161744.935000", "161745.395000", "161745.855000", "161746.315000", "161746.775000", "161747.235000", "161747.695000", "161748.155000", "161748.615000", "161749.075000", "161749.535000", "161749.995000", "161750.455000", "161750.915000", "161751.375000", "161751.835000", "161752.295000", "161752.755000", "161753.215000", "161753.675000", "161754.135000", "161754.595000", "161755.055000", "161755.515000", "161755.975000", "161756.435000", "161756.895000", "161757.355000", "161757.815000", "161758.275000", "161758.735000", "161759.195000", "161759.655000", "161800.115000", "161800.575000", "161801.035000", "161801.495000", "161801.955000", "161802.415000", "161802.875000", "161803.335000", "161803.795000", "161804.255000", "161804.715000", "161805.175000", "161805.635000", "161806.095000", "161806.555000", "161807.015000", "161807.475000", "161807.935000", "161808.395000", "161808.855000", "161809.315000", "161809.775000", "161810.235000", "161810.695000", "161811.155000", "161811.615000", "161812.075000", "161812.535000", "161812.995000", "161813.455000", "161813.915000", "161814.375000", "161814.835000", "161815.295000", "161815.755000", "161816.215000", "161816.675000", "161817.135000", "161817.595000", "161818.055000", "161818.515000", "161818.975000", "161819.435000", "161819.895000", "161820.355000", "161820.815000", "161821.275000", "161821.735000", "161822.195000", "161822.655000", "161823.115000", "161823.575000", "161824.035000", "161824.495000", "161824.955000", "161825.415000", "161825.875000", "161826.335000", "161826.795000", "161827.255000", "161827.715000", "161828.175000", "161828.635000", "161829.095000", "161829.555000", "161830.015000", "161830.475000", "161830.935000", "161831.395000", "161831.855000", "161832.315000", "161832.775000", "161833.235000", "161833.695000", "161834.155000", "161834.615000", "161835.075000", "161835.535000", "161835.995000", "161836.455000", "161836.915000", "161837.375000", "161837.835000", "161838.295000", "161838.755000", "161839.215000", "161839.675000", "161840.135000", "161840.595000", "161841.055000", "161841.515000", "161841.975000", "161842.435000", "161842.895000", "161843.355000", "161843.815000", "161844.275000", "161844.735000", "161845.195000", "161845.655000", "161846.115000", "161846.575000", "161847.035000", "161847.495000", "161847.955000", "161848.415000", "161848.875000", "161849.335000", "161849.795000", "161850.255000", "161850.715000", "161851.175000", "161851.635000", "161852.095000", "161852.555000", "161853.015000", "161853.475000", "161853.935000", "161854.395000", "161854.855000", "161855.315000", "161855.775000", "161856.235000", "161856.695000", "161857.155000", "161857.615000", "161858.075000", "161858.535000", "161858.995000", "161859.455000", "161859.915000", "161900.375000", "161900.835000", "161901.295000", "161901.755000", "161902.215000", "161902.675000", "161903.135000", "161903.595000", "161904.055000", "161904.515000", "161904.975000", "161905.435000", "161905.895000", "161906.355000", "161906.815000", "161907.275000", "161907.735000", "161908.195000", "161908.655000", "161909.115000", "161909.575000", "161910.035000", "161910.495000", "161910.955000", "161911.415000", "161911.875000", "161912.335000", "161912.795000", "161913.255000", "161913.715000", "161914.175000", "161914.635000", "161915.095000", "161915.555000", "161916.015000", "161916.475000", "161916.935000", "161917.395000", "161917.855000", "161918.315000", "161918.775000", "161919.235000", "161919.695000", "161920.155000", "161920.615000", "161921.075000", "161921.535000", "161921.995000", "161922.455000", "161922.915000", "161923.375000", "161923.835000", "161924.295000", "161924.755000", "161925.215000", "161925.675000", "161926.135000", "161926.595000", "161927.055000", "161927.515000", "161927.975000", "161928.435000", "161928.895000", "161929.355000", "161929.815000", "161930.275000", "161930.735000", "161931.195000", "161931.655000", "161932.115000", "161932.575000", "161933.035000", "161933.495000", "161933.955000", "161934.415000", "161934.875000", "161935.335000", "161935.795000", "161936.255000", "161936.715000", "161937.175000", "161937.635000", "161938.095000", "161938.555000", "161939.015000", "161939.475000", "161939.935000", "161940.395000", "161940.855000", "161941.315000", "161941.775000", "161942.235000", "161942.695000", "161943.155000", "161943.615000", "161944.075000", "161944.535000", "161944.995000", "161945.455000", "161945.915000", "161946.375000", "161946.835000", "161947.295000", "161947.755000", "161948.215000", "161948.675000", "161949.135000", "161949.595000", "161950.055000", "161950.515000", "161950.975000", "161951.435000", "161951.895000", "161952.355000", "161952.815000", "161953.275000", "161953.735000", "161954.195000", "161954.655000", "161955.115000", "161955.575000", "161956.035000", "161956.495000", "161956.955000", "161957.415000", "161957.875000", "161958.335000", "161958.795000", "161959.255000", "161959.715000", "162000.175000", "162000.635000", "162001.095000", "162001.555000", "162002.015000", "162002.475000", "162002.935000", "162003.395000", "162003.855000", "162004.315000", "162004.775000", "162005.235000", "162005.695000", "162006.155000", "162006.615000", "162007.075000", "162007.535000", "162007.995000", "162008.455000", "162008.915000", "162009.375000", "162009.835000", "162010.295000", "162010.755000", "162011.215000", "162011.675000", "162012.135000", "162012.595000", "162013.055000", "162013.515000", "162013.975000", "162014.435000", "162014.895000", "162015.355000", "162015.815000", "162016.275000", "162016.735000", "162017.195000", "162017.655000", "162018.115000", "162018.575000", "162019.035000", "162019.495000", "162019.955000", "162020.415000", "162020.875000", "162021.335000", "162021.795000", "162022.255000", "162022.715000", "162023.175000", "162023.635000", "162024.095000", "162024.555000", "162025.015000", "162025.475000", "162025.935000", "162026.395000", "162026.855000", "162027.315000", "162027.775000", "162028.235000", "162028.695000", "162029.155000", "162029.615000", "162030.075000", "162030.535000", "162030.995000", "162031.455000", "162031.915000", "162032.375000", "162032.835000", "162033.295000", "162033.755000", "162034.215000", "162034.675000", "162035.135000", "162035.595000", "162036.055000", "162036.515000", "162036.975000", "162037.435000", "162037.895000", "162038.355000", "162038.815000", "162039.275000", "162039.735000", "162040.195000", "162040.655000", "162041.115000", "162041.575000", "162042.035000", "162042.495000", "162042.955000", "162043.415000", "162043.875000", "162044.335000", "162044.795000", "162045.255000", "162045.715000", "162046.175000", "162046.635000", "162047.095000", "162047.555000", "162048.015000", "162048.475000", "162048.935000", "162049.395000", "162049.855000", "162050.315000", "162050.775000", "162051.235000", "162051.695000", "162052.155000", "162052.615000", "162053.075000", "162053.535000", "162053.995000", "162054.455000", "162054.915000", "162055.375000", "162055.835000", "162056.295000", "162056.755000", "162057.215000", "162057.675000", "162058.135000", "162058.595000", "162059.055000", "162059.515000", "162059.975000", "162100.435000", "162100.895000", "162101.355000", "162101.815000", "162102.275000", "162102.735000", "162103.195000", "162103.655000", "162104.115000", "162104.575000", "162105.035000", "162105.495000", "162105.955000", "162106.415000", "162106.875000", "162107.335000", "162107.795000", "162108.255000", "162108.715000", "162109.175000", "162109.635000", "162110.095000", "162110.555000", "162111.015000", "162111.475000", "162111.935000", "162112.395000", "162112.855000", "162113.315000", "162113.775000", "162114.235000", "162114.695000", "162115.155000", "162115.615000", "162116.075000", "162116.535000", "162116.995000", "162117.455000", "162117.915000", "162118.375000", "162118.835000", "162119.295000", "162119.755000", "162120.215000", "162120.675000", "162121.135000", "162121.595000", "162122.055000", "162122.515000", "162122.975000", "162123.435000", "162123.895000", "162124.355000", "162124.815000", "162125.275000", "162125.735000", "162126.195000", "162126.655000", "162127.115000", "162127.575000", "162128.035000", "162128.495000", "162128.955000", "162129.415000", "162129.875000", "162130.335000", "162130.795000", "162131.255000", "162131.715000", "162132.175000", "162132.635000", "162133.095000", "162133.555000", "162134.015000", "162134.475000", "162134.935000", "162135.395000", "162135.855000", "162136.315000", "162136.775000", "162137.235000", "162137.695000", "162138.155000", "162138.615000", "162139.075000", "162139.535000", "162139.995000", "162140.455000", "162140.915000", "162141.375000", "162141.835000", "162142.295000", "162142.755000", "162143.215000", "162143.675000", "162144.135000", "162144.595000", "162145.055000", "162145.515000", "162145.975000", "162146.435000", "162146.895000", "162147.355000", "162147.815000", "162148.275000", "162148.735000", "162149.195000", "162149.655000", "162150.115000", "162150.575000", "162151.035000", "162151.495000", "162151.955000", "162152.415000", "162152.875000", "162153.335000", "162153.795000", "162154.255000", "162154.715000", "162155.175000", "162155.635000", "162156.095000", "162156.555000", "162157.015000", "162157.475000", "162157.935000", "162158.395000", "162158.855000", "162159.315000", "162159.775000", "162200.235000", "162200.695000", "162201.155000", "162201.615000", "162202.075000", "162202.535000", "162202.995000", "162203.455000", "162203.915000", "162204.375000", "162204.835000", "162205.295000", "162205.755000", "162206.215000", "162206.675000", "162207.135000", "162207.595000", "162208.055000", "162208.515000", "162208.975000", "162209.435000", "162209.895000", "162210.355000", "162210.815000", "162211.275000", "162211.735000", "162212.195000", "162212.655000", "162213.115000", "162213.575000", "162214.035000", "162214.495000", "162214.955000", "162215.415000", "162215.875000", "162216.335000", "162216.795000", "162217.255000", "162217.715000", "162218.175000", "162218.635000", "162219.095000", "162219.555000", "162220.015000", "162220.475000", "162220.935000", "162221.395000", "162221.855000", "162222.315000", "162222.775000", "162223.235000", "162223.695000", "162224.155000", "162224.615000", "162225.075000", "162225.535000", "162225.995000", "162226.455000", "162226.915000", "162227.375000", "162227.835000", "162228.295000", "162228.755000", "162229.215000", "162229.675000", "162230.135000", "162230.595000", "162231.055000", "162231.515000", "162231.975000", "162232.435000", "162232.895000", "162233.355000", "162233.815000", "162234.275000", "162234.735000", "162235.195000", "162235.655000", "162236.115000", "162236.575000", "162237.035000", "162237.495000", "162237.955000", "162238.415000", "162238.875000", "162239.335000", "162239.795000", "162240.255000", "162240.715000", "162241.175000", "162241.635000", "162242.095000", "162242.555000", "162243.015000", "162243.475000", "162243.935000", "162244.395000", "162244.855000", "162245.315000", "162245.775000", "162246.235000", "162246.695000", "162247.155000", "162247.615000", "162248.075000", "162248.535000", "162248.995000", "162249.455000", "162249.915000", "162250.375000", "162250.835000", "162251.295000", "162251.755000", "162252.215000", "162252.675000", "162253.135000", "162253.595000", "162254.055000", "162254.515000", "162254.975000", "162255.435000", "162255.895000", "162256.355000", "162256.815000", "162257.275000", "162257.735000", "162258.195000", "162258.655000", "162259.115000", "162259.575000", "162300.035000", "162300.495000", "162300.955000", "162301.415000", "162301.875000", "162302.335000", "162302.795000", "162303.255000", "162303.715000", "162304.175000", "162304.635000", "162305.095000", "162305.555000", "162306.015000", "162306.475000", "162306.935000", "162307.395000", "162307.855000", "162308.315000", "162308.775000", "162309.235000", "162309.695000", "162310.155000", "162310.615000", "162311.075000", "162311.535000", "162311.995000", "162312.455000", "162312.915000", "162313.375000", "162313.835000", "162314.295000", "162314.755000", "162315.215000", "162315.675000", "162316.135000", "162316.595000", "162317.055000", "162317.515000", "162317.975000", "162318.435000", "162318.895000", "162319.355000", "162319.815000", "162320.275000", "162320.735000", "162321.195000", "162321.655000", "162322.115000", "162322.575000", "162323.035000", "162323.495000", "162323.955000", "162324.415000", "162324.875000", "162325.335000", "162325.795000", "162326.255000", "162326.715000", "162327.175000", "162327.635000", "162328.095000", "162328.555000", "162329.015000", "162329.475000", "162329.935000", "162330.395000", "162330.855000", "162331.315000", "162331.775000", "162332.235000", "162332.695000", "162333.155000", "162333.615000", "162334.075000", "162334.535000", "162334.995000", "162335.455000", "162335.915000", "162336.375000", "162336.835000", "162337.295000", "162337.755000", "162338.215000", "162338.675000", "162339.135000", "162339.595000", "162340.055000", "162340.515000", "162340.975000", "162341.435000", "162341.895000", "162342.355000", "162342.815000", "162343.275000", "162343.735000", "162344.195000", "162344.655000", "162345.115000", "162345.575000", "162346.035000", "162346.495000", "162346.955000", "162347.415000", "162347.875000", "162348.335000", "162348.795000", "162349.255000", "162349.715000", "162350.175000", "162350.635000", "162351.095000", "162351.555000", "162352.015000", "162352.475000", "162352.935000", "162353.395000", "162353.855000", "162354.315000", "162354.775000", "162355.235000", "162355.695000", "162356.155000", "162356.615000", "162357.075000", "162357.535000", "162357.995000", "162358.455000", "162358.915000", "162359.375000", "162359.835000", "162400.295000", "162400.755000", "162401.215000", "162401.675000", "162402.135000", "162402.595000", "162403.055000", "162403.515000", "162403.975000", "162404.435000", "162404.895000", "162405.355000", "162405.815000", "162406.275000", "162406.735000", "162407.195000", "162407.655000", "162408.115000", "162408.575000", "162409.035000", "162409.495000", "162409.955000", "162410.415000", "162410.875000", "162411.335000", "162411.795000", "162412.255000", "162412.715000", "162413.175000", "162413.635000", "162414.095000", "162414.555000", "162415.015000", "162415.475000", "162415.935000", "162416.395000", "162416.855000", "162417.315000", "162417.775000", "162418.235000", "162418.695000", "162419.155000", "162419.615000", "162420.075000", "162420.535000", "162420.995000", "162421.455000", "162421.915000", "162422.375000", "162422.835000", "162423.295000", "162423.755000", "162424.215000", "162424.675000", "162425.135000", "162425.595000", "162426.055000", "162426.515000", "162426.975000", "162427.435000", "162427.895000", "162428.355000", "162428.815000", "162429.275000", "162429.735000", "162430.195000", "162430.655000", "162431.115000", "162431.575000", "162432.035000", "162432.495000", "162432.955000", "162433.415000", "162433.875000", "162434.335000", "162434.795000", "162435.255000", "162435.715000", "162436.175000", "162436.635000", "162437.095000", "162437.555000", "162438.015000", "162438.475000", "162438.935000", "162439.395000", "162439.855000", "162440.315000", "162440.775000", "162441.235000", "162441.695000", "162442.155000", "162442.615000", "162443.075000", "162443.535000", "162443.995000", "162444.455000", "162444.915000", "162445.375000", "162445.835000", "162446.295000", "162446.755000", "162447.215000", "162447.675000", "162448.135000", "162448.595000", "162449.055000", "162449.515000", "162449.975000", "162450.435000", "162450.895000", "162451.355000", "162451.815000", "162452.275000", "162452.735000", "162453.195000", "162453.655000", "162454.115000", "162454.575000", "162455.035000", "162455.495000", "162455.955000", "162456.415000", "162456.875000", "162457.335000", "162457.795000", "162458.255000", "162458.715000", "162459.175000", "162459.635000", "162500.095000", "162500.555000", "162501.015000", "162501.475000", "162501.935000", "162502.395000", "162502.855000", "162503.315000", "162503.775000", "162504.235000", "162504.695000", "162505.155000", "162505.615000", "162506.075000", "162506.535000", "162506.995000", "162507.455000", "162507.915000", "162508.375000", "162508.835000", "162509.295000", "162509.755000", "162510.215000", "162510.675000", "162511.135000", "162511.595000", "162512.055000", "162512.515000", "162512.975000", "162513.435000", "162513.895000", "162514.355000", "162514.815000", "162515.275000", "162515.735000", "162516.195000", "162516.655000", "162517.115000", "162517.575000", "162518.035000", "162518.495000", "162518.955000", "162519.415000", "162519.875000", "162520.335000", "162520.795000", "162521.255000", "162521.715000", "162522.175000", "162522.635000", "162523.095000", "162523.555000", "162524.015000", "162524.475000", "162524.935000", "162525.395000", "162525.855000", "162526.315000", "162526.775000", "162527.235000", "162527.695000", "162528.155000", "162528.615000", "162529.075000", "162529.535000", "162529.995000", "162530.455000", "162530.915000", "162531.375000", "162531.835000", "162532.295000", "162532.755000", "162533.215000", "162533.675000", "162534.135000", "162534.595000", "162535.055000", "162535.515000", "162535.975000", "162536.435000", "162536.895000", "162537.355000", "162537.815000", "162538.275000", "162538.735000", "162539.195000", "162539.655000", "162540.115000", "162540.575000", "162541.035000", "162541.495000", "162541.955000", "162542.415000", "162542.875000", "162543.335000"],
