{
  "AcquisitionMatrixPE": 82,
  "AcquisitionNumber": 1,
  "AcquisitionTime": "14:51:52.912500",
  "BandwidthPerPixelPhaseEncode": 24.888,
  "BaseResolution": 82,
  "BodyPartExamined": "BRAIN",
  "ConsistencyInfo": "N4_VE11E_LATEST_20181129",
  "ConversionSoftware": "dcm2niix",
  "ConversionSoftwareVersion": "v1.0.20201102",
  "DerivedVendorReportedEchoSpacing": 0.00049,
  "DeviceSerialNumber": "66112",
  "DwellTime": 2e-06,
  "EchoTime": 0.0272,
  "EchoTrainLength": 82,
  "EffectiveEchoSpacing": 0.00049,
  "FlipAngle": 44,
  "ImageComments": "Unaliased MB8/PE3",
  "ImageOrientationPatientDICOM": [0.998781, 0.0301899, 0.0390562, -0.0315625, 0.998888, 0.0350189],
  "ImageType": [
    "ORIGINAL",
    "PRIMARY",
    "M",
    "MB",
    "ND",
    "NORM",
    "MOSAIC"
],
  "ImagingFrequency": 123.252,
  "InPlanePhaseEncodingDirectionDICOM": "COL",
  "InstitutionAddress": "Maynard 3,Hanover,NH,US,03755",
  "InstitutionName": "Dartmouth College - PBS",
  "InstitutionalDepartmentName": "Department",
  "MRAcquisitionType": "2D",
  "MagneticFieldStrength": 3,
  "Manufacturer": "Siemens",
  "ManufacturersModelName": "Prisma",
  "Modality": "MR",
  "MultibandAccelerationFactor": 8,
  "PartialFourier": 1,
  "PatientPosition": "HFS",
  "PercentPhaseFOV": 100,
  "PercentSampling": 100,
  "PhaseEncodingDirection": "j-",
  "PhaseEncodingSteps": 82,
  "PhaseResolution": 1,
  "PixelBandwidth": 3050,
  "ProcedureStepDescription": "Wager_Wager^1076_spacetop",
  "ProtocolName": "func_run-01_task-social_acq-ap-mb8",
  "PulseSequenceDetails": "%CustomerSeq%\\cmrr_mbep2d_bold",
  "ReceiveCoilActiveElements": "HEA;HEP",
  "ReceiveCoilName": "Head_32",
  "ReconMatrixPE": 82,
  "RepetitionTime": 0.46,
  "SAR": 0.0856444,
  "ScanOptions": "FS",
  "ScanningSequence": "EP",
  "SequenceName": "epfid2d1_82",
  "SequenceVariant": "SK\\SS",
  "SeriesDescription": "func_run-01_task-social_acq-ap-mb8",
  "SeriesNumber": 8,
  "ShimSetting": [4162, -7779, -7193, 525, 4, -124, 30, 54],
  "SliceThickness": 2.7,
  "SliceTiming": [0, 0.25, 0.0625, 0.315, 0.125, 0.3775, 0.1875, 0, 0.25, 0.0625, 0.315, 0.125, 0.3775, 0.1875, 0, 0.25, 0.0625, 0.315, 0.125, 0.3775, 0.1875, 0, 0.25, 0.0625, 0.315, 0.125, 0.3775, 0.1875, 0, 0.25, 0.0625, 0.315, 0.125, 0.3775, 0.1875, 0, 0.25, 0.0625, 0.315, 0.125, 0.3775, 0.1875, 0, 0.25, 0.0625, 0.315, 0.125, 0.3775, 0.1875, 0, 0.25, 0.0625, 0.315, 0.125, 0.3775, 0.1875],
  "SoftwareVersions": "syngo MR E11",
  "SpacingBetweenSlices": 2.7,
  "StationName": "AWP66112",
  "TaskName": "social",
  "TotalReadoutTime": 0.03969,
  "TxRefAmp": 253.132,
  "WipMemBlock": "4e02d220-25a7-4bf9-8261-635d00008f1b||Sequence: R016 ve11e/master r/434b28f1; Aug  7 2019 18:53:46 by eja",
  "dcmmeta_affine": [
    [-2.6796560287475586, -0.08467990159988403, 0.10248000919818878, 116.60674285888672],
    [-0.0809972733259201, 2.679943799972534, 0.09776397049427032, -94.74284362792969],
    [0.10478492826223373, -0.09395303577184677, 2.6962826251983643, -62.48627853393555],
    [0.0, 0.0, 0.0, 1.0]
],
  "dcmmeta_reorient_transform": [
    [0.0, -1.0, 0.0, 81.0],
    [1.0, 0.0, 0.0, 0.0],
    [0.0, 0.0, 1.0, 0.0],
    [0.0, 0.0, 0.0, 1.0]
],
  "dcmmeta_shape": [82, 82, 56, 872],
  "dcmmeta_slice_dim": 2,
  "dcmmeta_version": 0.6,
  "global": {
    "const": {
      "AccessionNumber": "A004154",
      "AcquisitionMatrix": [82, 0, 0, 82],
      "AngioFlag": "N",
      "BitsAllocated": 16,
      "BitsStored": 16,
      "BodyPartExamined": "BRAIN",
      "Columns": 656,
      "EchoNumbers": 1,
      "EchoTime": 27.2,
      "EchoTrainLength": 82,
      "FlipAngle": 44.0,
      "HighBit": 15,
      "ImageOrientationPatient": [0.99878084861687, 0.03018989298621, 0.03905620050194, -0.0315625086555, 0.99888812566477, 0.03501885853774],
      "ImagePositionPatient": [-854.50581026739, -914.72269690179, -127.13427280839],
      "ImageType": [
        "ORIGINAL",
        "PRIMARY",
        "M",
        "MB",
        "ND",
        "NORM",
        "MOSAIC"
],
      "ImagedNucleus": "1H",
      "ImagingFrequency": 123.252148,
      "InPlanePhaseEncodingDirection": "COL",
      "MRAcquisitionType": "2D",
      "MagneticFieldStrength": 3.0,
      "Manufacturer": "SIEMENS",
      "ManufacturerModelName": "Prisma",
      "Modality": "MR",
      "NumberOfAverages": 1.0,
      "NumberOfPhaseEncodingSteps": 82,
      "PercentPhaseFieldOfView": 100.0,
      "PercentSampling": 100.0,
      "PerformedProcedureStepStartTime": "144158.143000",
      "PhotometricInterpretation": "MONOCHROME2",
      "PixelBandwidth": 3050.0,
      "PixelRepresentation": 0,
      "PixelSpacing": [2.6829268932343, 2.6829268932343],
      "ProtocolName": "func_run-01_task-social_acq-ap-mb8",
      "RepetitionTime": 460.0,
      "Rows": 656,
      "SAR": 0.0856444431318,
      "SamplesPerPixel": 1,
      "ScanOptions": "FS",
      "ScanningSequence": "EP",
      "SequenceName": "epfid2d1_82",
      "SequenceVariant": [
        "SK",
        "SS"
],
      "SeriesDescription": "func_run-01_task-social_acq-ap-mb8",
      "SeriesNumber": 8,
      "SeriesTime": "145204.681000",
      "SliceLocation": -61.404906645017,
      "SliceThickness": 2.7000000476837,
      "SmallestImagePixelValue": 0,
      "SoftwareVersions": "syngo MR E11",
      "SpacingBetweenSlices": 2.7000000450836,
      "SpecificCharacterSet": "ISO_IR 100",
      "StudyID": "3",
      "StudyTime": "144158.088000",
      "TransmitCoilName": "Body",
      "VariableFlipAngleFlag": "N",
      "WindowCenterWidthExplanation": "Algo1"
    },
    "slices": {}
  },
  "time": {
    "samples": {
      "AcquisitionNumber": [1, 2, 3, 4, 5, 6, 7, 8, 9, 10, 11, 12, 13, 14, 15, 16, 17, 18, 19, 20, 21, 22, 23, 24, 25, 26, 27, 28, 29, 30, 31, 32, 33, 34, 35, 36, 37, 38, 39, 40, 41, 42, 43, 44, 45, 46, 47, 48, 49, 50, 51, 52, 53, 54, 55, 56, 57, 58, 59, 60, 61, 62, 63, 64, 65, 66, 67, 68, 69, 70, 71, 72, 73, 74, 75, 76, 77, 78, 79, 80, 81, 82, 83, 84, 85, 86, 87, 88, 89, 90, 91, 92, 93, 94, 95, 96, 97, 98, 99, 100, 101, 102, 103, 104, 105, 106, 107, 108, 109, 110, 111, 112, 113, 114, 115, 116, 117, 118, 119, 120, 121, 122, 123, 124, 125, 126, 127, 128, 129, 130, 131, 132, 133, 134, 135, 136, 137, 138, 139, 140, 141, 142, 143, 144, 145, 146, 147, 148, 149, 150, 151, 152, 153, 154, 155, 156, 157, 158, 159, 160, 161, 162, 163, 164, 165, 166, 167, 168, 169, 170, 171, 172, 173, 174, 175, 176, 177, 178, 179, 180, 181, 182, 183, 184, 185, 186, 187, 188, 189, 190, 191, 192, 193, 194, 195, 196, 197, 198, 199, 200, 201, 202, 203, 204, 205, 206, 207, 208, 209, 210, 211, 212, 213, 214, 215, 216, 217, 218, 219, 220, 221, 222, 223, 224, 225, 226, 227, 228, 229, 230, 231, 232, 233, 234, 235, 236, 237, 238, 239, 240, 241, 242, 243, 244, 245, 246, 247, 248, 249, 250, 251, 252, 253, 254, 255, 256, 257, 258, 259, 260, 261, 262, 263, 264, 265, 266, 267, 268, 269, 270, 271, 272, 273, 274, 275, 276, 277, 278, 279, 280, 281, 282, 283, 284, 285, 286, 287, 288, 289, 290, 291, 292, 293, 294, 295, 296, 297, 298, 299, 300, 301, 302, 303, 304, 305, 306, 307, 308, 309, 310, 311, 312, 313, 314, 315, 316, 317, 318, 319, 320, 321, 322, 323, 324, 325, 326, 327, 328, 329, 330, 331, 332, 333, 334, 335, 336, 337, 338, 339, 340, 341, 342, 343, 344, 345, 346, 347, 348, 349, 350, 351, 352, 353, 354, 355, 356, 357, 358, 359, 360, 361, 362, 363, 364, 365, 366, 367, 368, 369, 370, 371, 372, 373, 374, 375, 376, 377, 378, 379, 380, 381, 382, 383, 384, 385, 386, 387, 388, 389, 390, 391, 392, 393, 394, 395, 396, 397, 398, 399, 400, 401, 402, 403, 404, 405, 406, 407, 408, 409, 410, 411, 412, 413, 414, 415, 416, 417, 418, 419, 420, 421, 422, 423, 424, 425, 426, 427, 428, 429, 430, 431, 432, 433, 434, 435, 436, 437, 438, 439, 440, 441, 442, 443, 444, 445, 446, 447, 448, 449, 450, 451, 452, 453, 454, 455, 456, 457, 458, 459, 460, 461, 462, 463, 464, 465, 466, 467, 468, 469, 470, 471, 472, 473, 474, 475, 476, 477, 478, 479, 480, 481, 482, 483, 484, 485, 486, 487, 488, 489, 490, 491, 492, 493, 494, 495, 496, 497, 498, 499, 500, 501, 502, 503, 504, 505, 506, 507, 508, 509, 510, 511, 512, 513, 514, 515, 516, 517, 518, 519, 520, 521, 522, 523, 524, 525, 526, 527, 528, 529, 530, 531, 532, 533, 534, 535, 536, 537, 538, 539, 540, 541, 542, 543, 544, 545, 546, 547, 548, 549, 550, 551, 552, 553, 554, 555, 556, 557, 558, 559, 560, 561, 562, 563, 564, 565, 566, 567, 568, 569, 570, 571, 572, 573, 574, 575, 576, 577, 578, 579, 580, 581, 582, 583, 584, 585, 586, 587, 588, 589, 590, 591, 592, 593, 594, 595, 596, 597, 598, 599, 600, 601, 602, 603, 604, 605, 606, 607, 608, 609, 610, 611, 612, 613, 614, 615, 616, 617, 618, 619, 620, 621, 622, 623, 624, 625, 626, 627, 628, 629, 630, 631, 632, 633, 634, 635, 636, 637, 638, 639, 640, 641, 642, 643, 644, 645, 646, 647, 648, 649, 650, 651, 652, 653, 654, 655, 656, 657, 658, 659, 660, 661, 662, 663, 664, 665, 666, 667, 668, 669, 670, 671, 672, 673, 674, 675, 676, 677, 678, 679, 680, 681, 682, 683, 684, 685, 686, 687, 688, 689, 690, 691, 692, 693, 694, 695, 696, 697, 698, 699, 700, 701, 702, 703, 704, 705, 706, 707, 708, 709, 710, 711, 712, 713, 714, 715, 716, 717, 718, 719, 720, 721, 722, 723, 724, 725, 726, 727, 728, 729, 730, 731, 732, 733, 734, 735, 736, 737, 738, 739, 740, 741, 742, 743, 744, 745, 746, 747, 748, 749, 750, 751, 752, 753, 754, 755, 756, 757, 758, 759, 760, 761, 762, 763, 764, 765, 766, 767, 768, 769, 770, 771, 772, 773, 774, 775, 776, 777, 778, 779, 780, 781, 782, 783, 784, 785, 786, 787, 788, 789, 790, 791, 792, 793, 794, 795, 796, 797, 798, 799, 800, 801, 802, 803, 804, 805, 806, 807, 808, 809, 810, 811, 812, 813, 814, 815, 816, 817, 818, 819, 820, 821, 822, 823, 824, 825, 826, 827, 828, 829, 830, 831, 832, 833, 834, 835, 836, 837, 838, 839, 840, 841, 842, 843, 844, 845, 846, 847, 848, 849, 850, 851, 852, 853, 854, 855, 856, 857, 858, 859, 860, 861, 862, 863, 864, 865, 866, 867, 868, 869, 870, 871, 872],
      "AcquisitionTime": ["145152.912500", "145153.372500", "145153.832500", "145154.292500", "145154.752500", "145155.212500", "145155.672500", "145156.132500", "145156.592500", "145157.052500", "145157.512500", "145157.972500", "145158.432500", "145158.892500", "145159.352500", "145159.812500", "145200.272500", "145200.732500", "145201.192500", "145201.652500", "145202.112500", "145202.572500", "145203.032500", "145203.492500", "145203.952500", "145204.412500", "145204.872500", "145205.332500", "145205.792500", "145206.252500", "145206.712500", "145207.172500", "145207.632500", "145208.092500", "145208.552500", "145209.012500", "145209.472500", "145209.932500", "145210.392500", "145210.852500", "145211.312500", "145211.772500", "145212.232500", "145212.692500", "145213.152500", "145213.612500", "145214.072500", "145214.532500", "145214.992500", "145215.452500", "145215.912500", "145216.372500", "145216.832500", "145217.292500", "145217.752500", "145218.212500", "145218.672500", "145219.132500", "145219.592500", "145220.052500", "145220.512500", "145220.972500", "145221.432500", "145221.892500", "145222.352500", "145222.812500", "145223.272500", "145223.732500", "145224.192500", "145224.652500", "145225.112500", "145225.572500", "145226.032500", "145226.492500", "145226.952500", "145227.412500", "145227.872500", "145228.332500", "145228.792500", "145229.252500", "145229.712500", "145230.172500", "145230.632500", "145231.092500", "145231.552500", "145232.012500", "145232.472500", "145232.932500", "145233.392500", "145233.852500", "145234.312500", "145234.772500", "145235.232500", "145235.692500", "145236.152500", "145236.612500", "145237.072500", "145237.532500", "145237.992500", "145238.452500", "145238.912500", "145239.372500", "145239.832500", "145240.292500", "145240.752500", "145241.212500", "145241.672500", "145242.132500", "145242.592500", "145243.052500", "145243.512500", "145243.972500", "145244.432500", "145244.892500", "145245.352500", "145245.812500", "145246.272500", "145246.732500", "145247.192500", "145247.652500", "145248.112500", "145248.572500", "145249.032500", "145249.492500", "145249.952500", "145250.412500", "145250.872500", "145251.332500", "145251.792500", "145252.252500", "145252.712500", "145253.172500", "145253.632500", "145254.092500", "145254.552500", "145255.012500", "145255.472500", "145255.932500", "145256.392500", "145256.852500", "145257.312500", "145257.772500", "145258.232500", "145258.692500", "145259.152500", "145259.612500", "145300.072500", "145300.532500", "145300.992500", "145301.452500", "145301.912500", "145302.372500", "145302.832500", "145303.292500", "145303.752500", "145304.212500", "145304.672500", "145305.132500", "145305.592500", "145306.052500", "145306.512500", "145306.972500", "145307.432500", "145307.892500", "145308.352500", "145308.812500", "145309.272500", "145309.732500", "145310.192500", "145310.652500", "145311.112500", "145311.572500", "145312.032500", "145312.492500", "145312.952500", "145313.412500", "145313.872500", "145314.332500", "145314.792500", "145315.252500", "145315.712500", "145316.172500", "145316.632500", "145317.092500", "145317.552500", "145318.012500", "145318.472500", "145318.932500", "145319.392500", "145319.852500", "145320.312500", "145320.772500", "145321.232500", "145321.692500", "145322.152500", "145322.612500", "145323.072500", "145323.532500", "145323.992500", "145324.452500", "145324.912500", "145325.372500", "145325.832500", "145326.292500", "145326.752500", "145327.212500", "145327.672500", "145328.132500", "145328.592500", "145329.052500", "145329.512500", "145329.972500", "145330.432500", "145330.892500", "145331.352500", "145331.812500", "145332.272500", "145332.732500", "145333.192500", "145333.652500", "145334.112500", "145334.572500", "145335.032500", "145335.492500", "145335.952500", "145336.412500", "145336.872500", "145337.332500", "145337.792500", "145338.252500", "145338.712500", "145339.172500", "145339.632500", "145340.092500", "145340.552500", "145341.012500", "145341.472500", "145341.932500", "145342.392500", "145342.852500", "145343.312500", "145343.772500", "145344.232500", "145344.692500", "145345.152500", "145345.612500", "145346.072500", "145346.532500", "145346.992500", "145347.452500", "145347.912500", "145348.372500", "145348.832500", "145349.292500", "145349.752500", "145350.212500", "145350.672500", "145351.132500", "145351.592500", "145352.052500", "145352.512500", "145352.972500", "145353.432500", "145353.892500", "145354.352500", "145354.812500", "145355.272500", "145355.732500", "145356.192500", "145356.652500", "145357.112500", "145357.572500", "145358.032500", "145358.492500", "145358.952500", "145359.412500", "145359.872500", "145400.332500", "145400.792500", "145401.252500", "145401.712500", "145402.172500", "145402.632500", "145403.092500", "145403.552500", "145404.012500", "145404.472500", "145404.932500", "145405.392500", "145405.852500", "145406.312500", "145406.772500", "145407.232500", "145407.692500", "145408.152500", "145408.612500", "145409.072500", "145409.532500", "145409.992500", "145410.452500", "145410.912500", "145411.372500", "145411.832500", "145412.292500", "145412.752500", "145413.212500", "145413.672500", "145414.132500", "145414.592500", "145415.052500", "145415.512500", "145415.972500", "145416.432500", "145416.892500", "145417.352500", "145417.812500", "145418.272500", "145418.732500", "145419.192500", "145419.652500", "145420.112500", "145420.572500", "145421.032500", "145421.492500", "145421.952500", "145422.412500", "145422.872500", "145423.332500", "145423.792500", "145424.252500", "145424.712500", "145425.172500", "145425.632500", "145426.092500", "145426.552500", "145427.012500", "145427.472500", "145427.932500", "145428.392500", "145428.852500", "145429.312500", "145429.772500", "145430.232500", "145430.692500", "145431.152500", "145431.612500", "145432.072500", "145432.532500", "145432.992500", "145433.452500", "145433.912500", "145434.372500", "145434.832500", "145435.292500", "145435.752500", "145436.212500", "145436.672500", "145437.132500", "145437.592500", "145438.052500", "145438.512500", "145438.972500", "145439.432500", "145439.892500", "145440.352500", "145440.812500", "145441.272500", "145441.732500", "145442.192500", "145442.652500", "145443.112500", "145443.572500", "145444.032500", "145444.492500", "145444.952500", "145445.412500", "145445.872500", "145446.332500", "145446.792500", "145447.252500", "145447.712500", "145448.172500", "145448.632500", "145449.092500", "145449.552500", "145450.012500", "145450.472500", "145450.932500", "145451.392500", "145451.852500", "145452.312500", "145452.772500", "145453.232500", "145453.692500", "145454.152500", "145454.612500", "145455.072500", "145455.532500", "145455.992500", "145456.452500", "145456.912500", "145457.372500", "145457.832500", "145458.292500", "145458.752500", "145459.212500", "145459.672500", "145500.132500", "145500.592500", "145501.052500", "145501.512500", "145501.972500", "145502.432500", "145502.892500", "145503.352500", "145503.812500", "145504.272500", "145504.732500", "145505.192500", "145505.652500", "145506.112500", "145506.572500", "145507.032500", "145507.492500", "145507.952500", "145508.412500", "145508.872500", "145509.332500", "145509.792500", "145510.252500", "145510.712500", "145511.172500", "145511.632500", "145512.092500", "145512.552500", "145513.012500", "145513.472500", "145513.932500", "145514.392500", "145514.852500", "145515.312500", "145515.772500", "145516.232500", "145516.692500", "145517.152500", "145517.612500", "145518.072500", "145518.532500", "145518.992500", "145519.452500", "145519.912500", "145520.372500", "145520.832500", "145521.292500", "145521.752500", "145522.212500", "145522.672500", "145523.132500", "145523.592500", "145524.052500", "145524.512500", "145524.972500", "145525.432500", "145525.892500", "145526.352500", "145526.812500", "145527.272500", "145527.732500", "145528.192500", "145528.652500", "145529.112500", "145529.572500", "145530.032500", "145530.492500", "145530.952500", "145531.412500", "145531.872500", "145532.332500", "145532.792500", "145533.252500", "145533.712500", "145534.172500", "145534.632500", "145535.092500", "145535.552500", "145536.012500", "145536.472500", "145536.932500", "145537.392500", "145537.852500", "145538.312500", "145538.772500", "145539.232500", "145539.692500", "145540.152500", "145540.612500", "145541.072500", "145541.532500", "145541.992500", "145542.452500", "145542.912500", "145543.372500", "145543.832500", "145544.292500", "145544.752500", "145545.212500", "145545.672500", "145546.132500", "145546.592500", "145547.052500", "145547.512500", "145547.972500", "145548.432500", "145548.892500", "145549.352500", "145549.812500", "145550.272500", "145550.732500", "145551.192500", "145551.652500", "145552.112500", "145552.572500", "145553.032500", "145553.492500", "145553.952500", "145554.412500", "145554.872500", "145555.332500", "145555.792500", "145556.252500", "145556.712500", "145557.172500", "145557.632500", "145558.092500", "145558.552500", "145559.012500", "145559.472500", "145559.932500", "145600.392500", "145600.852500", "145601.312500", "145601.772500", "145602.232500", "145602.692500", "145603.152500", "145603.612500", "145604.072500", "145604.532500", "145604.992500", "145605.452500", "145605.912500", "145606.372500", "145606.832500", "145607.292500", "145607.752500", "145608.212500", "145608.672500", "145609.132500", "145609.592500", "145610.052500", "145610.512500", "145610.972500", "145611.432500", "145611.892500", "145612.352500", "145612.812500", "145613.272500", "145613.732500", "145614.192500", "145614.652500", "145615.112500", "145615.572500", "145616.032500", "145616.492500", "145616.952500", "145617.412500", "145617.872500", "145618.332500", "145618.792500", "145619.252500", "145619.712500", "145620.172500", "145620.632500", "145621.092500", "145621.552500", "145622.012500", "145622.472500", "145622.932500", "145623.392500", "145623.852500", "145624.312500", "145624.772500", "145625.232500", "145625.692500", "145626.152500", "145626.612500", "145627.072500", "145627.532500", "145627.992500", "145628.452500", "145628.912500", "145629.372500", "145629.832500", "145630.292500", "145630.752500", "145631.212500", "145631.672500", "145632.132500", "145632.592500", "145633.052500", "145633.512500", "145633.972500", "145634.432500", "145634.892500", "145635.352500", "145635.812500", "145636.272500", "145636.732500", "145637.192500", "145637.652500", "145638.112500", "145638.572500", "145639.032500", "145639.492500", "145639.952500", "145640.412500", "145640.872500", "145641.332500", "145641.792500", "145642.252500", "145642.712500", "145643.172500", "145643.632500", "145644.092500", "145644.552500", "145645.012500", "145645.472500", "145645.932500", "145646.392500", "145646.852500", "145647.312500", "145647.772500", "145648.232500", "145648.692500", "145649.152500", "145649.612500", "145650.072500", "145650.532500", "145650.992500", "145651.452500", "145651.912500", "145652.372500", "145652.832500", "145653.292500", "145653.752500", "145654.212500", "145654.672500", "145655.132500", "145655.592500", "145656.052500", "145656.512500", "145656.972500", "145657.432500", "145657.892500", "145658.352500", "145658.812500", "145659.272500", "145659.732500", "145700.192500", "145700.652500", "145701.112500", "145701.572500", "145702.032500", "145702.492500", "145702.952500", "145703.412500", "145703.872500", "145704.332500", "145704.792500", "145705.252500", "145705.712500", "145706.172500", "145706.632500", "145707.092500", "145707.552500", "145708.012500", "145708.472500", "145708.932500", "145709.392500", "145709.852500", "145710.312500", "145710.772500", "145711.232500", "145711.692500", "145712.152500", "145712.612500", "145713.072500", "145713.532500", "145713.992500", "145714.452500", "145714.912500", "145715.372500", "145715.832500", "145716.292500", "145716.752500", "145717.212500", "145717.672500", "145718.132500", "145718.592500", "145719.052500", "145719.512500", "145719.972500", "145720.432500", "145720.892500", "145721.352500", "145721.812500", "145722.272500", "145722.732500", "145723.192500", "145723.652500", "145724.112500", "145724.572500", "145725.032500", "145725.492500", "145725.952500", "145726.412500", "145726.872500", "145727.332500", "145727.792500", "145728.252500", "145728.712500", "145729.172500", "145729.632500", "145730.092500", "145730.552500", "145731.012500", "145731.472500", "145731.932500", "145732.392500", "145732.852500", "145733.312500", "145733.772500", "145734.232500", "145734.692500", "145735.152500", "145735.612500", "145736.072500", "145736.532500", "145736.992500", "145737.452500", "145737.912500", "145738.372500", "145738.832500", "145739.292500", "145739.752500", "145740.212500", "145740.672500", "145741.132500", "145741.592500", "145742.052500", "145742.512500", "145742.972500", "145743.432500", "145743.892500", "145744.352500", "145744.812500", "145745.272500", "145745.732500", "145746.192500", "145746.652500", "145747.112500", "145747.572500", "145748.032500", "145748.492500", "145748.952500", "145749.412500", "145749.872500", "145750.332500", "145750.792500", "145751.252500", "145751.712500", "145752.172500", "145752.632500", "145753.092500", "145753.552500", "145754.012500", "145754.472500", "145754.932500", "145755.392500", "145755.852500", "145756.312500", "145756.772500", "145757.232500", "145757.692500", "145758.152500", "145758.612500", "145759.072500", "145759.532500", "145759.992500", "145800.452500", "145800.912500", "145801.372500", "145801.832500", "145802.292500", "145802.752500", "145803.212500", "145803.672500", "145804.132500", "145804.592500", "145805.052500", "145805.512500", "145805.972500", "145806.432500", "145806.892500", "145807.352500", "145807.812500", "145808.272500", "145808.732500", "145809.192500", "145809.652500", "145810.112500", "145810.572500", "145811.032500", "145811.492500", "145811.952500", "145812.412500", "145812.872500", "145813.332500", "145813.792500", "145814.252500", "145814.712500", "145815.172500", "145815.632500", "145816.092500", "145816.552500", "145817.012500", "145817.472500", "145817.932500", "145818.392500", "145818.852500", "145819.312500", "145819.772500", "145820.232500", "145820.692500", "145821.152500", "145821.612500", "145822.072500", "145822.532500", "145822.992500", "145823.452500", "145823.912500", "145824.372500", "145824.832500", "145825.292500", "145825.752500", "145826.212500", "145826.672500", "145827.132500", "145827.592500", "145828.052500", "145828.512500", "145828.972500", "145829.432500", "145829.892500", "145830.352500", "145830.812500", "145831.272500", "145831.732500", "145832.192500", "145832.652500", "145833.112500", "145833.572500"],
