{
  "AcquisitionMatrixPE": 82,
  "AcquisitionNumber": 1,
  "AcquisitionTime": "17:46:3.990000",
  "BandwidthPerPixelPhaseEncode": 24.888,
  "BaseResolution": 82,
  "BodyPartExamined": "BRAIN",
  "ConsistencyInfo": "N4_VE11C_LATEST_20160120",
  "ConversionSoftware": "dcm2niix",
  "ConversionSoftwareVersion": "v1.0.20201102",
  "DerivedVendorReportedEchoSpacing": 0.00049,
  "DeviceSerialNumber": "66112",
  "DwellTime": 2e-06,
  "EchoTime": 0.0272,
  "EchoTrainLength": 82,
  "EffectiveEchoSpacing": 0.00049,
  "FlipAngle": 44,
  "ImageComments": "Unaliased MB8/PE3",
  "ImageOrientationPatientDICOM": [0.999586, 0.0202254, 0.0204431, -0.0239056, 0.979551, 0.199773],
  "ImageType": [
    "ORIGINAL",
    "PRIMARY",
    "M",
    "MB",
    "ND",
    "NORM",
    "MOSAIC"
],
  "ImagingFrequency": 123.252,
  "InPlanePhaseEncodingDirectionDICOM": "COL",
  "InstitutionAddress": "Maynard 3,Hanover,NH,US,03755",
  "InstitutionName": "Dartmouth College - PBS",
  "InstitutionalDepartmentName": "Department",
  "MRAcquisitionType": "2D",
  "MagneticFieldStrength": 3,
  "Manufacturer": "Siemens",
  "ManufacturersModelName": "Prisma",
  "Modality": "MR",
  "MultibandAccelerationFactor": 8,
  "PartialFourier": 1,
  "PatientPosition": "HFS",
  "PercentPhaseFOV": 100,
  "PercentSampling": 100,
  "PhaseEncodingDirection": "j-",
  "PhaseEncodingSteps": 82,
  "PhaseResolution": 1,
  "PixelBandwidth": 3050,
  "ProcedureStepDescription": "Wager_Wager^1076_spacetop",
  "ProtocolName": "func_run-06_task-social_acq-ap-mb8",
  "PulseSequenceDetails": "%CustomerSeq%\\cmrr_mbep2d_bold",
  "ReceiveCoilActiveElements": "HEA;HEP",
  "ReceiveCoilName": "Head_32",
  "ReconMatrixPE": 82,
  "RepetitionTime": 0.46,
  "SAR": 0.1123,
  "ScanOptions": "FS",
  "ScanningSequence": "EP",
  "SequenceName": "epfid2d1_82",
  "SequenceVariant": "SK\\SS",
  "SeriesDescription": "func_run-06_task-social_acq-ap-mb8",
  "SeriesNumber": 28,
  "ShimSetting": [4141, -7795, -7163, 625, -55, -239, 25, 67],
  "SliceThickness": 2.7,
  "SliceTiming": [0, 0.2525, 0.0625, 0.315, 0.125, 0.3775, 0.1875, 0, 0.2525, 0.0625, 0.315, 0.125, 0.3775, 0.1875, 0, 0.2525, 0.0625, 0.315, 0.125, 0.3775, 0.1875, 0, 0.2525, 0.0625, 0.315, 0.125, 0.3775, 0.1875, 0, 0.2525, 0.0625, 0.315, 0.125, 0.3775, 0.1875, 0, 0.2525, 0.0625, 0.315, 0.125, 0.3775, 0.1875, 0, 0.2525, 0.0625, 0.315, 0.125, 0.3775, 0.1875, 0, 0.2525, 0.0625, 0.315, 0.125, 0.3775, 0.1875],
  "SoftwareVersions": "syngo MR E11",
  "SpacingBetweenSlices": 2.7,
  "StationName": "AWP66112",
  "TaskName": "social",
  "TotalReadoutTime": 0.03969,
  "TxRefAmp": 246.53,
  "WipMemBlock": "538acc25-d7bb-4241-89ca-bd3c74bd9b10||Sequence: R016 ve11c/master r/e634e98; Dec 19 2017 11:00:25 by eja",
  "dcmmeta_affine": [
    [-2.6818172931671143, -0.0641370490193367, 0.04315824806690216, 113.81227111816406],
    [-0.05426318570971489, 2.6280624866485596, 0.5404831767082214, -103.68289947509766],
    [0.05484725162386894, -0.535975992679596, 2.64499831199646, -10.808492660522461],
    [0.0, 0.0, 0.0, 1.0]
],
  "dcmmeta_reorient_transform": [
    [0.0, -1.0, 0.0, 81.0],
    [1.0, 0.0, 0.0, 0.0],
    [0.0, 0.0, 1.0, 0.0],
    [0.0, 0.0, 0.0, 1.0]
],
  "dcmmeta_shape": [82, 82, 56, 872],
  "dcmmeta_slice_dim": 2,
  "dcmmeta_version": 0.6,
  "global": {
    "const": {
      "AccessionNumber": "A003794",
      "AcquisitionMatrix": [82, 0, 0, 82],
      "AngioFlag": "N",
      "BitsAllocated": 16,
      "BitsStored": 16,
      "BodyPartExamined": "BRAIN",
      "Columns": 656,
      "EchoNumbers": 1,
      "EchoTime": 27.2,
      "EchoTrainLength": 82,
      "FlipAngle": 44.0,
      "HighBit": 15,
      "ImageOrientationPatient": [0.99958642225772, 0.02022536804296, 0.02044306546319, -0.0239056276019, 0.97955056999944, 0.19977287549297],
      "ImagePositionPatient": [-859.89139662701, -879.01766063954, -223.78882912475],
      "ImageType": [
        "ORIGINAL",
        "PRIMARY",
        "M",
        "MB",
        "ND",
        "NORM",
        "MOSAIC"
],
      "ImagedNucleus": "1H",
      "ImagingFrequency": 123.25215,
      "InPlanePhaseEncodingDirection": "COL",
      "MRAcquisitionType": "2D",
      "MagneticFieldStrength": 3.0,
      "Manufacturer": "SIEMENS",
      "ManufacturerModelName": "Prisma",
      "Modality": "MR",
      "NumberOfAverages": 1.0,
      "NumberOfPhaseEncodingSteps": 82,
      "PercentPhaseFieldOfView": 100.0,
      "PercentSampling": 100.0,
      "PerformedProcedureStepStartTime": "163236.273000",
      "PhotometricInterpretation": "MONOCHROME2",
      "PixelBandwidth": 3050.0,
      "PixelRepresentation": 0,
      "PixelSpacing": [2.6829268932343, 2.6829268932343],
      "ProtocolName": "func_run-06_task-social_acq-ap-mb8",
      "RepetitionTime": 460.0,
      "Rows": 656,
      "SAR": 0.11230023424359,
      "SamplesPerPixel": 1,
      "ScanOptions": "FS",
      "ScanningSequence": "EP",
      "SequenceName": "epfid2d1_82",
      "SequenceVariant": [
        "SK",
        "SS"
],
      "SeriesDescription": "func_run-06_task-social_acq-ap-mb8",
      "SeriesNumber": 28,
      "SeriesTime": "174626.280000",
      "SliceLocation": -29.524210706001,
      "SliceThickness": 2.7000000476837,
      "SmallestImagePixelValue": 0,
      "SoftwareVersions": "syngo MR E11",
      "SpacingBetweenSlices": 2.7000000435378,
      "SpecificCharacterSet": "ISO_IR 100",
      "StudyID": "1",
      "StudyTime": "163236.158000",
      "TransmitCoilName": "Body",
      "VariableFlipAngleFlag": "N",
      "WindowCenterWidthExplanation": "Algo1",
      "dBdt": 0.0},
    "slices": {}
  },
  "time": {
    "samples": {
      "AcquisitionNumber": [1, 2, 3, 4, 5, 6, 7, 8, 9, 10, 11, 12, 13, 14, 15, 16, 17, 18, 19, 20, 21, 22, 23, 24, 25, 26, 27, 28, 29, 30, 31, 32, 33, 34, 35, 36, 37, 38, 39, 40, 41, 42, 43, 44, 45, 46, 47, 48, 49, 50, 51, 52, 53, 54, 55, 56, 57, 58, 59, 60, 61, 62, 63, 64, 65, 66, 67, 68, 69, 70, 71, 72, 73, 74, 75, 76, 77, 78, 79, 80, 81, 82, 83, 84, 85, 86, 87, 88, 89, 90, 91, 92, 93, 94, 95, 96, 97, 98, 99, 100, 101, 102, 103, 104, 105, 106, 107, 108, 109, 110, 111, 112, 113, 114, 115, 116, 117, 118, 119, 120, 121, 122, 123, 124, 125, 126, 127, 128, 129, 130, 131, 132, 133, 134, 135, 136, 137, 138, 139, 140, 141, 142, 143, 144, 145, 146, 147, 148, 149, 150, 151, 152, 153, 154, 155, 156, 157, 158, 159, 160, 161, 162, 163, 164, 165, 166, 167, 168, 169, 170, 171, 172, 173, 174, 175, 176, 177, 178, 179, 180, 181, 182, 183, 184, 185, 186, 187, 188, 189, 190, 191, 192, 193, 194, 195, 196, 197, 198, 199, 200, 201, 202, 203, 204, 205, 206, 207, 208, 209, 210, 211, 212, 213, 214, 215, 216, 217, 218, 219, 220, 221, 222, 223, 224, 225, 226, 227, 228, 229, 230, 231, 232, 233, 234, 235, 236, 237, 238, 239, 240, 241, 242, 243, 244, 245, 246, 247, 248, 249, 250, 251, 252, 253, 254, 255, 256, 257, 258, 259, 260, 261, 262, 263, 264, 265, 266, 267, 268, 269, 270, 271, 272, 273, 274, 275, 276, 277, 278, 279, 280, 281, 282, 283, 284, 285, 286, 287, 288, 289, 290, 291, 292, 293, 294, 295, 296, 297, 298, 299, 300, 301, 302, 303, 304, 305, 306, 307, 308, 309, 310, 311, 312, 313, 314, 315, 316, 317, 318, 319, 320, 321, 322, 323, 324, 325, 326, 327, 328, 329, 330, 331, 332, 333, 334, 335, 336, 337, 338, 339, 340, 341, 342, 343, 344, 345, 346, 347, 348, 349, 350, 351, 352, 353, 354, 355, 356, 357, 358, 359, 360, 361, 362, 363, 364, 365, 366, 367, 368, 369, 370, 371, 372, 373, 374, 375, 376, 377, 378, 379, 380, 381, 382, 383, 384, 385, 386, 387, 388, 389, 390, 391, 392, 393, 394, 395, 396, 397, 398, 399, 400, 401, 402, 403, 404, 405, 406, 407, 408, 409, 410, 411, 412, 413, 414, 415, 416, 417, 418, 419, 420, 421, 422, 423, 424, 425, 426, 427, 428, 429, 430, 431, 432, 433, 434, 435, 436, 437, 438, 439, 440, 441, 442, 443, 444, 445, 446, 447, 448, 449, 450, 451, 452, 453, 454, 455, 456, 457, 458, 459, 460, 461, 462, 463, 464, 465, 466, 467, 468, 469, 470, 471, 472, 473, 474, 475, 476, 477, 478, 479, 480, 481, 482, 483, 484, 485, 486, 487, 488, 489, 490, 491, 492, 493, 494, 495, 496, 497, 498, 499, 500, 501, 502, 503, 504, 505, 506, 507, 508, 509, 510, 511, 512, 513, 514, 515, 516, 517, 518, 519, 520, 521, 522, 523, 524, 525, 526, 527, 528, 529, 530, 531, 532, 533, 534, 535, 536, 537, 538, 539, 540, 541, 542, 543, 544, 545, 546, 547, 548, 549, 550, 551, 552, 553, 554, 555, 556, 557, 558, 559, 560, 561, 562, 563, 564, 565, 566, 567, 568, 569, 570, 571, 572, 573, 574, 575, 576, 577, 578, 579, 580, 581, 582, 583, 584, 585, 586, 587, 588, 589, 590, 591, 592, 593, 594, 595, 596, 597, 598, 599, 600, 601, 602, 603, 604, 605, 606, 607, 608, 609, 610, 611, 612, 613, 614, 615, 616, 617, 618, 619, 620, 621, 622, 623, 624, 625, 626, 627, 628, 629, 630, 631, 632, 633, 634, 635, 636, 637, 638, 639, 640, 641, 642, 643, 644, 645, 646, 647, 648, 649, 650, 651, 652, 653, 654, 655, 656, 657, 658, 659, 660, 661, 662, 663, 664, 665, 666, 667, 668, 669, 670, 671, 672, 673, 674, 675, 676, 677, 678, 679, 680, 681, 682, 683, 684, 685, 686, 687, 688, 689, 690, 691, 692, 693, 694, 695, 696, 697, 698, 699, 700, 701, 702, 703, 704, 705, 706, 707, 708, 709, 710, 711, 712, 713, 714, 715, 716, 717, 718, 719, 720, 721, 722, 723, 724, 725, 726, 727, 728, 729, 730, 731, 732, 733, 734, 735, 736, 737, 738, 739, 740, 741, 742, 743, 744, 745, 746, 747, 748, 749, 750, 751, 752, 753, 754, 755, 756, 757, 758, 759, 760, 761, 762, 763, 764, 765, 766, 767, 768, 769, 770, 771, 772, 773, 774, 775, 776, 777, 778, 779, 780, 781, 782, 783, 784, 785, 786, 787, 788, 789, 790, 791, 792, 793, 794, 795, 796, 797, 798, 799, 800, 801, 802, 803, 804, 805, 806, 807, 808, 809, 810, 811, 812, 813, 814, 815, 816, 817, 818, 819, 820, 821, 822, 823, 824, 825, 826, 827, 828, 829, 830, 831, 832, 833, 834, 835, 836, 837, 838, 839, 840, 841, 842, 843, 844, 845, 846, 847, 848, 849, 850, 851, 852, 853, 854, 855, 856, 857, 858, 859, 860, 861, 862, 863, 864, 865, 866, 867, 868, 869, 870, 871, 872],
      "AcquisitionTime": ["174603.990000", "174604.450000", "174604.910000", "174605.370000", "174605.830000", "174606.290000", "174606.750000", "174607.210000", "174607.670000", "174608.130000", "174608.590000", "174609.050000", "174609.510000", "174609.970000", "174610.430000", "174610.890000", "174611.350000", "174611.810000", "174612.270000", "174612.730000", "174613.190000", "174613.650000", "174614.110000", "174614.570000", "174615.030000", "174615.490000", "174615.950000", "174616.410000", "174616.870000", "174617.330000", "174617.790000", "174618.250000", "174618.710000", "174619.170000", "174619.630000", "174620.090000", "174620.550000", "174621.010000", "174621.470000", "174621.930000", "174622.390000", "174622.850000", "174623.310000", "174623.770000", "174624.230000", "174624.690000", "174625.150000", "174625.610000", "174626.070000", "174626.530000", "174626.990000", "174627.450000", "174627.910000", "174628.370000", "174628.830000", "174629.290000", "174629.750000", "174630.210000", "174630.670000", "174631.130000", "174631.590000", "174632.050000", "174632.510000", "174632.970000", "174633.430000", "174633.890000", "174634.350000", "174634.810000", "174635.270000", "174635.730000", "174636.190000", "174636.650000", "174637.110000", "174637.570000", "174638.030000", "174638.490000", "174638.950000", "174639.410000", "174639.870000", "174640.330000", "174640.790000", "174641.250000", "174641.710000", "174642.170000", "174642.630000", "174643.090000", "174643.550000", "174644.010000", "174644.470000", "174644.930000", "174645.390000", "174645.850000", "174646.310000", "174646.770000", "174647.230000", "174647.690000", "174648.150000", "174648.610000", "174649.070000", "174649.530000", "174649.990000", "174650.450000", "174650.910000", "174651.370000", "174651.830000", "174652.290000", "174652.750000", "174653.210000", "174653.670000", "174654.130000", "174654.590000", "174655.050000", "174655.510000", "174655.970000", "174656.430000", "174656.890000", "174657.350000", "174657.810000", "174658.270000", "174658.730000", "174659.190000", "174659.650000", "174700.110000", "174700.570000", "174701.030000", "174701.490000", "174701.950000", "174702.410000", "174702.870000", "174703.330000", "174703.790000", "174704.250000", "174704.710000", "174705.170000", "174705.630000", "174706.090000", "174706.550000", "174707.010000", "174707.470000", "174707.930000", "174708.390000", "174708.850000", "174709.310000", "174709.770000", "174710.230000", "174710.690000", "174711.150000", "174711.610000", "174712.070000", "174712.530000", "174712.990000", "174713.450000", "174713.910000", "174714.370000", "174714.830000", "174715.290000", "174715.750000", "174716.210000", "174716.670000", "174717.130000", "174717.590000", "174718.050000", "174718.510000", "174718.970000", "174719.430000", "174719.890000", "174720.350000", "174720.810000", "174721.270000", "174721.730000", "174722.190000", "174722.650000", "174723.110000", "174723.570000", "174724.030000", "174724.490000", "174724.950000", "174725.410000", "174725.870000", "174726.330000", "174726.790000", "174727.250000", "174727.710000", "174728.170000", "174728.630000", "174729.090000", "174729.550000", "174730.010000", "174730.470000", "174730.930000", "174731.390000", "174731.850000", "174732.310000", "174732.770000", "174733.230000", "174733.690000", "174734.150000", "174734.610000", "174735.070000", "174735.530000", "174735.990000", "174736.450000", "174736.910000", "174737.370000", "174737.830000", "174738.290000", "174738.750000", "174739.210000", "174739.670000", "174740.130000", "174740.590000", "174741.050000", "174741.510000", "174741.970000", "174742.430000", "174742.890000", "174743.350000", "174743.810000", "174744.270000", "174744.730000", "174745.190000", "174745.650000", "174746.110000", "174746.570000", "174747.030000", "174747.490000", "174747.950000", "174748.410000", "174748.870000", "174749.330000", "174749.790000", "174750.250000", "174750.710000", "174751.170000", "174751.630000", "174752.090000", "174752.550000", "174753.010000", "174753.470000", "174753.930000", "174754.390000", "174754.850000", "174755.310000", "174755.770000", "174756.230000", "174756.690000", "174757.150000", "174757.610000", "174758.070000", "174758.530000", "174758.990000", "174759.450000", "174759.910000", "174800.370000", "174800.830000", "174801.290000", "174801.750000", "174802.210000", "174802.670000", "174803.130000", "174803.590000", "174804.050000", "174804.510000", "174804.970000", "174805.430000", "174805.890000", "174806.350000", "174806.810000", "174807.270000", "174807.730000", "174808.190000", "174808.650000", "174809.110000", "174809.570000", "174810.030000", "174810.490000", "174810.950000", "174811.410000", "174811.870000", "174812.330000", "174812.790000", "174813.250000", "174813.710000", "174814.170000", "174814.630000", "174815.090000", "174815.550000", "174816.010000", "174816.470000", "174816.930000", "174817.390000", "174817.850000", "174818.310000", "174818.770000", "174819.230000", "174819.690000", "174820.150000", "174820.610000", "174821.070000", "174821.530000", "174821.990000", "174822.450000", "174822.910000", "174823.370000", "174823.830000", "174824.290000", "174824.750000", "174825.210000", "174825.670000", "174826.130000", "174826.590000", "174827.050000", "174827.510000", "174827.970000", "174828.430000", "174828.890000", "174829.350000", "174829.810000", "174830.270000", "174830.730000", "174831.190000", "174831.650000", "174832.110000", "174832.570000", "174833.030000", "174833.490000", "174833.950000", "174834.410000", "174834.870000", "174835.330000", "174835.790000", "174836.250000", "174836.710000", "174837.170000", "174837.630000", "174838.090000", "174838.550000", "174839.010000", "174839.470000", "174839.930000", "174840.390000", "174840.850000", "174841.310000", "174841.770000", "174842.230000", "174842.690000", "174843.150000", "174843.610000", "174844.070000", "174844.530000", "174844.990000", "174845.450000", "174845.910000", "174846.370000", "174846.830000", "174847.290000", "174847.750000", "174848.210000", "174848.670000", "174849.130000", "174849.590000", "174850.050000", "174850.510000", "174850.970000", "174851.430000", "174851.890000", "174852.350000", "174852.810000", "174853.270000", "174853.730000", "174854.190000", "174854.650000", "174855.110000", "174855.570000", "174856.030000", "174856.490000", "174856.950000", "174857.410000", "174857.870000", "174858.330000", "174858.790000", "174859.250000", "174859.710000", "174900.170000", "174900.630000", "174901.090000", "174901.550000", "174902.010000", "174902.470000", "174902.930000", "174903.390000", "174903.850000", "174904.310000", "174904.770000", "174905.230000", "174905.690000", "174906.150000", "174906.610000", "174907.070000", "174907.530000", "174907.990000", "174908.450000", "174908.910000", "174909.370000", "174909.830000", "174910.290000", "174910.750000", "174911.210000", "174911.670000", "174912.130000", "174912.590000", "174913.050000", "174913.510000", "174913.970000", "174914.430000", "174914.890000", "174915.350000", "174915.810000", "174916.270000", "174916.730000", "174917.190000", "174917.650000", "174918.110000", "174918.570000", "174919.030000", "174919.490000", "174919.950000", "174920.410000", "174920.870000", "174921.330000", "174921.790000", "174922.250000", "174922.710000", "174923.170000", "174923.630000", "174924.090000", "174924.550000", "174925.010000", "174925.470000", "174925.930000", "174926.390000", "174926.850000", "174927.310000", "174927.770000", "174928.230000", "174928.690000", "174929.150000", "174929.610000", "174930.070000", "174930.530000", "174930.990000", "174931.450000", "174931.910000", "174932.370000", "174932.830000", "174933.290000", "174933.750000", "174934.210000", "174934.670000", "174935.130000", "174935.590000", "174936.050000", "174936.510000", "174936.970000", "174937.430000", "174937.890000", "174938.350000", "174938.810000", "174939.270000", "174939.730000", "174940.190000", "174940.650000", "174941.110000", "174941.570000", "174942.030000", "174942.490000", "174942.950000", "174943.410000", "174943.870000", "174944.330000", "174944.790000", "174945.250000", "174945.710000", "174946.170000", "174946.630000", "174947.090000", "174947.550000", "174948.010000", "174948.470000", "174948.930000", "174949.390000", "174949.850000", "174950.310000", "174950.770000", "174951.230000", "174951.690000", "174952.150000", "174952.610000", "174953.070000", "174953.530000", "174953.990000", "174954.450000", "174954.910000", "174955.370000", "174955.830000", "174956.290000", "174956.750000", "174957.210000", "174957.670000", "174958.130000", "174958.590000", "174959.050000", "174959.510000", "174959.970000", "175000.430000", "175000.890000", "175001.350000", "175001.810000", "175002.270000", "175002.730000", "175003.190000", "175003.650000", "175004.110000", "175004.570000", "175005.030000", "175005.490000", "175005.950000", "175006.410000", "175006.870000", "175007.330000", "175007.790000", "175008.250000", "175008.710000", "175009.170000", "175009.630000", "175010.090000", "175010.550000", "175011.010000", "175011.470000", "175011.930000", "175012.390000", "175012.850000", "175013.310000", "175013.770000", "175014.230000", "175014.690000", "175015.150000", "175015.610000", "175016.070000", "175016.530000", "175016.990000", "175017.450000", "175017.910000", "175018.370000", "175018.830000", "175019.290000", "175019.750000", "175020.210000", "175020.670000", "175021.130000", "175021.590000", "175022.050000", "175022.510000", "175022.970000", "175023.430000", "175023.890000", "175024.350000", "175024.810000", "175025.270000", "175025.730000", "175026.190000", "175026.650000", "175027.110000", "175027.570000", "175028.030000", "175028.490000", "175028.950000", "175029.410000", "175029.870000", "175030.330000", "175030.790000", "175031.250000", "175031.710000", "175032.170000", "175032.630000", "175033.090000", "175033.550000", "175034.010000", "175034.470000", "175034.930000", "175035.390000", "175035.850000", "175036.310000", "175036.770000", "175037.230000", "175037.690000", "175038.150000", "175038.610000", "175039.070000", "175039.530000", "175039.990000", "175040.450000", "175040.910000", "175041.370000", "175041.830000", "175042.290000", "175042.750000", "175043.210000", "175043.670000", "175044.130000", "175044.590000", "175045.050000", "175045.510000", "175045.970000", "175046.430000", "175046.890000", "175047.350000", "175047.810000", "175048.270000", "175048.730000", "175049.190000", "175049.650000", "175050.110000", "175050.570000", "175051.030000", "175051.490000", "175051.950000", "175052.410000", "175052.870000", "175053.330000", "175053.790000", "175054.250000", "175054.710000", "175055.170000", "175055.630000", "175056.090000", "175056.550000", "175057.010000", "175057.470000", "175057.930000", "175058.390000", "175058.850000", "175059.310000", "175059.770000", "175100.230000", "175100.690000", "175101.150000", "175101.610000", "175102.070000", "175102.530000", "175102.990000", "175103.450000", "175103.910000", "175104.370000", "175104.830000", "175105.290000", "175105.750000", "175106.210000", "175106.670000", "175107.130000", "175107.590000", "175108.050000", "175108.510000", "175108.970000", "175109.430000", "175109.890000", "175110.350000", "175110.810000", "175111.270000", "175111.730000", "175112.190000", "175112.650000", "175113.110000", "175113.570000", "175114.030000", "175114.490000", "175114.950000", "175115.410000", "175115.870000", "175116.330000", "175116.790000", "175117.250000", "175117.710000", "175118.170000", "175118.630000", "175119.090000", "175119.550000", "175120.010000", "175120.470000", "175120.930000", "175121.390000", "175121.850000", "175122.310000", "175122.770000", "175123.230000", "175123.690000", "175124.150000", "175124.610000", "175125.070000", "175125.530000", "175125.990000", "175126.450000", "175126.910000", "175127.370000", "175127.830000", "175128.290000", "175128.750000", "175129.210000", "175129.670000", "175130.130000", "175130.590000", "175131.050000", "175131.510000", "175131.970000", "175132.430000", "175132.890000", "175133.350000", "175133.810000", "175134.270000", "175134.730000", "175135.190000", "175135.650000", "175136.110000", "175136.570000", "175137.030000", "175137.490000", "175137.950000", "175138.410000", "175138.870000", "175139.330000", "175139.790000", "175140.250000", "175140.710000", "175141.170000", "175141.630000", "175142.090000", "175142.550000", "175143.010000", "175143.470000", "175143.930000", "175144.390000", "175144.850000", "175145.310000", "175145.770000", "175146.230000", "175146.690000", "175147.150000", "175147.610000", "175148.070000", "175148.530000", "175148.990000", "175149.450000", "175149.910000", "175150.370000", "175150.830000", "175151.290000", "175151.750000", "175152.210000", "175152.670000", "175153.130000", "175153.590000", "175154.050000", "175154.510000", "175154.970000", "175155.430000", "175155.890000", "175156.350000", "175156.810000", "175157.270000", "175157.730000", "175158.190000", "175158.650000", "175159.110000", "175159.570000", "175200.030000", "175200.490000", "175200.950000", "175201.410000", "175201.870000", "175202.330000", "175202.790000", "175203.250000", "175203.710000", "175204.170000", "175204.630000", "175205.090000", "175205.550000", "175206.010000", "175206.470000", "175206.930000", "175207.390000", "175207.850000", "175208.310000", "175208.770000", "175209.230000", "175209.690000", "175210.150000", "175210.610000", "175211.070000", "175211.530000", "175211.990000", "175212.450000", "175212.910000", "175213.370000", "175213.830000", "175214.290000", "175214.750000", "175215.210000", "175215.670000", "175216.130000", "175216.590000", "175217.050000", "175217.510000", "175217.970000", "175218.430000", "175218.890000", "175219.350000", "175219.810000", "175220.270000", "175220.730000", "175221.190000", "175221.650000", "175222.110000", "175222.570000", "175223.030000", "175223.490000", "175223.950000", "175224.410000", "175224.870000", "175225.330000", "175225.790000", "175226.250000", "175226.710000", "175227.170000", "175227.630000", "175228.090000", "175228.550000", "175229.010000", "175229.470000", "175229.930000", "175230.390000", "175230.850000", "175231.310000", "175231.770000", "175232.230000", "175232.690000", "175233.150000", "175233.610000", "175234.070000", "175234.530000", "175234.990000", "175235.450000", "175235.910000", "175236.370000", "175236.830000", "175237.290000", "175237.750000", "175238.210000", "175238.670000", "175239.130000", "175239.590000", "175240.050000", "175240.510000", "175240.970000", "175241.430000", "175241.890000", "175242.350000", "175242.810000", "175243.270000", "175243.730000", "175244.190000", "175244.650000"],
