{
  "AcquisitionMatrixPE": 82,
  "AcquisitionNumber": 1,
  "AcquisitionTime": "17:18:49.377500",
  "BandwidthPerPixelPhaseEncode": 24.888,
  "BaseResolution": 82,
  "BodyPartExamined": "BRAIN",
  "ConsistencyInfo": "N4_VE11C_LATEST_20160120",
  "ConversionSoftware": "dcm2niix",
  "ConversionSoftwareVersion": "v1.0.20201102",
  "DerivedVendorReportedEchoSpacing": 0.00049,
  "DeviceSerialNumber": "66112",
  "DwellTime": 2e-06,
  "EchoTime": 0.0272,
  "EchoTrainLength": 82,
  "EffectiveEchoSpacing": 0.00049,
  "FlipAngle": 44,
  "ImageComments": "Unaliased MB8/PE3",
  "ImageOrientationPatientDICOM": [0.999139, 0.0296882, 0.028968, -0.034367, 0.983547, 0.177355],
  "ImageType": [
    "ORIGINAL",
    "PRIMARY",
    "M",
    "MB",
    "ND",
    "NORM",
    "MOSAIC"
],
  "ImagingFrequency": 123.252,
  "InPlanePhaseEncodingDirectionDICOM": "COL",
  "InstitutionAddress": "Maynard 3,Hanover,NH,US,03755",
  "InstitutionName": "Dartmouth College - PBS",
  "InstitutionalDepartmentName": "Department",
  "MRAcquisitionType": "2D",
  "MagneticFieldStrength": 3,
  "Manufacturer": "Siemens",
  "ManufacturersModelName": "Prisma",
  "Modality": "MR",
  "MultibandAccelerationFactor": 8,
  "PartialFourier": 1,
  "PatientPosition": "HFS",
  "PercentPhaseFOV": 100,
  "PercentSampling": 100,
  "PhaseEncodingDirection": "j-",
  "PhaseEncodingSteps": 82,
  "PhaseResolution": 1,
  "PixelBandwidth": 3050,
  "ProcedureStepDescription": "Wager_Wager^1076_spacetop",
  "ProtocolName": "func_run-03_task-social_acq-ap-mb8",
  "PulseSequenceDetails": "%CustomerSeq%\\cmrr_mbep2d_bold",
  "ReceiveCoilActiveElements": "HEA;HEP",
  "ReceiveCoilName": "Head_32",
  "ReconMatrixPE": 82,
  "RepetitionTime": 0.46,
  "SAR": 0.1123,
  "ScanOptions": "FS",
  "ScanningSequence": "EP",
  "SequenceName": "epfid2d1_82",
  "SequenceVariant": "SK\\SS",
  "SeriesDescription": "func_run-03_task-social_acq-ap-mb8",
  "SeriesNumber": 16,
  "ShimSetting": [4141, -7797, -7162, 627, -54, -248, 24, 67],
  "SliceThickness": 2.7,
  "SliceTiming": [0, 0.2525, 0.065, 0.315, 0.1275, 0.3775, 0.19, 0, 0.2525, 0.065, 0.315, 0.1275, 0.3775, 0.19, 0, 0.2525, 0.065, 0.315, 0.1275, 0.3775, 0.19, 0, 0.2525, 0.065, 0.315, 0.1275, 0.3775, 0.19, 0, 0.2525, 0.065, 0.315, 0.1275, 0.3775, 0.19, 0, 0.2525, 0.065, 0.315, 0.1275, 0.3775, 0.19, 0, 0.2525, 0.065, 0.315, 0.1275, 0.3775, 0.19, 0, 0.2525, 0.065, 0.315, 0.1275, 0.3775, 0.19],
  "SoftwareVersions": "syngo MR E11",
  "SpacingBetweenSlices": 2.7,
  "StationName": "AWP66112",
  "TaskName": "social",
  "TotalReadoutTime": 0.03969,
  "TxRefAmp": 246.53,
  "WipMemBlock": "c181ef5a-8345-4798-a7cc-c5703b803b9a||Sequence: R016 ve11c/master r/e634e98; Dec 19 2017 11:00:25 by eja",
  "dcmmeta_affine": [
    [-2.6806178092956543, -0.0922040343284607, 0.0627102255821228, 114.46920013427734],
    [-0.07965133339166641, 2.6387836933135986, 0.48113515973091125, -101.5967788696289],
    [0.07771901041269302, -0.4758313000202179, 2.6560451984405518, -15.56764030456543],
    [0.0, 0.0, 0.0, 1.0]
],
  "dcmmeta_reorient_transform": [
    [0.0, -1.0, 0.0, 81.0],
    [1.0, 0.0, 0.0, 0.0],
    [0.0, 0.0, 1.0, 0.0],
    [0.0, 0.0, 0.0, 1.0]
],
  "dcmmeta_shape": [82, 82, 56, 872],
  "dcmmeta_slice_dim": 2,
  "dcmmeta_version": 0.6,
  "global": {
    "const": {
      "AccessionNumber": "A003794",
      "AcquisitionMatrix": [82, 0, 0, 82],
      "AngioFlag": "N",
      "BitsAllocated": 16,
      "BitsStored": 16,
      "BodyPartExamined": "BRAIN",
      "Columns": 656,
      "EchoNumbers": 1,
      "EchoTime": 27.2,
      "EchoTrainLength": 82,
      "FlipAngle": 44.0,
      "HighBit": 15,
      "ImageOrientationPatient": [0.99913936194753, 0.02968822420318, 0.02896799528357, -0.0343669584627, 0.98354664815248, 0.17735530179289],
      "ImagePositionPatient": [-849.87544198106, -892.33557435469, -212.97891920827],
      "ImageType": [
        "ORIGINAL",
        "PRIMARY",
        "M",
        "MB",
        "ND",
        "NORM",
        "MOSAIC"
],
      "ImagedNucleus": "1H",
      "ImagingFrequency": 123.252153,
      "InPlanePhaseEncodingDirection": "COL",
      "MRAcquisitionType": "2D",
      "MagneticFieldStrength": 3.0,
      "Manufacturer": "SIEMENS",
      "ManufacturerModelName": "Prisma",
      "Modality": "MR",
      "NumberOfAverages": 1.0,
      "NumberOfPhaseEncodingSteps": 82,
      "PercentPhaseFieldOfView": 100.0,
      "PercentSampling": 100.0,
      "PerformedProcedureStepStartTime": "163236.273000",
      "PhotometricInterpretation": "MONOCHROME2",
      "PixelBandwidth": 3050.0,
      "PixelRepresentation": 0,
      "PixelSpacing": [2.6829268932343, 2.6829268932343],
      "ProtocolName": "func_run-03_task-social_acq-ap-mb8",
      "RepetitionTime": 460.0,
      "Rows": 656,
      "SAR": 0.11230023424359,
      "SamplesPerPixel": 1,
      "ScanOptions": "FS",
      "ScanningSequence": "EP",
      "SequenceName": "epfid2d1_82",
      "SequenceVariant": [
        "SK",
        "SS"
],
      "SeriesDescription": "func_run-03_task-social_acq-ap-mb8",
      "SeriesNumber": 16,
      "SeriesTime": "171906.141000",
      "SliceLocation": -30.759907637106,
      "SliceThickness": 2.7000000476837,
      "SmallestImagePixelValue": 0,
      "SoftwareVersions": "syngo MR E11",
      "SpacingBetweenSlices": 2.6999999999781,
      "SpecificCharacterSet": "ISO_IR 100",
      "StudyID": "1",
      "StudyTime": "163236.158000",
      "TransmitCoilName": "Body",
      "VariableFlipAngleFlag": "N",
      "WindowCenterWidthExplanation": "Algo1",
      "dBdt": 0.0},
    "slices": {}
  },
  "time": {
    "samples": {
      "AcquisitionNumber": [1, 2, 3, 4, 5, 6, 7, 8, 9, 10, 11, 12, 13, 14, 15, 16, 17, 18, 19, 20, 21, 22, 23, 24, 25, 26, 27, 28, 29, 30, 31, 32, 33, 34, 35, 36, 37, 38, 39, 40, 41, 42, 43, 44, 45, 46, 47, 48, 49, 50, 51, 52, 53, 54, 55, 56, 57, 58, 59, 60, 61, 62, 63, 64, 65, 66, 67, 68, 69, 70, 71, 72, 73, 74, 75, 76, 77, 78, 79, 80, 81, 82, 83, 84, 85, 86, 87, 88, 89, 90, 91, 92, 93, 94, 95, 96, 97, 98, 99, 100, 101, 102, 103, 104, 105, 106, 107, 108, 109, 110, 111, 112, 113, 114, 115, 116, 117, 118, 119, 120, 121, 122, 123, 124, 125, 126, 127, 128, 129, 130, 131, 132, 133, 134, 135, 136, 137, 138, 139, 140, 141, 142, 143, 144, 145, 146, 147, 148, 149, 150, 151, 152, 153, 154, 155, 156, 157, 158, 159, 160, 161, 162, 163, 164, 165, 166, 167, 168, 169, 170, 171, 172, 173, 174, 175, 176, 177, 178, 179, 180, 181, 182, 183, 184, 185, 186, 187, 188, 189, 190, 191, 192, 193, 194, 195, 196, 197, 198, 199, 200, 201, 202, 203, 204, 205, 206, 207, 208, 209, 210, 211, 212, 213, 214, 215, 216, 217, 218, 219, 220, 221, 222, 223, 224, 225, 226, 227, 228, 229, 230, 231, 232, 233, 234, 235, 236, 237, 238, 239, 240, 241, 242, 243, 244, 245, 246, 247, 248, 249, 250, 251, 252, 253, 254, 255, 256, 257, 258, 259, 260, 261, 262, 263, 264, 265, 266, 267, 268, 269, 270, 271, 272, 273, 274, 275, 276, 277, 278, 279, 280, 281, 282, 283, 284, 285, 286, 287, 288, 289, 290, 291, 292, 293, 294, 295, 296, 297, 298, 299, 300, 301, 302, 303, 304, 305, 306, 307, 308, 309, 310, 311, 312, 313, 314, 315, 316, 317, 318, 319, 320, 321, 322, 323, 324, 325, 326, 327, 328, 329, 330, 331, 332, 333, 334, 335, 336, 337, 338, 339, 340, 341, 342, 343, 344, 345, 346, 347, 348, 349, 350, 351, 352, 353, 354, 355, 356, 357, 358, 359, 360, 361, 362, 363, 364, 365, 366, 367, 368, 369, 370, 371, 372, 373, 374, 375, 376, 377, 378, 379, 380, 381, 382, 383, 384, 385, 386, 387, 388, 389, 390, 391, 392, 393, 394, 395, 396, 397, 398, 399, 400, 401, 402, 403, 404, 405, 406, 407, 408, 409, 410, 411, 412, 413, 414, 415, 416, 417, 418, 419, 420, 421, 422, 423, 424, 425, 426, 427, 428, 429, 430, 431, 432, 433, 434, 435, 436, 437, 438, 439, 440, 441, 442, 443, 444, 445, 446, 447, 448, 449, 450, 451, 452, 453, 454, 455, 456, 457, 458, 459, 460, 461, 462, 463, 464, 465, 466, 467, 468, 469, 470, 471, 472, 473, 474, 475, 476, 477, 478, 479, 480, 481, 482, 483, 484, 485, 486, 487, 488, 489, 490, 491, 492, 493, 494, 495, 496, 497, 498, 499, 500, 501, 502, 503, 504, 505, 506, 507, 508, 509, 510, 511, 512, 513, 514, 515, 516, 517, 518, 519, 520, 521, 522, 523, 524, 525, 526, 527, 528, 529, 530, 531, 532, 533, 534, 535, 536, 537, 538, 539, 540, 541, 542, 543, 544, 545, 546, 547, 548, 549, 550, 551, 552, 553, 554, 555, 556, 557, 558, 559, 560, 561, 562, 563, 564, 565, 566, 567, 568, 569, 570, 571, 572, 573, 574, 575, 576, 577, 578, 579, 580, 581, 582, 583, 584, 585, 586, 587, 588, 589, 590, 591, 592, 593, 594, 595, 596, 597, 598, 599, 600, 601, 602, 603, 604, 605, 606, 607, 608, 609, 610, 611, 612, 613, 614, 615, 616, 617, 618, 619, 620, 621, 622, 623, 624, 625, 626, 627, 628, 629, 630, 631, 632, 633, 634, 635, 636, 637, 638, 639, 640, 641, 642, 643, 644, 645, 646, 647, 648, 649, 650, 651, 652, 653, 654, 655, 656, 657, 658, 659, 660, 661, 662, 663, 664, 665, 666, 667, 668, 669, 670, 671, 672, 673, 674, 675, 676, 677, 678, 679, 680, 681, 682, 683, 684, 685, 686, 687, 688, 689, 690, 691, 692, 693, 694, 695, 696, 697, 698, 699, 700, 701, 702, 703, 704, 705, 706, 707, 708, 709, 710, 711, 712, 713, 714, 715, 716, 717, 718, 719, 720, 721, 722, 723, 724, 725, 726, 727, 728, 729, 730, 731, 732, 733, 734, 735, 736, 737, 738, 739, 740, 741, 742, 743, 744, 745, 746, 747, 748, 749, 750, 751, 752, 753, 754, 755, 756, 757, 758, 759, 760, 761, 762, 763, 764, 765, 766, 767, 768, 769, 770, 771, 772, 773, 774, 775, 776, 777, 778, 779, 780, 781, 782, 783, 784, 785, 786, 787, 788, 789, 790, 791, 792, 793, 794, 795, 796, 797, 798, 799, 800, 801, 802, 803, 804, 805, 806, 807, 808, 809, 810, 811, 812, 813, 814, 815, 816, 817, 818, 819, 820, 821, 822, 823, 824, 825, 826, 827, 828, 829, 830, 831, 832, 833, 834, 835, 836, 837, 838, 839, 840, 841, 842, 843, 844, 845, 846, 847, 848, 849, 850, 851, 852, 853, 854, 855, 856, 857, 858, 859, 860, 861, 862, 863, 864, 865, 866, 867, 868, 869, 870, 871, 872],
      "AcquisitionTime": ["171849.377500", "171849.837500", "171850.297500", "171850.757500", "171851.217500", "171851.677500", "171852.137500", "171852.597500", "171853.057500", "171853.517500", "171853.977500", "171854.437500", "171854.897500", "171855.357500", "171855.817500", "171856.277500", "171856.737500", "171857.197500", "171857.657500", "171858.117500", "171858.577500", "171859.037500", "171859.497500", "171859.957500", "171900.417500", "171900.877500", "171901.337500", "171901.797500", "171902.257500", "171902.717500", "171903.177500", "171903.637500", "171904.097500", "171904.557500", "171905.017500", "171905.477500", "171905.937500", "171906.397500", "171906.857500", "171907.317500", "171907.777500", "171908.237500", "171908.697500", "171909.157500", "171909.617500", "171910.077500", "171910.537500", "171910.997500", "171911.457500", "171911.917500", "171912.377500", "171912.837500", "171913.297500", "171913.757500", "171914.217500", "171914.677500", "171915.137500", "171915.597500", "171916.057500", "171916.517500", "171916.977500", "171917.437500", "171917.897500", "171918.357500", "171918.817500", "171919.277500", "171919.737500", "171920.197500", "171920.657500", "171921.117500", "171921.577500", "171922.037500", "171922.497500", "171922.957500", "171923.417500", "171923.877500", "171924.337500", "171924.797500", "171925.257500", "171925.717500", "171926.177500", "171926.637500", "171927.097500", "171927.557500", "171928.017500", "171928.477500", "171928.937500", "171929.397500", "171929.857500", "171930.317500", "171930.777500", "171931.237500", "171931.697500", "171932.157500", "171932.617500", "171933.077500", "171933.537500", "171933.997500", "171934.457500", "171934.917500", "171935.377500", "171935.837500", "171936.297500", "171936.757500", "171937.217500", "171937.677500", "171938.137500", "171938.597500", "171939.057500", "171939.517500", "171939.977500", "171940.437500", "171940.897500", "171941.357500", "171941.817500", "171942.277500", "171942.737500", "171943.197500", "171943.657500", "171944.117500", "171944.577500", "171945.037500", "171945.497500", "171945.957500", "171946.417500", "171946.877500", "171947.337500", "171947.797500", "171948.257500", "171948.717500", "171949.177500", "171949.637500", "171950.097500", "171950.557500", "171951.017500", "171951.477500", "171951.937500", "171952.397500", "171952.857500", "171953.317500", "171953.777500", "171954.237500", "171954.697500", "171955.157500", "171955.617500", "171956.077500", "171956.537500", "171956.997500", "171957.457500", "171957.917500", "171958.377500", "171958.837500", "171959.297500", "171959.757500", "172000.217500", "172000.677500", "172001.137500", "172001.597500", "172002.057500", "172002.517500", "172002.977500", "172003.437500", "172003.897500", "172004.357500", "172004.817500", "172005.277500", "172005.737500", "172006.197500", "172006.657500", "172007.117500", "172007.577500", "172008.037500", "172008.497500", "172008.957500", "172009.417500", "172009.877500", "172010.337500", "172010.797500", "172011.257500", "172011.717500", "172012.177500", "172012.637500", "172013.097500", "172013.557500", "172014.017500", "172014.477500", "172014.937500", "172015.397500", "172015.857500", "172016.317500", "172016.777500", "172017.237500", "172017.697500", "172018.157500", "172018.617500", "172019.077500", "172019.537500", "172019.997500", "172020.457500", "172020.917500", "172021.377500", "172021.837500", "172022.297500", "172022.757500", "172023.217500", "172023.677500", "172024.137500", "172024.597500", "172025.057500", "172025.517500", "172025.977500", "172026.437500", "172026.897500", "172027.357500", "172027.817500", "172028.277500", "172028.737500", "172029.197500", "172029.657500", "172030.117500", "172030.577500", "172031.037500", "172031.497500", "172031.957500", "172032.417500", "172032.877500", "172033.337500", "172033.797500", "172034.257500", "172034.717500", "172035.177500", "172035.637500", "172036.097500", "172036.557500", "172037.017500", "172037.477500", "172037.937500", "172038.397500", "172038.857500", "172039.317500", "172039.777500", "172040.237500", "172040.697500", "172041.157500", "172041.617500", "172042.077500", "172042.537500", "172042.997500", "172043.457500", "172043.917500", "172044.377500", "172044.837500", "172045.297500", "172045.757500", "172046.217500", "172046.677500", "172047.137500", "172047.597500", "172048.057500", "172048.517500", "172048.977500", "172049.437500", "172049.897500", "172050.357500", "172050.817500", "172051.277500", "172051.737500", "172052.197500", "172052.657500", "172053.117500", "172053.577500", "172054.037500", "172054.497500", "172054.957500", "172055.417500", "172055.877500", "172056.337500", "172056.797500", "172057.257500", "172057.717500", "172058.177500", "172058.637500", "172059.097500", "172059.557500", "172100.017500", "172100.477500", "172100.937500", "172101.397500", "172101.857500", "172102.317500", "172102.777500", "172103.237500", "172103.697500", "172104.157500", "172104.617500", "172105.077500", "172105.537500", "172105.997500", "172106.457500", "172106.917500", "172107.377500", "172107.837500", "172108.297500", "172108.757500", "172109.217500", "172109.677500", "172110.137500", "172110.597500", "172111.057500", "172111.517500", "172111.977500", "172112.437500", "172112.897500", "172113.357500", "172113.817500", "172114.277500", "172114.737500", "172115.197500", "172115.657500", "172116.117500", "172116.577500", "172117.037500", "172117.497500", "172117.957500", "172118.417500", "172118.877500", "172119.337500", "172119.797500", "172120.257500", "172120.717500", "172121.177500", "172121.637500", "172122.097500", "172122.557500", "172123.017500", "172123.477500", "172123.937500", "172124.397500", "172124.857500", "172125.317500", "172125.777500", "172126.237500", "172126.697500", "172127.157500", "172127.617500", "172128.077500", "172128.537500", "172128.997500", "172129.457500", "172129.917500", "172130.377500", "172130.837500", "172131.297500", "172131.757500", "172132.217500", "172132.677500", "172133.137500", "172133.597500", "172134.057500", "172134.517500", "172134.977500", "172135.437500", "172135.897500", "172136.357500", "172136.817500", "172137.277500", "172137.737500", "172138.197500", "172138.657500", "172139.117500", "172139.577500", "172140.037500", "172140.497500", "172140.957500", "172141.417500", "172141.877500", "172142.337500", "172142.797500", "172143.257500", "172143.717500", "172144.177500", "172144.637500", "172145.097500", "172145.557500", "172146.017500", "172146.477500", "172146.937500", "172147.397500", "172147.857500", "172148.317500", "172148.777500", "172149.237500", "172149.697500", "172150.157500", "172150.617500", "172151.077500", "172151.537500", "172151.997500", "172152.457500", "172152.917500", "172153.377500", "172153.837500", "172154.297500", "172154.757500", "172155.217500", "172155.677500", "172156.137500", "172156.597500", "172157.057500", "172157.517500", "172157.977500", "172158.437500", "172158.897500", "172159.357500", "172159.817500", "172200.277500", "172200.737500", "172201.197500", "172201.657500", "172202.117500", "172202.577500", "172203.037500", "172203.497500", "172203.957500", "172204.417500", "172204.877500", "172205.337500", "172205.797500", "172206.257500", "172206.717500", "172207.177500", "172207.637500", "172208.097500", "172208.557500", "172209.017500", "172209.477500", "172209.937500", "172210.397500", "172210.857500", "172211.317500", "172211.777500", "172212.237500", "172212.697500", "172213.157500", "172213.617500", "172214.077500", "172214.537500", "172214.997500", "172215.457500", "172215.917500", "172216.377500", "172216.837500", "172217.297500", "172217.757500", "172218.217500", "172218.677500", "172219.137500", "172219.597500", "172220.057500", "172220.517500", "172220.977500", "172221.437500", "172221.897500", "172222.357500", "172222.817500", "172223.277500", "172223.737500", "172224.197500", "172224.657500", "172225.117500", "172225.577500", "172226.037500", "172226.497500", "172226.957500", "172227.417500", "172227.877500", "172228.337500", "172228.797500", "172229.257500", "172229.717500", "172230.177500", "172230.637500", "172231.097500", "172231.557500", "172232.017500", "172232.477500", "172232.937500", "172233.397500", "172233.857500", "172234.317500", "172234.777500", "172235.237500", "172235.697500", "172236.157500", "172236.617500", "172237.077500", "172237.537500", "172237.997500", "172238.457500", "172238.917500", "172239.377500", "172239.837500", "172240.297500", "172240.757500", "172241.217500", "172241.677500", "172242.137500", "172242.597500", "172243.057500", "172243.517500", "172243.977500", "172244.437500", "172244.897500", "172245.357500", "172245.817500", "172246.277500", "172246.737500", "172247.197500", "172247.657500", "172248.117500", "172248.577500", "172249.037500", "172249.497500", "172249.957500", "172250.417500", "172250.877500", "172251.337500", "172251.797500", "172252.257500", "172252.717500", "172253.177500", "172253.637500", "172254.097500", "172254.557500", "172255.017500", "172255.477500", "172255.937500", "172256.397500", "172256.857500", "172257.317500", "172257.777500", "172258.237500", "172258.697500", "172259.157500", "172259.617500", "172300.077500", "172300.537500", "172300.997500", "172301.457500", "172301.917500", "172302.377500", "172302.837500", "172303.297500", "172303.757500", "172304.217500", "172304.677500", "172305.137500", "172305.597500", "172306.057500", "172306.517500", "172306.977500", "172307.437500", "172307.897500", "172308.357500", "172308.817500", "172309.277500", "172309.737500", "172310.197500", "172310.657500", "172311.117500", "172311.577500", "172312.037500", "172312.497500", "172312.957500", "172313.417500", "172313.877500", "172314.337500", "172314.797500", "172315.257500", "172315.717500", "172316.177500", "172316.637500", "172317.097500", "172317.557500", "172318.017500", "172318.477500", "172318.937500", "172319.397500", "172319.857500", "172320.317500", "172320.777500", "172321.237500", "172321.697500", "172322.157500", "172322.617500", "172323.077500", "172323.537500", "172323.997500", "172324.457500", "172324.917500", "172325.377500", "172325.837500", "172326.297500", "172326.757500", "172327.217500", "172327.677500", "172328.137500", "172328.597500", "172329.057500", "172329.517500", "172329.977500", "172330.437500", "172330.897500", "172331.357500", "172331.817500", "172332.277500", "172332.737500", "172333.197500", "172333.657500", "172334.117500", "172334.577500", "172335.037500", "172335.497500", "172335.957500", "172336.417500", "172336.877500", "172337.337500", "172337.797500", "172338.257500", "172338.717500", "172339.177500", "172339.637500", "172340.097500", "172340.557500", "172341.017500", "172341.477500", "172341.937500", "172342.397500", "172342.857500", "172343.317500", "172343.777500", "172344.237500", "172344.697500", "172345.157500", "172345.617500", "172346.077500", "172346.537500", "172346.997500", "172347.457500", "172347.917500", "172348.377500", "172348.837500", "172349.297500", "172349.757500", "172350.217500", "172350.677500", "172351.137500", "172351.597500", "172352.057500", "172352.517500", "172352.977500", "172353.437500", "172353.897500", "172354.357500", "172354.817500", "172355.277500", "172355.737500", "172356.197500", "172356.657500", "172357.117500", "172357.577500", "172358.037500", "172358.497500", "172358.957500", "172359.417500", "172359.877500", "172400.337500", "172400.797500", "172401.257500", "172401.717500", "172402.177500", "172402.637500", "172403.097500", "172403.557500", "172404.017500", "172404.477500", "172404.937500", "172405.397500", "172405.857500", "172406.317500", "172406.777500", "172407.237500", "172407.697500", "172408.157500", "172408.617500", "172409.077500", "172409.537500", "172409.997500", "172410.457500", "172410.917500", "172411.377500", "172411.837500", "172412.297500", "172412.757500", "172413.217500", "172413.677500", "172414.137500", "172414.597500", "172415.057500", "172415.517500", "172415.977500", "172416.437500", "172416.897500", "172417.357500", "172417.817500", "172418.277500", "172418.737500", "172419.197500", "172419.657500", "172420.117500", "172420.577500", "172421.037500", "172421.497500", "172421.957500", "172422.417500", "172422.877500", "172423.337500", "172423.797500", "172424.257500", "172424.717500", "172425.177500", "172425.637500", "172426.097500", "172426.557500", "172427.017500", "172427.477500", "172427.937500", "172428.397500", "172428.857500", "172429.317500", "172429.777500", "172430.237500", "172430.697500", "172431.157500", "172431.617500", "172432.077500", "172432.537500", "172432.997500", "172433.457500", "172433.917500", "172434.377500", "172434.837500", "172435.297500", "172435.757500", "172436.217500", "172436.677500", "172437.137500", "172437.597500", "172438.057500", "172438.517500", "172438.977500", "172439.437500", "172439.897500", "172440.357500", "172440.817500", "172441.277500", "172441.737500", "172442.197500", "172442.657500", "172443.117500", "172443.577500", "172444.037500", "172444.497500", "172444.957500", "172445.417500", "172445.877500", "172446.337500", "172446.797500", "172447.257500", "172447.717500", "172448.177500", "172448.637500", "172449.097500", "172449.557500", "172450.017500", "172450.477500", "172450.937500", "172451.397500", "172451.857500", "172452.317500", "172452.777500", "172453.237500", "172453.697500", "172454.157500", "172454.617500", "172455.077500", "172455.537500", "172455.997500", "172456.457500", "172456.917500", "172457.377500", "172457.837500", "172458.297500", "172458.757500", "172459.217500", "172459.677500", "172500.137500", "172500.597500", "172501.057500", "172501.517500", "172501.977500", "172502.437500", "172502.897500", "172503.357500", "172503.817500", "172504.277500", "172504.737500", "172505.197500", "172505.657500", "172506.117500", "172506.577500", "172507.037500", "172507.497500", "172507.957500", "172508.417500", "172508.877500", "172509.337500", "172509.797500", "172510.257500", "172510.717500", "172511.177500", "172511.637500", "172512.097500", "172512.557500", "172513.017500", "172513.477500", "172513.937500", "172514.397500", "172514.857500", "172515.317500", "172515.777500", "172516.237500", "172516.697500", "172517.157500", "172517.617500", "172518.077500", "172518.537500", "172518.997500", "172519.457500", "172519.917500", "172520.377500", "172520.837500", "172521.297500", "172521.757500", "172522.217500", "172522.677500", "172523.137500", "172523.597500", "172524.057500", "172524.517500", "172524.977500", "172525.437500", "172525.897500", "172526.357500", "172526.817500", "172527.277500", "172527.737500", "172528.197500", "172528.657500", "172529.117500", "172529.577500", "172530.037500"],
