{
  "AcquisitionMatrixPE": 82,
  "AcquisitionNumber": 1,
  "AcquisitionTime": "17:39:6.497500",
  "BandwidthPerPixelPhaseEncode": 24.888,
  "BaseResolution": 82,
  "BodyPartExamined": "BRAIN",
  "ConsistencyInfo": "N4_VE11C_LATEST_20160120",
  "ConversionSoftware": "dcm2niix",
  "ConversionSoftwareVersion": "v1.0.20201102",
  "DerivedVendorReportedEchoSpacing": 0.00049,
  "DeviceSerialNumber": "66112",
  "DwellTime": 2e-06,
  "EchoTime": 0.0272,
  "EchoTrainLength": 82,
  "EffectiveEchoSpacing": 0.00049,
  "FlipAngle": 44,
  "ImageComments": "Unaliased MB8/PE3",
  "ImageOrientationPatientDICOM": [0.999586, 0.0202254, 0.0204431, -0.0239056, 0.979551, 0.199773],
  "ImageType": [
    "ORIGINAL",
    "PRIMARY",
    "M",
    "MB",
    "ND",
    "NORM",
    "MOSAIC"
],
  "ImagingFrequency": 123.252,
  "InPlanePhaseEncodingDirectionDICOM": "COL",
  "InstitutionAddress": "Maynard 3,Hanover,NH,US,03755",
  "InstitutionName": "Dartmouth College - PBS",
  "InstitutionalDepartmentName": "Department",
  "MRAcquisitionType": "2D",
  "MagneticFieldStrength": 3,
  "Manufacturer": "Siemens",
  "ManufacturersModelName": "Prisma",
  "Modality": "MR",
  "MultibandAccelerationFactor": 8,
  "PartialFourier": 1,
  "PatientPosition": "HFS",
  "PercentPhaseFOV": 100,
  "PercentSampling": 100,
  "PhaseEncodingDirection": "j-",
  "PhaseEncodingSteps": 82,
  "PhaseResolution": 1,
  "PixelBandwidth": 3050,
  "ProcedureStepDescription": "Wager_Wager^1076_spacetop",
  "ProtocolName": "func_run-05_task-social_acq-ap-mb8",
  "PulseSequenceDetails": "%CustomerSeq%\\cmrr_mbep2d_bold",
  "ReceiveCoilActiveElements": "HEA;HEP",
  "ReceiveCoilName": "Head_32",
  "ReconMatrixPE": 82,
  "RepetitionTime": 0.46,
  "SAR": 0.1123,
  "ScanOptions": "FS",
  "ScanningSequence": "EP",
  "SequenceName": "epfid2d1_82",
  "SequenceVariant": "SK\\SS",
  "SeriesDescription": "func_run-05_task-social_acq-ap-mb8",
  "SeriesNumber": 26,
  "ShimSetting": [4141, -7795, -7163, 625, -55, -239, 25, 67],
  "SliceThickness": 2.7,
  "SliceTiming": [0, 0.25, 0.0625, 0.3125, 0.125, 0.3775, 0.1875, 0, 0.25, 0.0625, 0.3125, 0.125, 0.3775, 0.1875, 0, 0.25, 0.0625, 0.3125, 0.125, 0.3775, 0.1875, 0, 0.25, 0.0625, 0.3125, 0.125, 0.3775, 0.1875, 0, 0.25, 0.0625, 0.3125, 0.125, 0.3775, 0.1875, 0, 0.25, 0.0625, 0.3125, 0.125, 0.3775, 0.1875, 0, 0.25, 0.0625, 0.3125, 0.125, 0.3775, 0.1875, 0, 0.25, 0.0625, 0.3125, 0.125, 0.3775, 0.1875],
  "SoftwareVersions": "syngo MR E11",
  "SpacingBetweenSlices": 2.7,
  "StationName": "AWP66112",
  "TaskName": "social",
  "TotalReadoutTime": 0.03969,
  "TxRefAmp": 246.53,
  "WipMemBlock": "0ed35add-06f1-41a9-b966-a2049f45b78a||Sequence: R016 ve11c/master r/e634e98; Dec 19 2017 11:00:25 by eja",
  "dcmmeta_affine": [
    [-2.6818172931671143, -0.0641370490193367, 0.04315824806690216, 113.81227111816406],
    [-0.05426318570971489, 2.6280624866485596, 0.5404831767082214, -103.68289947509766],
    [0.05484725162386894, -0.535975992679596, 2.64499831199646, -10.808492660522461],
    [0.0, 0.0, 0.0, 1.0]
],
  "dcmmeta_reorient_transform": [
    [0.0, -1.0, 0.0, 81.0],
    [1.0, 0.0, 0.0, 0.0],
    [0.0, 0.0, 1.0, 0.0],
    [0.0, 0.0, 0.0, 1.0]
],
  "dcmmeta_shape": [82, 82, 56, 872],
  "dcmmeta_slice_dim": 2,
  "dcmmeta_version": 0.6,
  "global": {
    "const": {
      "AccessionNumber": "A003794",
      "AcquisitionMatrix": [82, 0, 0, 82],
      "AngioFlag": "N",
      "BitsAllocated": 16,
      "BitsStored": 16,
      "BodyPartExamined": "BRAIN",
      "Columns": 656,
      "EchoNumbers": 1,
      "EchoTime": 27.2,
      "EchoTrainLength": 82,
      "FlipAngle": 44.0,
      "HighBit": 15,
      "ImageOrientationPatient": [0.99958642225772, 0.02022536804296, 0.02044306546319, -0.0239056276019, 0.97955056999944, 0.19977287549297],
      "ImagePositionPatient": [-859.89139662701, -879.01766063954, -223.78882912475],
      "ImageType": [
        "ORIGINAL",
        "PRIMARY",
        "M",
        "MB",
        "ND",
        "NORM",
        "MOSAIC"
],
      "ImagedNucleus": "1H",
      "ImagingFrequency": 123.252148,
      "InPlanePhaseEncodingDirection": "COL",
      "MRAcquisitionType": "2D",
      "MagneticFieldStrength": 3.0,
      "Manufacturer": "SIEMENS",
      "ManufacturerModelName": "Prisma",
      "Modality": "MR",
      "NumberOfAverages": 1.0,
      "NumberOfPhaseEncodingSteps": 82,
      "PercentPhaseFieldOfView": 100.0,
      "PercentSampling": 100.0,
      "PerformedProcedureStepStartTime": "163236.273000",
      "PhotometricInterpretation": "MONOCHROME2",
      "PixelBandwidth": 3050.0,
      "PixelRepresentation": 0,
      "PixelSpacing": [2.6829268932343, 2.6829268932343],
      "ProtocolName": "func_run-05_task-social_acq-ap-mb8",
      "RepetitionTime": 460.0,
      "Rows": 656,
      "SAR": 0.11230023424359,
      "SamplesPerPixel": 1,
      "ScanOptions": "FS",
      "ScanningSequence": "EP",
      "SequenceName": "epfid2d1_82",
      "SequenceVariant": [
        "SK",
        "SS"
],
      "SeriesDescription": "func_run-05_task-social_acq-ap-mb8",
      "SeriesNumber": 26,
      "SeriesTime": "173926.131000",
      "SliceLocation": -29.524210706001,
      "SliceThickness": 2.7000000476837,
      "SmallestImagePixelValue": 0,
      "SoftwareVersions": "syngo MR E11",
      "SpacingBetweenSlices": 2.7000000435378,
      "SpecificCharacterSet": "ISO_IR 100",
      "StudyID": "1",
      "StudyTime": "163236.158000",
      "TransmitCoilName": "Body",
      "VariableFlipAngleFlag": "N",
      "WindowCenterWidthExplanation": "Algo1",
      "dBdt": 0.0},
    "slices": {}
  },
  "time": {
    "samples": {
      "AcquisitionNumber": [1, 2, 3, 4, 5, 6, 7, 8, 9, 10, 11, 12, 13, 14, 15, 16, 17, 18, 19, 20, 21, 22, 23, 24, 25, 26, 27, 28, 29, 30, 31, 32, 33, 34, 35, 36, 37, 38, 39, 40, 41, 42, 43, 44, 45, 46, 47, 48, 49, 50, 51, 52, 53, 54, 55, 56, 57, 58, 59, 60, 61, 62, 63, 64, 65, 66, 67, 68, 69, 70, 71, 72, 73, 74, 75, 76, 77, 78, 79, 80, 81, 82, 83, 84, 85, 86, 87, 88, 89, 90, 91, 92, 93, 94, 95, 96, 97, 98, 99, 100, 101, 102, 103, 104, 105, 106, 107, 108, 109, 110, 111, 112, 113, 114, 115, 116, 117, 118, 119, 120, 121, 122, 123, 124, 125, 126, 127, 128, 129, 130, 131, 132, 133, 134, 135, 136, 137, 138, 139, 140, 141, 142, 143, 144, 145, 146, 147, 148, 149, 150, 151, 152, 153, 154, 155, 156, 157, 158, 159, 160, 161, 162, 163, 164, 165, 166, 167, 168, 169, 170, 171, 172, 173, 174, 175, 176, 177, 178, 179, 180, 181, 182, 183, 184, 185, 186, 187, 188, 189, 190, 191, 192, 193, 194, 195, 196, 197, 198, 199, 200, 201, 202, 203, 204, 205, 206, 207, 208, 209, 210, 211, 212, 213, 214, 215, 216, 217, 218, 219, 220, 221, 222, 223, 224, 225, 226, 227, 228, 229, 230, 231, 232, 233, 234, 235, 236, 237, 238, 239, 240, 241, 242, 243, 244, 245, 246, 247, 248, 249, 250, 251, 252, 253, 254, 255, 256, 257, 258, 259, 260, 261, 262, 263, 264, 265, 266, 267, 268, 269, 270, 271, 272, 273, 274, 275, 276, 277, 278, 279, 280, 281, 282, 283, 284, 285, 286, 287, 288, 289, 290, 291, 292, 293, 294, 295, 296, 297, 298, 299, 300, 301, 302, 303, 304, 305, 306, 307, 308, 309, 310, 311, 312, 313, 314, 315, 316, 317, 318, 319, 320, 321, 322, 323, 324, 325, 326, 327, 328, 329, 330, 331, 332, 333, 334, 335, 336, 337, 338, 339, 340, 341, 342, 343, 344, 345, 346, 347, 348, 349, 350, 351, 352, 353, 354, 355, 356, 357, 358, 359, 360, 361, 362, 363, 364, 365, 366, 367, 368, 369, 370, 371, 372, 373, 374, 375, 376, 377, 378, 379, 380, 381, 382, 383, 384, 385, 386, 387, 388, 389, 390, 391, 392, 393, 394, 395, 396, 397, 398, 399, 400, 401, 402, 403, 404, 405, 406, 407, 408, 409, 410, 411, 412, 413, 414, 415, 416, 417, 418, 419, 420, 421, 422, 423, 424, 425, 426, 427, 428, 429, 430, 431, 432, 433, 434, 435, 436, 437, 438, 439, 440, 441, 442, 443, 444, 445, 446, 447, 448, 449, 450, 451, 452, 453, 454, 455, 456, 457, 458, 459, 460, 461, 462, 463, 464, 465, 466, 467, 468, 469, 470, 471, 472, 473, 474, 475, 476, 477, 478, 479, 480, 481, 482, 483, 484, 485, 486, 487, 488, 489, 490, 491, 492, 493, 494, 495, 496, 497, 498, 499, 500, 501, 502, 503, 504, 505, 506, 507, 508, 509, 510, 511, 512, 513, 514, 515, 516, 517, 518, 519, 520, 521, 522, 523, 524, 525, 526, 527, 528, 529, 530, 531, 532, 533, 534, 535, 536, 537, 538, 539, 540, 541, 542, 543, 544, 545, 546, 547, 548, 549, 550, 551, 552, 553, 554, 555, 556, 557, 558, 559, 560, 561, 562, 563, 564, 565, 566, 567, 568, 569, 570, 571, 572, 573, 574, 575, 576, 577, 578, 579, 580, 581, 582, 583, 584, 585, 586, 587, 588, 589, 590, 591, 592, 593, 594, 595, 596, 597, 598, 599, 600, 601, 602, 603, 604, 605, 606, 607, 608, 609, 610, 611, 612, 613, 614, 615, 616, 617, 618, 619, 620, 621, 622, 623, 624, 625, 626, 627, 628, 629, 630, 631, 632, 633, 634, 635, 636, 637, 638, 639, 640, 641, 642, 643, 644, 645, 646, 647, 648, 649, 650, 651, 652, 653, 654, 655, 656, 657, 658, 659, 660, 661, 662, 663, 664, 665, 666, 667, 668, 669, 670, 671, 672, 673, 674, 675, 676, 677, 678, 679, 680, 681, 682, 683, 684, 685, 686, 687, 688, 689, 690, 691, 692, 693, 694, 695, 696, 697, 698, 699, 700, 701, 702, 703, 704, 705, 706, 707, 708, 709, 710, 711, 712, 713, 714, 715, 716, 717, 718, 719, 720, 721, 722, 723, 724, 725, 726, 727, 728, 729, 730, 731, 732, 733, 734, 735, 736, 737, 738, 739, 740, 741, 742, 743, 744, 745, 746, 747, 748, 749, 750, 751, 752, 753, 754, 755, 756, 757, 758, 759, 760, 761, 762, 763, 764, 765, 766, 767, 768, 769, 770, 771, 772, 773, 774, 775, 776, 777, 778, 779, 780, 781, 782, 783, 784, 785, 786, 787, 788, 789, 790, 791, 792, 793, 794, 795, 796, 797, 798, 799, 800, 801, 802, 803, 804, 805, 806, 807, 808, 809, 810, 811, 812, 813, 814, 815, 816, 817, 818, 819, 820, 821, 822, 823, 824, 825, 826, 827, 828, 829, 830, 831, 832, 833, 834, 835, 836, 837, 838, 839, 840, 841, 842, 843, 844, 845, 846, 847, 848, 849, 850, 851, 852, 853, 854, 855, 856, 857, 858, 859, 860, 861, 862, 863, 864, 865, 866, 867, 868, 869, 870, 871, 872],
      "AcquisitionTime": ["173906.497500", "173906.957500", "173907.417500", "173907.877500", "173908.337500", "173908.797500", "173909.257500", "173909.717500", "173910.177500", "173910.637500", "173911.097500", "173911.557500", "173912.017500", "173912.477500", "173912.937500", "173913.397500", "173913.857500", "173914.317500", "173914.777500", "173915.237500", "173915.697500", "173916.157500", "173916.617500", "173917.077500", "173917.537500", "173917.997500", "173918.457500", "173918.917500", "173919.377500", "173919.837500", "173920.297500", "173920.757500", "173921.217500", "173921.677500", "173922.137500", "173922.597500", "173923.057500", "173923.517500", "173923.977500", "173924.437500", "173924.897500", "173925.357500", "173925.817500", "173926.277500", "173926.737500", "173927.197500", "173927.657500", "173928.117500", "173928.577500", "173929.037500", "173929.497500", "173929.957500", "173930.417500", "173930.877500", "173931.337500", "173931.797500", "173932.257500", "173932.717500", "173933.177500", "173933.637500", "173934.097500", "173934.557500", "173935.017500", "173935.477500", "173935.937500", "173936.397500", "173936.857500", "173937.317500", "173937.777500", "173938.237500", "173938.697500", "173939.157500", "173939.617500", "173940.077500", "173940.537500", "173940.997500", "173941.457500", "173941.917500", "173942.377500", "173942.837500", "173943.297500", "173943.757500", "173944.217500", "173944.677500", "173945.137500", "173945.597500", "173946.057500", "173946.517500", "173946.977500", "173947.437500", "173947.897500", "173948.357500", "173948.817500", "173949.277500", "173949.737500", "173950.197500", "173950.657500", "173951.117500", "173951.577500", "173952.037500", "173952.497500", "173952.957500", "173953.417500", "173953.877500", "173954.337500", "173954.797500", "173955.257500", "173955.717500", "173956.177500", "173956.637500", "173957.097500", "173957.557500", "173958.017500", "173958.477500", "173958.937500", "173959.397500", "173959.857500", "174000.317500", "174000.777500", "174001.237500", "174001.697500", "174002.157500", "174002.617500", "174003.077500", "174003.537500", "174003.997500", "174004.457500", "174004.917500", "174005.377500", "174005.837500", "174006.297500", "174006.757500", "174007.217500", "174007.677500", "174008.137500", "174008.597500", "174009.057500", "174009.517500", "174009.977500", "174010.437500", "174010.897500", "174011.357500", "174011.817500", "174012.277500", "174012.737500", "174013.197500", "174013.657500", "174014.117500", "174014.577500", "174015.037500", "174015.497500", "174015.957500", "174016.417500", "174016.877500", "174017.337500", "174017.797500", "174018.257500", "174018.717500", "174019.177500", "174019.637500", "174020.097500", "174020.557500", "174021.017500", "174021.477500", "174021.937500", "174022.397500", "174022.857500", "174023.317500", "174023.777500", "174024.237500", "174024.697500", "174025.157500", "174025.617500", "174026.077500", "174026.537500", "174026.997500", "174027.457500", "174027.917500", "174028.377500", "174028.837500", "174029.297500", "174029.757500", "174030.217500", "174030.677500", "174031.137500", "174031.597500", "174032.057500", "174032.517500", "174032.977500", "174033.437500", "174033.897500", "174034.357500", "174034.817500", "174035.277500", "174035.737500", "174036.197500", "174036.657500", "174037.117500", "174037.577500", "174038.037500", "174038.497500", "174038.957500", "174039.417500", "174039.877500", "174040.337500", "174040.797500", "174041.257500", "174041.717500", "174042.177500", "174042.637500", "174043.097500", "174043.557500", "174044.017500", "174044.477500", "174044.937500", "174045.397500", "174045.857500", "174046.317500", "174046.777500", "174047.237500", "174047.697500", "174048.157500", "174048.617500", "174049.077500", "174049.537500", "174049.997500", "174050.457500", "174050.917500", "174051.377500", "174051.837500", "174052.297500", "174052.757500", "174053.217500", "174053.677500", "174054.137500", "174054.597500", "174055.057500", "174055.517500", "174055.977500", "174056.437500", "174056.897500", "174057.357500", "174057.817500", "174058.277500", "174058.737500", "174059.197500", "174059.657500", "174100.117500", "174100.577500", "174101.037500", "174101.497500", "174101.957500", "174102.417500", "174102.877500", "174103.337500", "174103.797500", "174104.257500", "174104.717500", "174105.177500", "174105.637500", "174106.097500", "174106.557500", "174107.017500", "174107.477500", "174107.937500", "174108.397500", "174108.857500", "174109.317500", "174109.777500", "174110.237500", "174110.697500", "174111.157500", "174111.617500", "174112.077500", "174112.537500", "174112.997500", "174113.457500", "174113.917500", "174114.377500", "174114.837500", "174115.297500", "174115.757500", "174116.217500", "174116.677500", "174117.137500", "174117.597500", "174118.057500", "174118.517500", "174118.977500", "174119.437500", "174119.897500", "174120.357500", "174120.817500", "174121.277500", "174121.737500", "174122.197500", "174122.657500", "174123.117500", "174123.577500", "174124.037500", "174124.497500", "174124.957500", "174125.417500", "174125.877500", "174126.337500", "174126.797500", "174127.257500", "174127.717500", "174128.177500", "174128.637500", "174129.097500", "174129.557500", "174130.017500", "174130.477500", "174130.937500", "174131.397500", "174131.857500", "174132.317500", "174132.777500", "174133.237500", "174133.697500", "174134.157500", "174134.617500", "174135.077500", "174135.537500", "174135.997500", "174136.457500", "174136.917500", "174137.377500", "174137.837500", "174138.297500", "174138.757500", "174139.217500", "174139.677500", "174140.137500", "174140.597500", "174141.057500", "174141.517500", "174141.977500", "174142.437500", "174142.897500", "174143.357500", "174143.817500", "174144.277500", "174144.737500", "174145.197500", "174145.657500", "174146.117500", "174146.577500", "174147.037500", "174147.497500", "174147.957500", "174148.417500", "174148.877500", "174149.337500", "174149.797500", "174150.257500", "174150.717500", "174151.177500", "174151.637500", "174152.097500", "174152.557500", "174153.017500", "174153.477500", "174153.937500", "174154.397500", "174154.857500", "174155.317500", "174155.777500", "174156.237500", "174156.697500", "174157.157500", "174157.617500", "174158.077500", "174158.537500", "174158.997500", "174159.457500", "174159.917500", "174200.377500", "174200.837500", "174201.297500", "174201.757500", "174202.217500", "174202.677500", "174203.137500", "174203.597500", "174204.057500", "174204.517500", "174204.977500", "174205.437500", "174205.897500", "174206.357500", "174206.817500", "174207.277500", "174207.737500", "174208.197500", "174208.657500", "174209.117500", "174209.577500", "174210.037500", "174210.497500", "174210.957500", "174211.417500", "174211.877500", "174212.337500", "174212.797500", "174213.257500", "174213.717500", "174214.177500", "174214.637500", "174215.097500", "174215.557500", "174216.017500", "174216.477500", "174216.937500", "174217.397500", "174217.857500", "174218.317500", "174218.777500", "174219.237500", "174219.697500", "174220.157500", "174220.617500", "174221.077500", "174221.537500", "174221.997500", "174222.457500", "174222.917500", "174223.377500", "174223.837500", "174224.297500", "174224.757500", "174225.217500", "174225.677500", "174226.137500", "174226.597500", "174227.057500", "174227.517500", "174227.977500", "174228.437500", "174228.897500", "174229.357500", "174229.817500", "174230.277500", "174230.737500", "174231.197500", "174231.657500", "174232.117500", "174232.577500", "174233.037500", "174233.497500", "174233.957500", "174234.417500", "174234.877500", "174235.337500", "174235.797500", "174236.257500", "174236.717500", "174237.177500", "174237.637500", "174238.097500", "174238.557500", "174239.017500", "174239.477500", "174239.937500", "174240.397500", "174240.857500", "174241.317500", "174241.777500", "174242.237500", "174242.697500", "174243.157500", "174243.617500", "174244.077500", "174244.537500", "174244.997500", "174245.457500", "174245.917500", "174246.377500", "174246.837500", "174247.297500", "174247.757500", "174248.217500", "174248.677500", "174249.137500", "174249.597500", "174250.057500", "174250.517500", "174250.977500", "174251.437500", "174251.897500", "174252.357500", "174252.817500", "174253.277500", "174253.737500", "174254.197500", "174254.657500", "174255.117500", "174255.577500", "174256.037500", "174256.497500", "174256.957500", "174257.417500", "174257.877500", "174258.337500", "174258.797500", "174259.257500", "174259.717500", "174300.177500", "174300.637500", "174301.097500", "174301.557500", "174302.017500", "174302.477500", "174302.937500", "174303.397500", "174303.857500", "174304.317500", "174304.777500", "174305.237500", "174305.697500", "174306.157500", "174306.617500", "174307.077500", "174307.537500", "174307.997500", "174308.457500", "174308.917500", "174309.377500", "174309.837500", "174310.297500", "174310.757500", "174311.217500", "174311.677500", "174312.137500", "174312.597500", "174313.057500", "174313.517500", "174313.977500", "174314.437500", "174314.897500", "174315.357500", "174315.817500", "174316.277500", "174316.737500", "174317.197500", "174317.657500", "174318.117500", "174318.577500", "174319.037500", "174319.497500", "174319.957500", "174320.417500", "174320.877500", "174321.337500", "174321.797500", "174322.257500", "174322.717500", "174323.177500", "174323.637500", "174324.097500", "174324.557500", "174325.017500", "174325.477500", "174325.937500", "174326.397500", "174326.857500", "174327.317500", "174327.777500", "174328.237500", "174328.697500", "174329.157500", "174329.617500", "174330.077500", "174330.537500", "174330.997500", "174331.457500", "174331.917500", "174332.377500", "174332.837500", "174333.297500", "174333.757500", "174334.217500", "174334.677500", "174335.137500", "174335.597500", "174336.057500", "174336.517500", "174336.977500", "174337.437500", "174337.897500", "174338.357500", "174338.817500", "174339.277500", "174339.737500", "174340.197500", "174340.657500", "174341.117500", "174341.577500", "174342.037500", "174342.497500", "174342.957500", "174343.417500", "174343.877500", "174344.337500", "174344.797500", "174345.257500", "174345.717500", "174346.177500", "174346.637500", "174347.097500", "174347.557500", "174348.017500", "174348.477500", "174348.937500", "174349.397500", "174349.857500", "174350.317500", "174350.777500", "174351.237500", "174351.697500", "174352.157500", "174352.617500", "174353.077500", "174353.537500", "174353.997500", "174354.457500", "174354.917500", "174355.377500", "174355.837500", "174356.297500", "174356.757500", "174357.217500", "174357.677500", "174358.137500", "174358.597500", "174359.057500", "174359.517500", "174359.977500", "174400.437500", "174400.897500", "174401.357500", "174401.817500", "174402.277500", "174402.737500", "174403.197500", "174403.657500", "174404.117500", "174404.577500", "174405.037500", "174405.497500", "174405.957500", "174406.417500", "174406.877500", "174407.337500", "174407.797500", "174408.257500", "174408.717500", "174409.177500", "174409.637500", "174410.097500", "174410.557500", "174411.017500", "174411.477500", "174411.937500", "174412.397500", "174412.857500", "174413.317500", "174413.777500", "174414.237500", "174414.697500", "174415.157500", "174415.617500", "174416.077500", "174416.537500", "174416.997500", "174417.457500", "174417.917500", "174418.377500", "174418.837500", "174419.297500", "174419.757500", "174420.217500", "174420.677500", "174421.137500", "174421.597500", "174422.057500", "174422.517500", "174422.977500", "174423.437500", "174423.897500", "174424.357500", "174424.817500", "174425.277500", "174425.737500", "174426.197500", "174426.657500", "174427.117500", "174427.577500", "174428.037500", "174428.497500", "174428.957500", "174429.417500", "174429.877500", "174430.337500", "174430.797500", "174431.257500", "174431.717500", "174432.177500", "174432.637500", "174433.097500", "174433.557500", "174434.017500", "174434.477500", "174434.937500", "174435.397500", "174435.857500", "174436.317500", "174436.777500", "174437.237500", "174437.697500", "174438.157500", "174438.617500", "174439.077500", "174439.537500", "174439.997500", "174440.457500", "174440.917500", "174441.377500", "174441.837500", "174442.297500", "174442.757500", "174443.217500", "174443.677500", "174444.137500", "174444.597500", "174445.057500", "174445.517500", "174445.977500", "174446.437500", "174446.897500", "174447.357500", "174447.817500", "174448.277500", "174448.737500", "174449.197500", "174449.657500", "174450.117500", "174450.577500", "174451.037500", "174451.497500", "174451.957500", "174452.417500", "174452.877500", "174453.337500", "174453.797500", "174454.257500", "174454.717500", "174455.177500", "174455.637500", "174456.097500", "174456.557500", "174457.017500", "174457.477500", "174457.937500", "174458.397500", "174458.857500", "174459.317500", "174459.777500", "174500.237500", "174500.697500", "174501.157500", "174501.617500", "174502.077500", "174502.537500", "174502.997500", "174503.457500", "174503.917500", "174504.377500", "174504.837500", "174505.297500", "174505.757500", "174506.217500", "174506.677500", "174507.137500", "174507.597500", "174508.057500", "174508.517500", "174508.977500", "174509.437500", "174509.897500", "174510.357500", "174510.817500", "174511.277500", "174511.737500", "174512.197500", "174512.657500", "174513.117500", "174513.577500", "174514.037500", "174514.497500", "174514.957500", "174515.417500", "174515.877500", "174516.337500", "174516.797500", "174517.257500", "174517.717500", "174518.177500", "174518.637500", "174519.097500", "174519.557500", "174520.017500", "174520.477500", "174520.937500", "174521.397500", "174521.857500", "174522.317500", "174522.777500", "174523.237500", "174523.697500", "174524.157500", "174524.617500", "174525.077500", "174525.537500", "174525.997500", "174526.457500", "174526.917500", "174527.377500", "174527.837500", "174528.297500", "174528.757500", "174529.217500", "174529.677500", "174530.137500", "174530.597500", "174531.057500", "174531.517500", "174531.977500", "174532.437500", "174532.897500", "174533.357500", "174533.817500", "174534.277500", "174534.737500", "174535.197500", "174535.657500", "174536.117500", "174536.577500", "174537.037500", "174537.497500", "174537.957500", "174538.417500", "174538.877500", "174539.337500", "174539.797500", "174540.257500", "174540.717500", "174541.177500", "174541.637500", "174542.097500", "174542.557500", "174543.017500", "174543.477500", "174543.937500", "174544.397500", "174544.857500", "174545.317500", "174545.777500", "174546.237500", "174546.697500", "174547.157500"],
