{
  "AcquisitionMatrixPE": 82,
  "AcquisitionNumber": 1,
  "AcquisitionTime": "17:00:59.947500",
  "BandwidthPerPixelPhaseEncode": 24.888,
  "BaseResolution": 82,
  "BodyPartExamined": "BRAIN",
  "ConsistencyInfo": "N4_VE11C_LATEST_20160120",
  "ConversionSoftware": "dcm2niix",
  "ConversionSoftwareVersion": "v1.0.20201102",
  "DerivedVendorReportedEchoSpacing": 0.00049,
  "DeviceSerialNumber": "66112",
  "DwellTime": 2e-06,
  "EchoTime": 0.0272,
  "EchoTrainLength": 82,
  "EffectiveEchoSpacing": 0.00049,
  "FlipAngle": 44,
  "ImageComments": "Unaliased MB8/PE3",
  "ImageOrientationPatientDICOM": [0.999139, 0.0296882, 0.028968, -0.034367, 0.983547, 0.177355],
  "ImageType": [
    "ORIGINAL",
    "PRIMARY",
    "M",
    "MB",
    "ND",
    "NORM",
    "MOSAIC"
],
  "ImagingFrequency": 123.252,
  "InPlanePhaseEncodingDirectionDICOM": "COL",
  "InstitutionAddress": "Maynard 3,Hanover,NH,US,03755",
  "InstitutionName": "Dartmouth College - PBS",
  "InstitutionalDepartmentName": "Department",
  "MRAcquisitionType": "2D",
  "MagneticFieldStrength": 3,
  "Manufacturer": "Siemens",
  "ManufacturersModelName": "Prisma",
  "Modality": "MR",
  "MultibandAccelerationFactor": 8,
  "PartialFourier": 1,
  "PatientPosition": "HFS",
  "PercentPhaseFOV": 100,
  "PercentSampling": 100,
  "PhaseEncodingDirection": "j-",
  "PhaseEncodingSteps": 82,
  "PhaseResolution": 1,
  "PixelBandwidth": 3050,
  "ProcedureStepDescription": "Wager_Wager^1076_spacetop",
  "ProtocolName": "func_run-01_task-social_acq-ap-mb8",
  "PulseSequenceDetails": "%CustomerSeq%\\cmrr_mbep2d_bold",
  "ReceiveCoilActiveElements": "HEA;HEP",
  "ReceiveCoilName": "Head_32",
  "ReconMatrixPE": 82,
  "RepetitionTime": 0.46,
  "SAR": 0.1123,
  "ScanOptions": "FS",
  "ScanningSequence": "EP",
  "SequenceName": "epfid2d1_82",
  "SequenceVariant": "SK\\SS",
  "SeriesDescription": "func_run-01_task-social_acq-ap-mb8",
  "SeriesNumber": 12,
  "ShimSetting": [4141, -7797, -7162, 627, -54, -248, 24, 67],
  "SliceThickness": 2.7,
  "SliceTiming": [0, 0.2525, 0.0625, 0.315, 0.1275, 0.3775, 0.19, 0, 0.2525, 0.0625, 0.315, 0.1275, 0.3775, 0.19, 0, 0.2525, 0.0625, 0.315, 0.1275, 0.3775, 0.19, 0, 0.2525, 0.0625, 0.315, 0.1275, 0.3775, 0.19, 0, 0.2525, 0.0625, 0.315, 0.1275, 0.3775, 0.19, 0, 0.2525, 0.0625, 0.315, 0.1275, 0.3775, 0.19, 0, 0.2525, 0.0625, 0.315, 0.1275, 0.3775, 0.19, 0, 0.2525, 0.0625, 0.315, 0.1275, 0.3775, 0.19],
  "SoftwareVersions": "syngo MR E11",
  "SpacingBetweenSlices": 2.7,
  "StationName": "AWP66112",
  "TaskName": "social",
  "TotalReadoutTime": 0.03969,
  "TxRefAmp": 246.53,
  "WipMemBlock": "be96bae6-3c4c-4056-8bd5-61f55da59c7f||Sequence: R016 ve11c/master r/e634e98; Dec 19 2017 11:00:25 by eja",
  "dcmmeta_affine": [
    [-2.6806178092956543, -0.0922040343284607, 0.0627102255821228, 114.46920013427734],
    [-0.07965133339166641, 2.6387836933135986, 0.48113515973091125, -101.5967788696289],
    [0.07771901041269302, -0.4758313000202179, 2.6560451984405518, -15.56764030456543],
    [0.0, 0.0, 0.0, 1.0]
],
  "dcmmeta_reorient_transform": [
    [0.0, -1.0, 0.0, 81.0],
    [1.0, 0.0, 0.0, 0.0],
    [0.0, 0.0, 1.0, 0.0],
    [0.0, 0.0, 0.0, 1.0]
],
  "dcmmeta_shape": [82, 82, 56, 872],
  "dcmmeta_slice_dim": 2,
  "dcmmeta_version": 0.6,
  "global": {
    "const": {
      "AccessionNumber": "A003794",
      "AcquisitionMatrix": [82, 0, 0, 82],
      "AngioFlag": "N",
      "BitsAllocated": 16,
      "BitsStored": 16,
      "BodyPartExamined": "BRAIN",
      "Columns": 656,
      "EchoNumbers": 1,
      "EchoTime": 27.2,
      "EchoTrainLength": 82,
      "FlipAngle": 44.0,
      "HighBit": 15,
      "ImageOrientationPatient": [0.99913936194753, 0.02968822420318, 0.02896799528357, -0.0343669584627, 0.98354664815248, 0.17735530179289],
      "ImagePositionPatient": [-849.87544198106, -892.33557435469, -212.97891920827],
      "ImageType": [
        "ORIGINAL",
        "PRIMARY",
        "M",
        "MB",
        "ND",
        "NORM",
        "MOSAIC"
],
      "ImagedNucleus": "1H",
      "ImagingFrequency": 123.252147,
      "InPlanePhaseEncodingDirection": "COL",
      "MRAcquisitionType": "2D",
      "MagneticFieldStrength": 3.0,
      "Manufacturer": "SIEMENS",
      "ManufacturerModelName": "Prisma",
      "Modality": "MR",
      "NumberOfAverages": 1.0,
      "NumberOfPhaseEncodingSteps": 82,
      "PercentPhaseFieldOfView": 100.0,
      "PercentSampling": 100.0,
      "PerformedProcedureStepStartTime": "163236.273000",
      "PhotometricInterpretation": "MONOCHROME2",
      "PixelBandwidth": 3050.0,
      "PixelRepresentation": 0,
      "PixelSpacing": [2.6829268932343, 2.6829268932343],
      "ProtocolName": "func_run-01_task-social_acq-ap-mb8",
      "RepetitionTime": 460.0,
      "Rows": 656,
      "SAR": 0.11230023424359,
      "SamplesPerPixel": 1,
      "ScanOptions": "FS",
      "ScanningSequence": "EP",
      "SequenceName": "epfid2d1_82",
      "SequenceVariant": [
        "SK",
        "SS"
],
      "SeriesDescription": "func_run-01_task-social_acq-ap-mb8",
      "SeriesNumber": 12,
      "SeriesTime": "170126.199000",
      "SliceLocation": -30.759907637106,
      "SliceThickness": 2.7000000476837,
      "SmallestImagePixelValue": 0,
      "SoftwareVersions": "syngo MR E11",
      "SpacingBetweenSlices": 2.6999999999781,
      "SpecificCharacterSet": "ISO_IR 100",
      "StudyID": "1",
      "StudyTime": "163236.158000",
      "TransmitCoilName": "Body",
      "VariableFlipAngleFlag": "N",
      "WindowCenterWidthExplanation": "Algo1",
      "dBdt": 0.0},
    "slices": {}
  },
  "time": {
    "samples": {
      "AcquisitionNumber": [1, 2, 3, 4, 5, 6, 7, 8, 9, 10, 11, 12, 13, 14, 15, 16, 17, 18, 19, 20, 21, 22, 23, 24, 25, 26, 27, 28, 29, 30, 31, 32, 33, 34, 35, 36, 37, 38, 39, 40, 41, 42, 43, 44, 45, 46, 47, 48, 49, 50, 51, 52, 53, 54, 55, 56, 57, 58, 59, 60, 61, 62, 63, 64, 65, 66, 67, 68, 69, 70, 71, 72, 73, 74, 75, 76, 77, 78, 79, 80, 81, 82, 83, 84, 85, 86, 87, 88, 89, 90, 91, 92, 93, 94, 95, 96, 97, 98, 99, 100, 101, 102, 103, 104, 105, 106, 107, 108, 109, 110, 111, 112, 113, 114, 115, 116, 117, 118, 119, 120, 121, 122, 123, 124, 125, 126, 127, 128, 129, 130, 131, 132, 133, 134, 135, 136, 137, 138, 139, 140, 141, 142, 143, 144, 145, 146, 147, 148, 149, 150, 151, 152, 153, 154, 155, 156, 157, 158, 159, 160, 161, 162, 163, 164, 165, 166, 167, 168, 169, 170, 171, 172, 173, 174, 175, 176, 177, 178, 179, 180, 181, 182, 183, 184, 185, 186, 187, 188, 189, 190, 191, 192, 193, 194, 195, 196, 197, 198, 199, 200, 201, 202, 203, 204, 205, 206, 207, 208, 209, 210, 211, 212, 213, 214, 215, 216, 217, 218, 219, 220, 221, 222, 223, 224, 225, 226, 227, 228, 229, 230, 231, 232, 233, 234, 235, 236, 237, 238, 239, 240, 241, 242, 243, 244, 245, 246, 247, 248, 249, 250, 251, 252, 253, 254, 255, 256, 257, 258, 259, 260, 261, 262, 263, 264, 265, 266, 267, 268, 269, 270, 271, 272, 273, 274, 275, 276, 277, 278, 279, 280, 281, 282, 283, 284, 285, 286, 287, 288, 289, 290, 291, 292, 293, 294, 295, 296, 297, 298, 299, 300, 301, 302, 303, 304, 305, 306, 307, 308, 309, 310, 311, 312, 313, 314, 315, 316, 317, 318, 319, 320, 321, 322, 323, 324, 325, 326, 327, 328, 329, 330, 331, 332, 333, 334, 335, 336, 337, 338, 339, 340, 341, 342, 343, 344, 345, 346, 347, 348, 349, 350, 351, 352, 353, 354, 355, 356, 357, 358, 359, 360, 361, 362, 363, 364, 365, 366, 367, 368, 369, 370, 371, 372, 373, 374, 375, 376, 377, 378, 379, 380, 381, 382, 383, 384, 385, 386, 387, 388, 389, 390, 391, 392, 393, 394, 395, 396, 397, 398, 399, 400, 401, 402, 403, 404, 405, 406, 407, 408, 409, 410, 411, 412, 413, 414, 415, 416, 417, 418, 419, 420, 421, 422, 423, 424, 425, 426, 427, 428, 429, 430, 431, 432, 433, 434, 435, 436, 437, 438, 439, 440, 441, 442, 443, 444, 445, 446, 447, 448, 449, 450, 451, 452, 453, 454, 455, 456, 457, 458, 459, 460, 461, 462, 463, 464, 465, 466, 467, 468, 469, 470, 471, 472, 473, 474, 475, 476, 477, 478, 479, 480, 481, 482, 483, 484, 485, 486, 487, 488, 489, 490, 491, 492, 493, 494, 495, 496, 497, 498, 499, 500, 501, 502, 503, 504, 505, 506, 507, 508, 509, 510, 511, 512, 513, 514, 515, 516, 517, 518, 519, 520, 521, 522, 523, 524, 525, 526, 527, 528, 529, 530, 531, 532, 533, 534, 535, 536, 537, 538, 539, 540, 541, 542, 543, 544, 545, 546, 547, 548, 549, 550, 551, 552, 553, 554, 555, 556, 557, 558, 559, 560, 561, 562, 563, 564, 565, 566, 567, 568, 569, 570, 571, 572, 573, 574, 575, 576, 577, 578, 579, 580, 581, 582, 583, 584, 585, 586, 587, 588, 589, 590, 591, 592, 593, 594, 595, 596, 597, 598, 599, 600, 601, 602, 603, 604, 605, 606, 607, 608, 609, 610, 611, 612, 613, 614, 615, 616, 617, 618, 619, 620, 621, 622, 623, 624, 625, 626, 627, 628, 629, 630, 631, 632, 633, 634, 635, 636, 637, 638, 639, 640, 641, 642, 643, 644, 645, 646, 647, 648, 649, 650, 651, 652, 653, 654, 655, 656, 657, 658, 659, 660, 661, 662, 663, 664, 665, 666, 667, 668, 669, 670, 671, 672, 673, 674, 675, 676, 677, 678, 679, 680, 681, 682, 683, 684, 685, 686, 687, 688, 689, 690, 691, 692, 693, 694, 695, 696, 697, 698, 699, 700, 701, 702, 703, 704, 705, 706, 707, 708, 709, 710, 711, 712, 713, 714, 715, 716, 717, 718, 719, 720, 721, 722, 723, 724, 725, 726, 727, 728, 729, 730, 731, 732, 733, 734, 735, 736, 737, 738, 739, 740, 741, 742, 743, 744, 745, 746, 747, 748, 749, 750, 751, 752, 753, 754, 755, 756, 757, 758, 759, 760, 761, 762, 763, 764, 765, 766, 767, 768, 769, 770, 771, 772, 773, 774, 775, 776, 777, 778, 779, 780, 781, 782, 783, 784, 785, 786, 787, 788, 789, 790, 791, 792, 793, 794, 795, 796, 797, 798, 799, 800, 801, 802, 803, 804, 805, 806, 807, 808, 809, 810, 811, 812, 813, 814, 815, 816, 817, 818, 819, 820, 821, 822, 823, 824, 825, 826, 827, 828, 829, 830, 831, 832, 833, 834, 835, 836, 837, 838, 839, 840, 841, 842, 843, 844, 845, 846, 847, 848, 849, 850, 851, 852, 853, 854, 855, 856, 857, 858, 859, 860, 861, 862, 863, 864, 865, 866, 867, 868, 869, 870, 871, 872],
      "AcquisitionTime": ["170059.947500", "170100.407500", "170100.867500", "170101.327500", "170101.787500", "170102.247500", "170102.707500", "170103.167500", "170103.627500", "170104.087500", "170104.547500", "170105.007500", "170105.467500", "170105.927500", "170106.387500", "170106.847500", "170107.307500", "170107.767500", "170108.227500", "170108.687500", "170109.147500", "170109.607500", "170110.067500", "170110.527500", "170110.987500", "170111.447500", "170111.907500", "170112.367500", "170112.827500", "170113.287500", "170113.747500", "170114.207500", "170114.667500", "170115.127500", "170115.587500", "170116.047500", "170116.507500", "170116.967500", "170117.427500", "170117.887500", "170118.347500", "170118.807500", "170119.267500", "170119.727500", "170120.187500", "170120.647500", "170121.107500", "170121.567500", "170122.027500", "170122.487500", "170122.947500", "170123.407500", "170123.867500", "170124.327500", "170124.787500", "170125.247500", "170125.707500", "170126.167500", "170126.627500", "170127.087500", "170127.547500", "170128.007500", "170128.467500", "170128.927500", "170129.387500", "170129.847500", "170130.307500", "170130.767500", "170131.227500", "170131.687500", "170132.147500", "170132.607500", "170133.067500", "170133.527500", "170133.987500", "170134.447500", "170134.907500", "170135.367500", "170135.827500", "170136.287500", "170136.747500", "170137.207500", "170137.667500", "170138.127500", "170138.587500", "170139.047500", "170139.507500", "170139.967500", "170140.427500", "170140.887500", "170141.347500", "170141.807500", "170142.267500", "170142.727500", "170143.187500", "170143.647500", "170144.107500", "170144.567500", "170145.027500", "170145.487500", "170145.947500", "170146.407500", "170146.867500", "170147.327500", "170147.787500", "170148.247500", "170148.707500", "170149.167500", "170149.627500", "170150.087500", "170150.547500", "170151.007500", "170151.467500", "170151.927500", "170152.387500", "170152.847500", "170153.307500", "170153.767500", "170154.227500", "170154.687500", "170155.147500", "170155.607500", "170156.067500", "170156.527500", "170156.987500", "170157.447500", "170157.907500", "170158.367500", "170158.827500", "170159.287500", "170159.747500", "170200.207500", "170200.667500", "170201.127500", "170201.587500", "170202.047500", "170202.507500", "170202.967500", "170203.427500", "170203.887500", "170204.347500", "170204.807500", "170205.267500", "170205.727500", "170206.187500", "170206.647500", "170207.107500", "170207.567500", "170208.027500", "170208.487500", "170208.947500", "170209.407500", "170209.867500", "170210.327500", "170210.787500", "170211.247500", "170211.707500", "170212.167500", "170212.627500", "170213.087500", "170213.547500", "170214.007500", "170214.467500", "170214.927500", "170215.387500", "170215.847500", "170216.307500", "170216.767500", "170217.227500", "170217.687500", "170218.147500", "170218.607500", "170219.067500", "170219.527500", "170219.987500", "170220.447500", "170220.907500", "170221.367500", "170221.827500", "170222.287500", "170222.747500", "170223.207500", "170223.667500", "170224.127500", "170224.587500", "170225.047500", "170225.507500", "170225.967500", "170226.427500", "170226.887500", "170227.347500", "170227.807500", "170228.267500", "170228.727500", "170229.187500", "170229.647500", "170230.107500", "170230.567500", "170231.027500", "170231.487500", "170231.947500", "170232.407500", "170232.867500", "170233.327500", "170233.787500", "170234.247500", "170234.707500", "170235.167500", "170235.627500", "170236.087500", "170236.547500", "170237.007500", "170237.467500", "170237.927500", "170238.387500", "170238.847500", "170239.307500", "170239.767500", "170240.227500", "170240.687500", "170241.147500", "170241.607500", "170242.067500", "170242.527500", "170242.987500", "170243.447500", "170243.907500", "170244.367500", "170244.827500", "170245.287500", "170245.747500", "170246.207500", "170246.667500", "170247.127500", "170247.587500", "170248.047500", "170248.507500", "170248.967500", "170249.427500", "170249.887500", "170250.347500", "170250.807500", "170251.267500", "170251.727500", "170252.187500", "170252.647500", "170253.107500", "170253.567500", "170254.027500", "170254.487500", "170254.947500", "170255.407500", "170255.867500", "170256.327500", "170256.787500", "170257.247500", "170257.707500", "170258.167500", "170258.627500", "170259.087500", "170259.547500", "170300.007500", "170300.467500", "170300.927500", "170301.387500", "170301.847500", "170302.307500", "170302.767500", "170303.227500", "170303.687500", "170304.147500", "170304.607500", "170305.067500", "170305.527500", "170305.987500", "170306.447500", "170306.907500", "170307.367500", "170307.827500", "170308.287500", "170308.747500", "170309.207500", "170309.667500", "170310.127500", "170310.587500", "170311.047500", "170311.507500", "170311.967500", "170312.427500", "170312.887500", "170313.347500", "170313.807500", "170314.267500", "170314.727500", "170315.187500", "170315.647500", "170316.107500", "170316.567500", "170317.027500", "170317.487500", "170317.947500", "170318.407500", "170318.867500", "170319.327500", "170319.787500", "170320.247500", "170320.707500", "170321.167500", "170321.627500", "170322.087500", "170322.547500", "170323.007500", "170323.467500", "170323.927500", "170324.387500", "170324.847500", "170325.307500", "170325.767500", "170326.227500", "170326.687500", "170327.147500", "170327.607500", "170328.067500", "170328.527500", "170328.987500", "170329.447500", "170329.907500", "170330.367500", "170330.827500", "170331.287500", "170331.747500", "170332.207500", "170332.667500", "170333.127500", "170333.587500", "170334.047500", "170334.507500", "170334.967500", "170335.427500", "170335.887500", "170336.347500", "170336.807500", "170337.267500", "170337.727500", "170338.187500", "170338.647500", "170339.107500", "170339.567500", "170340.027500", "170340.487500", "170340.947500", "170341.407500", "170341.867500", "170342.327500", "170342.787500", "170343.247500", "170343.707500", "170344.167500", "170344.627500", "170345.087500", "170345.547500", "170346.007500", "170346.467500", "170346.927500", "170347.387500", "170347.847500", "170348.307500", "170348.767500", "170349.227500", "170349.687500", "170350.147500", "170350.607500", "170351.067500", "170351.527500", "170351.987500", "170352.447500", "170352.907500", "170353.367500", "170353.827500", "170354.287500", "170354.747500", "170355.207500", "170355.667500", "170356.127500", "170356.587500", "170357.047500", "170357.507500", "170357.967500", "170358.427500", "170358.887500", "170359.347500", "170359.807500", "170400.267500", "170400.727500", "170401.187500", "170401.647500", "170402.107500", "170402.567500", "170403.027500", "170403.487500", "170403.947500", "170404.407500", "170404.867500", "170405.327500", "170405.787500", "170406.247500", "170406.707500", "170407.167500", "170407.627500", "170408.087500", "170408.547500", "170409.007500", "170409.467500", "170409.927500", "170410.387500", "170410.847500", "170411.307500", "170411.767500", "170412.227500", "170412.687500", "170413.147500", "170413.607500", "170414.067500", "170414.527500", "170414.987500", "170415.447500", "170415.907500", "170416.367500", "170416.827500", "170417.287500", "170417.747500", "170418.207500", "170418.667500", "170419.127500", "170419.587500", "170420.047500", "170420.507500", "170420.967500", "170421.427500", "170421.887500", "170422.347500", "170422.807500", "170423.267500", "170423.727500", "170424.187500", "170424.647500", "170425.107500", "170425.567500", "170426.027500", "170426.487500", "170426.947500", "170427.407500", "170427.867500", "170428.327500", "170428.787500", "170429.247500", "170429.707500", "170430.167500", "170430.627500", "170431.087500", "170431.547500", "170432.007500", "170432.467500", "170432.927500", "170433.387500", "170433.847500", "170434.307500", "170434.767500", "170435.227500", "170435.687500", "170436.147500", "170436.607500", "170437.067500", "170437.527500", "170437.987500", "170438.447500", "170438.907500", "170439.367500", "170439.827500", "170440.287500", "170440.747500", "170441.207500", "170441.667500", "170442.127500", "170442.587500", "170443.047500", "170443.507500", "170443.967500", "170444.427500", "170444.887500", "170445.347500", "170445.807500", "170446.267500", "170446.727500", "170447.187500", "170447.647500", "170448.107500", "170448.567500", "170449.027500", "170449.487500", "170449.947500", "170450.407500", "170450.867500", "170451.327500", "170451.787500", "170452.247500", "170452.707500", "170453.167500", "170453.627500", "170454.087500", "170454.547500", "170455.007500", "170455.467500", "170455.927500", "170456.387500", "170456.847500", "170457.307500", "170457.767500", "170458.227500", "170458.687500", "170459.147500", "170459.607500", "170500.067500", "170500.527500", "170500.987500", "170501.447500", "170501.907500", "170502.367500", "170502.827500", "170503.287500", "170503.747500", "170504.207500", "170504.667500", "170505.127500", "170505.587500", "170506.047500", "170506.507500", "170506.967500", "170507.427500", "170507.887500", "170508.347500", "170508.807500", "170509.267500", "170509.727500", "170510.187500", "170510.647500", "170511.107500", "170511.567500", "170512.027500", "170512.487500", "170512.947500", "170513.407500", "170513.867500", "170514.327500", "170514.787500", "170515.247500", "170515.707500", "170516.167500", "170516.627500", "170517.087500", "170517.547500", "170518.007500", "170518.467500", "170518.927500", "170519.387500", "170519.847500", "170520.307500", "170520.767500", "170521.227500", "170521.687500", "170522.147500", "170522.607500", "170523.067500", "170523.527500", "170523.987500", "170524.447500", "170524.907500", "170525.367500", "170525.827500", "170526.287500", "170526.747500", "170527.207500", "170527.667500", "170528.127500", "170528.587500", "170529.047500", "170529.507500", "170529.967500", "170530.427500", "170530.887500", "170531.347500", "170531.807500", "170532.267500", "170532.727500", "170533.187500", "170533.647500", "170534.107500", "170534.567500", "170535.027500", "170535.487500", "170535.947500", "170536.407500", "170536.867500", "170537.327500", "170537.787500", "170538.247500", "170538.707500", "170539.167500", "170539.627500", "170540.087500", "170540.547500", "170541.007500", "170541.467500", "170541.927500", "170542.387500", "170542.847500", "170543.307500", "170543.767500", "170544.227500", "170544.687500", "170545.147500", "170545.607500", "170546.067500", "170546.527500", "170546.987500", "170547.447500", "170547.907500", "170548.367500", "170548.827500", "170549.287500", "170549.747500", "170550.207500", "170550.667500", "170551.127500", "170551.587500", "170552.047500", "170552.507500", "170552.967500", "170553.427500", "170553.887500", "170554.347500", "170554.807500", "170555.267500", "170555.727500", "170556.187500", "170556.647500", "170557.107500", "170557.567500", "170558.027500", "170558.487500", "170558.947500", "170559.407500", "170559.867500", "170600.327500", "170600.787500", "170601.247500", "170601.707500", "170602.167500", "170602.627500", "170603.087500", "170603.547500", "170604.007500", "170604.467500", "170604.927500", "170605.387500", "170605.847500", "170606.307500", "170606.767500", "170607.227500", "170607.687500", "170608.147500", "170608.607500", "170609.067500", "170609.527500", "170609.987500", "170610.447500", "170610.907500", "170611.367500", "170611.827500", "170612.287500", "170612.747500", "170613.207500", "170613.667500", "170614.127500", "170614.587500", "170615.047500", "170615.507500", "170615.967500", "170616.427500", "170616.887500", "170617.347500", "170617.807500", "170618.267500", "170618.727500", "170619.187500", "170619.647500", "170620.107500", "170620.567500", "170621.027500", "170621.487500", "170621.947500", "170622.407500", "170622.867500", "170623.327500", "170623.787500", "170624.247500", "170624.707500", "170625.167500", "170625.627500", "170626.087500", "170626.547500", "170627.007500", "170627.467500", "170627.927500", "170628.387500", "170628.847500", "170629.307500", "170629.767500", "170630.227500", "170630.687500", "170631.147500", "170631.607500", "170632.067500", "170632.527500", "170632.987500", "170633.447500", "170633.907500", "170634.367500", "170634.827500", "170635.287500", "170635.747500", "170636.207500", "170636.667500", "170637.127500", "170637.587500", "170638.047500", "170638.507500", "170638.967500", "170639.427500", "170639.887500", "170640.347500", "170640.807500", "170641.267500", "170641.727500", "170642.187500", "170642.647500", "170643.107500", "170643.567500", "170644.027500", "170644.487500", "170644.947500", "170645.407500", "170645.867500", "170646.327500", "170646.787500", "170647.247500", "170647.707500", "170648.167500", "170648.627500", "170649.087500", "170649.547500", "170650.007500", "170650.467500", "170650.927500", "170651.387500", "170651.847500", "170652.307500", "170652.767500", "170653.227500", "170653.687500", "170654.147500", "170654.607500", "170655.067500", "170655.527500", "170655.987500", "170656.447500", "170656.907500", "170657.367500", "170657.827500", "170658.287500", "170658.747500", "170659.207500", "170659.667500", "170700.127500", "170700.587500", "170701.047500", "170701.507500", "170701.967500", "170702.427500", "170702.887500", "170703.347500", "170703.807500", "170704.267500", "170704.727500", "170705.187500", "170705.647500", "170706.107500", "170706.567500", "170707.027500", "170707.487500", "170707.947500", "170708.407500", "170708.867500", "170709.327500", "170709.787500", "170710.247500", "170710.707500", "170711.167500", "170711.627500", "170712.087500", "170712.547500", "170713.007500", "170713.467500", "170713.927500", "170714.387500", "170714.847500", "170715.307500", "170715.767500", "170716.227500", "170716.687500", "170717.147500", "170717.607500", "170718.067500", "170718.527500", "170718.987500", "170719.447500", "170719.907500", "170720.367500", "170720.827500", "170721.287500", "170721.747500", "170722.207500", "170722.667500", "170723.127500", "170723.587500", "170724.047500", "170724.507500", "170724.967500", "170725.427500", "170725.887500", "170726.347500", "170726.807500", "170727.267500", "170727.727500", "170728.187500", "170728.647500", "170729.107500", "170729.567500", "170730.027500", "170730.487500", "170730.947500", "170731.407500", "170731.867500", "170732.327500", "170732.787500", "170733.247500", "170733.707500", "170734.167500", "170734.627500", "170735.087500", "170735.547500", "170736.007500", "170736.467500", "170736.927500", "170737.387500", "170737.847500", "170738.307500", "170738.767500", "170739.227500", "170739.687500", "170740.147500", "170740.607500"],
