{
  "AcquisitionMatrixPE": 82,
  "AcquisitionNumber": 1,
  "AcquisitionTime": "17:08:42.775000",
  "BandwidthPerPixelPhaseEncode": 24.888,
  "BaseResolution": 82,
  "BodyPartExamined": "BRAIN",
  "ConsistencyInfo": "N4_VE11C_LATEST_20160120",
  "ConversionSoftware": "dcm2niix",
  "ConversionSoftwareVersion": "v1.0.20201102",
  "DerivedVendorReportedEchoSpacing": 0.00049,
  "DeviceSerialNumber": "66112",
  "DwellTime": 2e-06,
  "EchoTime": 0.0272,
  "EchoTrainLength": 82,
  "EffectiveEchoSpacing": 0.00049,
  "FlipAngle": 44,
  "ImageComments": "Unaliased MB8/PE3",
  "ImageOrientationPatientDICOM": [0.999139, 0.0296882, 0.028968, -0.034367, 0.983547, 0.177355],
  "ImageType": [
    "ORIGINAL",
    "PRIMARY",
    "M",
    "MB",
    "ND",
    "NORM",
    "MOSAIC"
],
  "ImagingFrequency": 123.252,
  "InPlanePhaseEncodingDirectionDICOM": "COL",
  "InstitutionAddress": "Maynard 3,Hanover,NH,US,03755",
  "InstitutionName": "Dartmouth College - PBS",
  "InstitutionalDepartmentName": "Department",
  "MRAcquisitionType": "2D",
  "MagneticFieldStrength": 3,
  "Manufacturer": "Siemens",
  "ManufacturersModelName": "Prisma",
  "Modality": "MR",
  "MultibandAccelerationFactor": 8,
  "PartialFourier": 1,
  "PatientPosition": "HFS",
  "PercentPhaseFOV": 100,
  "PercentSampling": 100,
  "PhaseEncodingDirection": "j-",
  "PhaseEncodingSteps": 82,
  "PhaseResolution": 1,
  "PixelBandwidth": 3050,
  "ProcedureStepDescription": "Wager_Wager^1076_spacetop",
  "ProtocolName": "func_run-02_task-social_acq-ap-mb8",
  "PulseSequenceDetails": "%CustomerSeq%\\cmrr_mbep2d_bold",
  "ReceiveCoilActiveElements": "HEA;HEP",
  "ReceiveCoilName": "Head_32",
  "ReconMatrixPE": 82,
  "RepetitionTime": 0.46,
  "SAR": 0.1123,
  "ScanOptions": "FS",
  "ScanningSequence": "EP",
  "SequenceName": "epfid2d1_82",
  "SequenceVariant": "SK\\SS",
  "SeriesDescription": "func_run-02_task-social_acq-ap-mb8",
  "SeriesNumber": 14,
  "ShimSetting": [4141, -7797, -7162, 627, -54, -248, 24, 67],
  "SliceThickness": 2.7,
  "SliceTiming": [0, 0.2525, 0.0625, 0.315, 0.125, 0.3775, 0.19, 0, 0.2525, 0.0625, 0.315, 0.125, 0.3775, 0.19, 0, 0.2525, 0.0625, 0.315, 0.125, 0.3775, 0.19, 0, 0.2525, 0.0625, 0.315, 0.125, 0.3775, 0.19, 0, 0.2525, 0.0625, 0.315, 0.125, 0.3775, 0.19, 0, 0.2525, 0.0625, 0.315, 0.125, 0.3775, 0.19, 0, 0.2525, 0.0625, 0.315, 0.125, 0.3775, 0.19, 0, 0.2525, 0.0625, 0.315, 0.125, 0.3775, 0.19],
  "SoftwareVersions": "syngo MR E11",
  "SpacingBetweenSlices": 2.7,
  "StationName": "AWP66112",
  "TaskName": "social",
  "TotalReadoutTime": 0.03969,
  "TxRefAmp": 246.53,
  "WipMemBlock": "40cc0fe1-a240-43c3-8050-0b5de0e0c1cb||Sequence: R016 ve11c/master r/e634e98; Dec 19 2017 11:00:25 by eja",
  "dcmmeta_affine": [
    [-2.6806178092956543, -0.0922040343284607, 0.0627102255821228, 114.46920013427734],
    [-0.07965133339166641, 2.6387836933135986, 0.48113515973091125, -101.5967788696289],
    [0.07771901041269302, -0.4758313000202179, 2.6560451984405518, -15.56764030456543],
    [0.0, 0.0, 0.0, 1.0]
],
  "dcmmeta_reorient_transform": [
    [0.0, -1.0, 0.0, 81.0],
    [1.0, 0.0, 0.0, 0.0],
    [0.0, 0.0, 1.0, 0.0],
    [0.0, 0.0, 0.0, 1.0]
],
  "dcmmeta_shape": [82, 82, 56, 872],
  "dcmmeta_slice_dim": 2,
  "dcmmeta_version": 0.6,
  "global": {
    "const": {
      "AccessionNumber": "A003794",
      "AcquisitionMatrix": [82, 0, 0, 82],
      "AngioFlag": "N",
      "BitsAllocated": 16,
      "BitsStored": 16,
      "BodyPartExamined": "BRAIN",
      "Columns": 656,
      "EchoNumbers": 1,
      "EchoTime": 27.2,
      "EchoTrainLength": 82,
      "FlipAngle": 44.0,
      "HighBit": 15,
      "ImageOrientationPatient": [0.99913936194753, 0.02968822420318, 0.02896799528357, -0.0343669584627, 0.98354664815248, 0.17735530179289],
      "ImagePositionPatient": [-849.87544198106, -892.33557435469, -212.97891920827],
      "ImageType": [
        "ORIGINAL",
        "PRIMARY",
        "M",
        "MB",
        "ND",
        "NORM",
        "MOSAIC"
],
      "ImagedNucleus": "1H",
      "ImagingFrequency": 123.252152,
      "InPlanePhaseEncodingDirection": "COL",
      "MRAcquisitionType": "2D",
      "MagneticFieldStrength": 3.0,
      "Manufacturer": "SIEMENS",
      "ManufacturerModelName": "Prisma",
      "Modality": "MR",
      "NumberOfAverages": 1.0,
      "NumberOfPhaseEncodingSteps": 82,
      "PercentPhaseFieldOfView": 100.0,
      "PercentSampling": 100.0,
      "PerformedProcedureStepStartTime": "163236.273000",
      "PhotometricInterpretation": "MONOCHROME2",
      "PixelBandwidth": 3050.0,
      "PixelRepresentation": 0,
      "PixelSpacing": [2.6829268932343, 2.6829268932343],
      "ProtocolName": "func_run-02_task-social_acq-ap-mb8",
      "RepetitionTime": 460.0,
      "Rows": 656,
      "SAR": 0.11230023424359,
      "SamplesPerPixel": 1,
      "ScanOptions": "FS",
      "ScanningSequence": "EP",
      "SequenceName": "epfid2d1_82",
      "SequenceVariant": [
        "SK",
        "SS"
],
      "SeriesDescription": "func_run-02_task-social_acq-ap-mb8",
      "SeriesNumber": 14,
      "SeriesTime": "170906.062000",
      "SliceLocation": -30.759907637106,
      "SliceThickness": 2.7000000476837,
      "SmallestImagePixelValue": 0,
      "SoftwareVersions": "syngo MR E11",
      "SpacingBetweenSlices": 2.6999999999781,
      "SpecificCharacterSet": "ISO_IR 100",
      "StudyID": "1",
      "StudyTime": "163236.158000",
      "TransmitCoilName": "Body",
      "VariableFlipAngleFlag": "N",
      "WindowCenterWidthExplanation": "Algo1",
      "dBdt": 0.0},
    "slices": {}
  },
  "time": {
    "samples": {
      "AcquisitionNumber": [1, 2, 3, 4, 5, 6, 7, 8, 9, 10, 11, 12, 13, 14, 15, 16, 17, 18, 19, 20, 21, 22, 23, 24, 25, 26, 27, 28, 29, 30, 31, 32, 33, 34, 35, 36, 37, 38, 39, 40, 41, 42, 43, 44, 45, 46, 47, 48, 49, 50, 51, 52, 53, 54, 55, 56, 57, 58, 59, 60, 61, 62, 63, 64, 65, 66, 67, 68, 69, 70, 71, 72, 73, 74, 75, 76, 77, 78, 79, 80, 81, 82, 83, 84, 85, 86, 87, 88, 89, 90, 91, 92, 93, 94, 95, 96, 97, 98, 99, 100, 101, 102, 103, 104, 105, 106, 107, 108, 109, 110, 111, 112, 113, 114, 115, 116, 117, 118, 119, 120, 121, 122, 123, 124, 125, 126, 127, 128, 129, 130, 131, 132, 133, 134, 135, 136, 137, 138, 139, 140, 141, 142, 143, 144, 145, 146, 147, 148, 149, 150, 151, 152, 153, 154, 155, 156, 157, 158, 159, 160, 161, 162, 163, 164, 165, 166, 167, 168, 169, 170, 171, 172, 173, 174, 175, 176, 177, 178, 179, 180, 181, 182, 183, 184, 185, 186, 187, 188, 189, 190, 191, 192, 193, 194, 195, 196, 197, 198, 199, 200, 201, 202, 203, 204, 205, 206, 207, 208, 209, 210, 211, 212, 213, 214, 215, 216, 217, 218, 219, 220, 221, 222, 223, 224, 225, 226, 227, 228, 229, 230, 231, 232, 233, 234, 235, 236, 237, 238, 239, 240, 241, 242, 243, 244, 245, 246, 247, 248, 249, 250, 251, 252, 253, 254, 255, 256, 257, 258, 259, 260, 261, 262, 263, 264, 265, 266, 267, 268, 269, 270, 271, 272, 273, 274, 275, 276, 277, 278, 279, 280, 281, 282, 283, 284, 285, 286, 287, 288, 289, 290, 291, 292, 293, 294, 295, 296, 297, 298, 299, 300, 301, 302, 303, 304, 305, 306, 307, 308, 309, 310, 311, 312, 313, 314, 315, 316, 317, 318, 319, 320, 321, 322, 323, 324, 325, 326, 327, 328, 329, 330, 331, 332, 333, 334, 335, 336, 337, 338, 339, 340, 341, 342, 343, 344, 345, 346, 347, 348, 349, 350, 351, 352, 353, 354, 355, 356, 357, 358, 359, 360, 361, 362, 363, 364, 365, 366, 367, 368, 369, 370, 371, 372, 373, 374, 375, 376, 377, 378, 379, 380, 381, 382, 383, 384, 385, 386, 387, 388, 389, 390, 391, 392, 393, 394, 395, 396, 397, 398, 399, 400, 401, 402, 403, 404, 405, 406, 407, 408, 409, 410, 411, 412, 413, 414, 415, 416, 417, 418, 419, 420, 421, 422, 423, 424, 425, 426, 427, 428, 429, 430, 431, 432, 433, 434, 435, 436, 437, 438, 439, 440, 441, 442, 443, 444, 445, 446, 447, 448, 449, 450, 451, 452, 453, 454, 455, 456, 457, 458, 459, 460, 461, 462, 463, 464, 465, 466, 467, 468, 469, 470, 471, 472, 473, 474, 475, 476, 477, 478, 479, 480, 481, 482, 483, 484, 485, 486, 487, 488, 489, 490, 491, 492, 493, 494, 495, 496, 497, 498, 499, 500, 501, 502, 503, 504, 505, 506, 507, 508, 509, 510, 511, 512, 513, 514, 515, 516, 517, 518, 519, 520, 521, 522, 523, 524, 525, 526, 527, 528, 529, 530, 531, 532, 533, 534, 535, 536, 537, 538, 539, 540, 541, 542, 543, 544, 545, 546, 547, 548, 549, 550, 551, 552, 553, 554, 555, 556, 557, 558, 559, 560, 561, 562, 563, 564, 565, 566, 567, 568, 569, 570, 571, 572, 573, 574, 575, 576, 577, 578, 579, 580, 581, 582, 583, 584, 585, 586, 587, 588, 589, 590, 591, 592, 593, 594, 595, 596, 597, 598, 599, 600, 601, 602, 603, 604, 605, 606, 607, 608, 609, 610, 611, 612, 613, 614, 615, 616, 617, 618, 619, 620, 621, 622, 623, 624, 625, 626, 627, 628, 629, 630, 631, 632, 633, 634, 635, 636, 637, 638, 639, 640, 641, 642, 643, 644, 645, 646, 647, 648, 649, 650, 651, 652, 653, 654, 655, 656, 657, 658, 659, 660, 661, 662, 663, 664, 665, 666, 667, 668, 669, 670, 671, 672, 673, 674, 675, 676, 677, 678, 679, 680, 681, 682, 683, 684, 685, 686, 687, 688, 689, 690, 691, 692, 693, 694, 695, 696, 697, 698, 699, 700, 701, 702, 703, 704, 705, 706, 707, 708, 709, 710, 711, 712, 713, 714, 715, 716, 717, 718, 719, 720, 721, 722, 723, 724, 725, 726, 727, 728, 729, 730, 731, 732, 733, 734, 735, 736, 737, 738, 739, 740, 741, 742, 743, 744, 745, 746, 747, 748, 749, 750, 751, 752, 753, 754, 755, 756, 757, 758, 759, 760, 761, 762, 763, 764, 765, 766, 767, 768, 769, 770, 771, 772, 773, 774, 775, 776, 777, 778, 779, 780, 781, 782, 783, 784, 785, 786, 787, 788, 789, 790, 791, 792, 793, 794, 795, 796, 797, 798, 799, 800, 801, 802, 803, 804, 805, 806, 807, 808, 809, 810, 811, 812, 813, 814, 815, 816, 817, 818, 819, 820, 821, 822, 823, 824, 825, 826, 827, 828, 829, 830, 831, 832, 833, 834, 835, 836, 837, 838, 839, 840, 841, 842, 843, 844, 845, 846, 847, 848, 849, 850, 851, 852, 853, 854, 855, 856, 857, 858, 859, 860, 861, 862, 863, 864, 865, 866, 867, 868, 869, 870, 871, 872],
      "AcquisitionTime": ["170842.775000", "170843.235000", "170843.695000", "170844.155000", "170844.615000", "170845.075000", "170845.535000", "170845.995000", "170846.455000", "170846.915000", "170847.375000", "170847.835000", "170848.295000", "170848.755000", "170849.215000", "170849.675000", "170850.135000", "170850.595000", "170851.055000", "170851.515000", "170851.975000", "170852.435000", "170852.895000", "170853.355000", "170853.815000", "170854.275000", "170854.735000", "170855.195000", "170855.655000", "170856.115000", "170856.575000", "170857.035000", "170857.495000", "170857.955000", "170858.415000", "170858.875000", "170859.335000", "170859.795000", "170900.255000", "170900.715000", "170901.175000", "170901.635000", "170902.095000", "170902.555000", "170903.015000", "170903.475000", "170903.935000", "170904.395000", "170904.855000", "170905.315000", "170905.775000", "170906.235000", "170906.695000", "170907.155000", "170907.615000", "170908.075000", "170908.535000", "170908.995000", "170909.455000", "170909.915000", "170910.375000", "170910.835000", "170911.295000", "170911.755000", "170912.215000", "170912.675000", "170913.135000", "170913.595000", "170914.055000", "170914.515000", "170914.975000", "170915.435000", "170915.895000", "170916.355000", "170916.815000", "170917.275000", "170917.735000", "170918.195000", "170918.655000", "170919.115000", "170919.575000", "170920.035000", "170920.495000", "170920.955000", "170921.415000", "170921.875000", "170922.335000", "170922.795000", "170923.255000", "170923.715000", "170924.175000", "170924.635000", "170925.095000", "170925.555000", "170926.015000", "170926.475000", "170926.935000", "170927.395000", "170927.855000", "170928.315000", "170928.775000", "170929.235000", "170929.695000", "170930.155000", "170930.615000", "170931.075000", "170931.535000", "170931.995000", "170932.455000", "170932.915000", "170933.375000", "170933.835000", "170934.295000", "170934.755000", "170935.215000", "170935.675000", "170936.135000", "170936.595000", "170937.055000", "170937.515000", "170937.975000", "170938.435000", "170938.895000", "170939.355000", "170939.815000", "170940.275000", "170940.735000", "170941.195000", "170941.655000", "170942.115000", "170942.575000", "170943.035000", "170943.495000", "170943.955000", "170944.415000", "170944.875000", "170945.335000", "170945.795000", "170946.255000", "170946.715000", "170947.175000", "170947.635000", "170948.095000", "170948.555000", "170949.015000", "170949.475000", "170949.935000", "170950.395000", "170950.855000", "170951.315000", "170951.775000", "170952.235000", "170952.695000", "170953.155000", "170953.615000", "170954.075000", "170954.535000", "170954.995000", "170955.455000", "170955.915000", "170956.375000", "170956.835000", "170957.295000", "170957.755000", "170958.215000", "170958.675000", "170959.135000", "170959.595000", "171000.055000", "171000.515000", "171000.975000", "171001.435000", "171001.895000", "171002.355000", "171002.815000", "171003.275000", "171003.735000", "171004.195000", "171004.655000", "171005.115000", "171005.575000", "171006.035000", "171006.495000", "171006.955000", "171007.415000", "171007.875000", "171008.335000", "171008.795000", "171009.255000", "171009.715000", "171010.175000", "171010.635000", "171011.095000", "171011.555000", "171012.015000", "171012.475000", "171012.935000", "171013.395000", "171013.855000", "171014.315000", "171014.775000", "171015.235000", "171015.695000", "171016.155000", "171016.615000", "171017.075000", "171017.535000", "171017.995000", "171018.455000", "171018.915000", "171019.375000", "171019.835000", "171020.295000", "171020.755000", "171021.215000", "171021.675000", "171022.135000", "171022.595000", "171023.055000", "171023.515000", "171023.975000", "171024.435000", "171024.895000", "171025.355000", "171025.815000", "171026.275000", "171026.735000", "171027.195000", "171027.655000", "171028.115000", "171028.575000", "171029.035000", "171029.495000", "171029.955000", "171030.415000", "171030.875000", "171031.335000", "171031.795000", "171032.255000", "171032.715000", "171033.175000", "171033.635000", "171034.095000", "171034.555000", "171035.015000", "171035.475000", "171035.935000", "171036.395000", "171036.855000", "171037.315000", "171037.775000", "171038.235000", "171038.695000", "171039.155000", "171039.615000", "171040.075000", "171040.535000", "171040.995000", "171041.455000", "171041.915000", "171042.375000", "171042.835000", "171043.295000", "171043.755000", "171044.215000", "171044.675000", "171045.135000", "171045.595000", "171046.055000", "171046.515000", "171046.975000", "171047.435000", "171047.895000", "171048.355000", "171048.815000", "171049.275000", "171049.735000", "171050.195000", "171050.655000", "171051.115000", "171051.575000", "171052.035000", "171052.495000", "171052.955000", "171053.415000", "171053.875000", "171054.335000", "171054.795000", "171055.255000", "171055.715000", "171056.175000", "171056.635000", "171057.095000", "171057.555000", "171058.015000", "171058.475000", "171058.935000", "171059.395000", "171059.855000", "171100.315000", "171100.775000", "171101.235000", "171101.695000", "171102.155000", "171102.615000", "171103.075000", "171103.535000", "171103.995000", "171104.455000", "171104.915000", "171105.375000", "171105.835000", "171106.295000", "171106.755000", "171107.215000", "171107.675000", "171108.135000", "171108.595000", "171109.055000", "171109.515000", "171109.975000", "171110.435000", "171110.895000", "171111.355000", "171111.815000", "171112.275000", "171112.735000", "171113.195000", "171113.655000", "171114.115000", "171114.575000", "171115.035000", "171115.495000", "171115.955000", "171116.415000", "171116.875000", "171117.335000", "171117.795000", "171118.255000", "171118.715000", "171119.175000", "171119.635000", "171120.095000", "171120.555000", "171121.015000", "171121.475000", "171121.935000", "171122.395000", "171122.855000", "171123.315000", "171123.775000", "171124.235000", "171124.695000", "171125.155000", "171125.615000", "171126.075000", "171126.535000", "171126.995000", "171127.455000", "171127.915000", "171128.375000", "171128.835000", "171129.295000", "171129.755000", "171130.215000", "171130.675000", "171131.135000", "171131.595000", "171132.055000", "171132.515000", "171132.975000", "171133.435000", "171133.895000", "171134.355000", "171134.815000", "171135.275000", "171135.735000", "171136.195000", "171136.655000", "171137.115000", "171137.575000", "171138.035000", "171138.495000", "171138.955000", "171139.415000", "171139.875000", "171140.335000", "171140.795000", "171141.255000", "171141.715000", "171142.175000", "171142.635000", "171143.095000", "171143.555000", "171144.015000", "171144.475000", "171144.935000", "171145.395000", "171145.855000", "171146.315000", "171146.775000", "171147.235000", "171147.695000", "171148.155000", "171148.615000", "171149.075000", "171149.535000", "171149.995000", "171150.455000", "171150.915000", "171151.375000", "171151.835000", "171152.295000", "171152.755000", "171153.215000", "171153.675000", "171154.135000", "171154.595000", "171155.055000", "171155.515000", "171155.975000", "171156.435000", "171156.895000", "171157.355000", "171157.815000", "171158.275000", "171158.735000", "171159.195000", "171159.655000", "171200.115000", "171200.575000", "171201.035000", "171201.495000", "171201.955000", "171202.415000", "171202.875000", "171203.335000", "171203.795000", "171204.255000", "171204.715000", "171205.175000", "171205.635000", "171206.095000", "171206.555000", "171207.015000", "171207.475000", "171207.935000", "171208.395000", "171208.855000", "171209.315000", "171209.775000", "171210.235000", "171210.695000", "171211.155000", "171211.615000", "171212.075000", "171212.535000", "171212.995000", "171213.455000", "171213.915000", "171214.375000", "171214.835000", "171215.295000", "171215.755000", "171216.215000", "171216.675000", "171217.135000", "171217.595000", "171218.055000", "171218.515000", "171218.975000", "171219.435000", "171219.895000", "171220.355000", "171220.815000", "171221.275000", "171221.735000", "171222.195000", "171222.655000", "171223.115000", "171223.575000", "171224.035000", "171224.495000", "171224.955000", "171225.415000", "171225.875000", "171226.335000", "171226.795000", "171227.255000", "171227.715000", "171228.175000", "171228.635000", "171229.095000", "171229.555000", "171230.015000", "171230.475000", "171230.935000", "171231.395000", "171231.855000", "171232.315000", "171232.775000", "171233.235000", "171233.695000", "171234.155000", "171234.615000", "171235.075000", "171235.535000", "171235.995000", "171236.455000", "171236.915000", "171237.375000", "171237.835000", "171238.295000", "171238.755000", "171239.215000", "171239.675000", "171240.135000", "171240.595000", "171241.055000", "171241.515000", "171241.975000", "171242.435000", "171242.895000", "171243.355000", "171243.815000", "171244.275000", "171244.735000", "171245.195000", "171245.655000", "171246.115000", "171246.575000", "171247.035000", "171247.495000", "171247.955000", "171248.415000", "171248.875000", "171249.335000", "171249.795000", "171250.255000", "171250.715000", "171251.175000", "171251.635000", "171252.095000", "171252.555000", "171253.015000", "171253.475000", "171253.935000", "171254.395000", "171254.855000", "171255.315000", "171255.775000", "171256.235000", "171256.695000", "171257.155000", "171257.615000", "171258.075000", "171258.535000", "171258.995000", "171259.455000", "171259.915000", "171300.375000", "171300.835000", "171301.295000", "171301.755000", "171302.215000", "171302.675000", "171303.135000", "171303.595000", "171304.055000", "171304.515000", "171304.975000", "171305.435000", "171305.895000", "171306.355000", "171306.815000", "171307.275000", "171307.735000", "171308.195000", "171308.655000", "171309.115000", "171309.575000", "171310.035000", "171310.495000", "171310.955000", "171311.415000", "171311.875000", "171312.335000", "171312.795000", "171313.255000", "171313.715000", "171314.175000", "171314.635000", "171315.095000", "171315.555000", "171316.015000", "171316.475000", "171316.935000", "171317.395000", "171317.855000", "171318.315000", "171318.775000", "171319.235000", "171319.695000", "171320.155000", "171320.615000", "171321.075000", "171321.535000", "171321.995000", "171322.455000", "171322.915000", "171323.375000", "171323.835000", "171324.295000", "171324.755000", "171325.215000", "171325.675000", "171326.135000", "171326.595000", "171327.055000", "171327.515000", "171327.975000", "171328.435000", "171328.895000", "171329.355000", "171329.815000", "171330.275000", "171330.735000", "171331.195000", "171331.655000", "171332.115000", "171332.575000", "171333.035000", "171333.495000", "171333.955000", "171334.415000", "171334.875000", "171335.335000", "171335.795000", "171336.255000", "171336.715000", "171337.175000", "171337.635000", "171338.095000", "171338.555000", "171339.015000", "171339.475000", "171339.935000", "171340.395000", "171340.855000", "171341.315000", "171341.775000", "171342.235000", "171342.695000", "171343.155000", "171343.615000", "171344.075000", "171344.535000", "171344.995000", "171345.455000", "171345.915000", "171346.375000", "171346.835000", "171347.295000", "171347.755000", "171348.215000", "171348.675000", "171349.135000", "171349.595000", "171350.055000", "171350.515000", "171350.975000", "171351.435000", "171351.895000", "171352.355000", "171352.815000", "171353.275000", "171353.735000", "171354.195000", "171354.655000", "171355.115000", "171355.575000", "171356.035000", "171356.495000", "171356.955000", "171357.415000", "171357.875000", "171358.335000", "171358.795000", "171359.255000", "171359.715000", "171400.175000", "171400.635000", "171401.095000", "171401.555000", "171402.015000", "171402.475000", "171402.935000", "171403.395000", "171403.855000", "171404.315000", "171404.775000", "171405.235000", "171405.695000", "171406.155000", "171406.615000", "171407.075000", "171407.535000", "171407.995000", "171408.455000", "171408.915000", "171409.375000", "171409.835000", "171410.295000", "171410.755000", "171411.215000", "171411.675000", "171412.135000", "171412.595000", "171413.055000", "171413.515000", "171413.975000", "171414.435000", "171414.895000", "171415.355000", "171415.815000", "171416.275000", "171416.735000", "171417.195000", "171417.655000", "171418.115000", "171418.575000", "171419.035000", "171419.495000", "171419.955000", "171420.415000", "171420.875000", "171421.335000", "171421.795000", "171422.255000", "171422.715000", "171423.175000", "171423.635000", "171424.095000", "171424.555000", "171425.015000", "171425.475000", "171425.935000", "171426.395000", "171426.855000", "171427.315000", "171427.775000", "171428.235000", "171428.695000", "171429.155000", "171429.615000", "171430.075000", "171430.535000", "171430.995000", "171431.455000", "171431.915000", "171432.375000", "171432.835000", "171433.295000", "171433.755000", "171434.215000", "171434.675000", "171435.135000", "171435.595000", "171436.055000", "171436.515000", "171436.975000", "171437.435000", "171437.895000", "171438.355000", "171438.815000", "171439.275000", "171439.735000", "171440.195000", "171440.655000", "171441.115000", "171441.575000", "171442.035000", "171442.495000", "171442.955000", "171443.415000", "171443.875000", "171444.335000", "171444.795000", "171445.255000", "171445.715000", "171446.175000", "171446.635000", "171447.095000", "171447.555000", "171448.015000", "171448.475000", "171448.935000", "171449.395000", "171449.855000", "171450.315000", "171450.775000", "171451.235000", "171451.695000", "171452.155000", "171452.615000", "171453.075000", "171453.535000", "171453.995000", "171454.455000", "171454.915000", "171455.375000", "171455.835000", "171456.295000", "171456.755000", "171457.215000", "171457.675000", "171458.135000", "171458.595000", "171459.055000", "171459.515000", "171459.975000", "171500.435000", "171500.895000", "171501.355000", "171501.815000", "171502.275000", "171502.735000", "171503.195000", "171503.655000", "171504.115000", "171504.575000", "171505.035000", "171505.495000", "171505.955000", "171506.415000", "171506.875000", "171507.335000", "171507.795000", "171508.255000", "171508.715000", "171509.175000", "171509.635000", "171510.095000", "171510.555000", "171511.015000", "171511.475000", "171511.935000", "171512.395000", "171512.855000", "171513.315000", "171513.775000", "171514.235000", "171514.695000", "171515.155000", "171515.615000", "171516.075000", "171516.535000", "171516.995000", "171517.455000", "171517.915000", "171518.375000", "171518.835000", "171519.295000", "171519.755000", "171520.215000", "171520.675000", "171521.135000", "171521.595000", "171522.055000", "171522.515000", "171522.975000", "171523.435000"],
