{
  "AcquisitionMatrixPE": 82,
  "AcquisitionNumber": 1,
  "AcquisitionTime": "13:32:42.325000",
  "BandwidthPerPixelPhaseEncode": 24.888,
  "BaseResolution": 82,
  "BodyPartExamined": "BRAIN",
  "ConsistencyInfo": "N4_VE11E_LATEST_20181129",
  "ConversionSoftware": "dcm2niix",
  "ConversionSoftwareVersion": "v1.0.20201102",
  "DerivedVendorReportedEchoSpacing": 0.00049,
  "DeviceSerialNumber": "66112",
  "DwellTime": 2e-06,
  "EchoTime": 0.0272,
  "EchoTrainLength": 82,
  "EffectiveEchoSpacing": 0.00049,
  "FlipAngle": 44,
  "ImageComments": "Unaliased MB8/PE3",
  "ImageOrientationPatientDICOM": [0.999627, 0.0227948, -0.0150156, -0.0214628, 0.99627, 0.0835769],
  "ImageType": [
    "ORIGINAL",
    "PRIMARY",
    "M",
    "MB",
    "ND",
    "NORM",
    "MOSAIC"
],
  "ImagingFrequency": 123.252,
  "InPlanePhaseEncodingDirectionDICOM": "COL",
  "InstitutionAddress": "Maynard 3,Hanover,NH,US,03755",
  "InstitutionName": "Dartmouth College - PBS",
  "InstitutionalDepartmentName": "Department",
  "MRAcquisitionType": "2D",
  "MagneticFieldStrength": 3,
  "Manufacturer": "Siemens",
  "ManufacturersModelName": "Prisma",
  "Modality": "MR",
  "MultibandAccelerationFactor": 8,
  "PartialFourier": 1,
  "PatientPosition": "HFS",
  "PercentPhaseFOV": 100,
  "PercentSampling": 100,
  "PhaseEncodingDirection": "j-",
  "PhaseEncodingSteps": 82,
  "PhaseResolution": 1,
  "PixelBandwidth": 3050,
  "ProcedureStepDescription": "Wager_Wager^1076_spacetop",
  "ProtocolName": "func_run-04_task-social_acq-ap-mb8",
  "PulseSequenceDetails": "%CustomerSeq%\\cmrr_mbep2d_bold",
  "ReceiveCoilActiveElements": "HEA;HEP",
  "ReceiveCoilName": "Head_32",
  "ReconMatrixPE": 82,
  "RepetitionTime": 0.46,
  "SAR": 0.109458,
  "ScanOptions": "FS",
  "ScanningSequence": "EP",
  "SequenceName": "epfid2d1_82",
  "SequenceVariant": "SK\\SS",
  "SeriesDescription": "func_run-04_task-social_acq-ap-mb8",
  "SeriesNumber": 18,
  "ShimSetting": [4138, -7776, -7233, 630, -4, -113, -19, 78],
  "SliceThickness": 2.7,
  "SliceTiming": [0, 0.2525, 0.0625, 0.315, 0.125, 0.3775, 0.1875, 0, 0.2525, 0.0625, 0.315, 0.125, 0.3775, 0.1875, 0, 0.2525, 0.0625, 0.315, 0.125, 0.3775, 0.1875, 0, 0.2525, 0.0625, 0.315, 0.125, 0.3775, 0.1875, 0, 0.2525, 0.0625, 0.315, 0.125, 0.3775, 0.1875, 0, 0.2525, 0.0625, 0.315, 0.125, 0.3775, 0.1875, 0, 0.2525, 0.0625, 0.315, 0.125, 0.3775, 0.1875, 0, 0.2525, 0.0625, 0.315, 0.125, 0.3775, 0.1875],
  "SoftwareVersions": "syngo MR E11",
  "SpacingBetweenSlices": 2.7,
  "StationName": "AWP66112",
  "TaskName": "social",
  "TotalReadoutTime": 0.03969,
  "TxRefAmp": 250.651,
  "WipMemBlock": "84af782b-edb5-421b-8428-aad9c96c7fcf||Sequence: R016 ve11e/master r/434b28f1; Aug  7 2019 18:53:46 by eja",
  "dcmmeta_affine": [
    [-2.68192720413208, -0.05758320540189743, -0.04553481563925743, 114.26242065429688],
    [-0.06115682050585747, 2.672919988632202, 0.2247033417224884, -82.66568756103516],
    [-0.04028584435582161, -0.22423066198825836, 2.6902480125427246, -61.64329147338867],
    [0.0, 0.0, 0.0, 1.0]
],
  "dcmmeta_reorient_transform": [
    [0.0, -1.0, 0.0, 81.0],
    [1.0, 0.0, 0.0, 0.0],
    [0.0, 0.0, 1.0, 0.0],
    [0.0, 0.0, 0.0, 1.0]
],
  "dcmmeta_shape": [82, 82, 56, 872],
  "dcmmeta_slice_dim": 2,
  "dcmmeta_version": 0.6,
  "global": {
    "const": {
      "AccessionNumber": "A003995",
      "AcquisitionMatrix": [82, 0, 0, 82],
      "AngioFlag": "N",
      "BitsAllocated": 16,
      "BitsStored": 16,
      "BodyPartExamined": "BRAIN",
      "Columns": 656,
      "EchoNumbers": 1,
      "EchoTime": 27.2,
      "EchoTrainLength": 82,
      "FlipAngle": 44.0,
      "HighBit": 15,
      "ImageOrientationPatient": [0.99962739418245, 0.02279481461316, -0.0150156327461, -0.0214628312552, 0.9962701700951, 0.08357688109276],
      "ImagePositionPatient": [-862.78491290792, -918.52089269278, -132.5981364337],
      "ImageType": [
        "ORIGINAL",
        "PRIMARY",
        "M",
        "MB",
        "ND",
        "NORM",
        "MOSAIC"
],
      "ImagedNucleus": "1H",
      "ImagingFrequency": 123.252179,
      "InPlanePhaseEncodingDirection": "COL",
      "MRAcquisitionType": "2D",
      "MagneticFieldStrength": 3.0,
      "Manufacturer": "SIEMENS",
      "ManufacturerModelName": "Prisma",
      "Modality": "MR",
      "NumberOfAverages": 1.0,
      "NumberOfPhaseEncodingSteps": 82,
      "PercentPhaseFieldOfView": 100.0,
      "PercentSampling": 100.0,
      "PerformedProcedureStepStartTime": "123353.617000",
      "PhotometricInterpretation": "MONOCHROME2",
      "PixelBandwidth": 3050.0,
      "PixelRepresentation": 0,
      "PixelSpacing": [2.6829268932343, 2.6829268932343],
      "ProtocolName": "func_run-04_task-social_acq-ap-mb8",
      "RepetitionTime": 460.0,
      "Rows": 656,
      "SAR": 0.10945754291569,
      "SamplesPerPixel": 1,
      "ScanOptions": "FS",
      "ScanningSequence": "EP",
      "SequenceName": "epfid2d1_82",
      "SequenceVariant": [
        "SK",
        "SS"
],
      "SeriesDescription": "func_run-04_task-social_acq-ap-mb8",
      "SeriesNumber": 18,
      "SeriesTime": "133309.655000",
      "SliceLocation": -70.227378212374,
      "SliceThickness": 2.7000000476837,
      "SmallestImagePixelValue": 0,
      "SoftwareVersions": "syngo MR E11",
      "SpacingBetweenSlices": 2.6999999784135,
      "SpecificCharacterSet": "ISO_IR 100",
      "StudyID": "1",
      "StudyTime": "123353.545000",
      "TransmitCoilName": "Body",
      "VariableFlipAngleFlag": "N",
      "WindowCenterWidthExplanation": "Algo1"
    },
    "slices": {}
  },
  "time": {
    "samples": {
      "AcquisitionNumber": [1, 2, 3, 4, 5, 6, 7, 8, 9, 10, 11, 12, 13, 14, 15, 16, 17, 18, 19, 20, 21, 22, 23, 24, 25, 26, 27, 28, 29, 30, 31, 32, 33, 34, 35, 36, 37, 38, 39, 40, 41, 42, 43, 44, 45, 46, 47, 48, 49, 50, 51, 52, 53, 54, 55, 56, 57, 58, 59, 60, 61, 62, 63, 64, 65, 66, 67, 68, 69, 70, 71, 72, 73, 74, 75, 76, 77, 78, 79, 80, 81, 82, 83, 84, 85, 86, 87, 88, 89, 90, 91, 92, 93, 94, 95, 96, 97, 98, 99, 100, 101, 102, 103, 104, 105, 106, 107, 108, 109, 110, 111, 112, 113, 114, 115, 116, 117, 118, 119, 120, 121, 122, 123, 124, 125, 126, 127, 128, 129, 130, 131, 132, 133, 134, 135, 136, 137, 138, 139, 140, 141, 142, 143, 144, 145, 146, 147, 148, 149, 150, 151, 152, 153, 154, 155, 156, 157, 158, 159, 160, 161, 162, 163, 164, 165, 166, 167, 168, 169, 170, 171, 172, 173, 174, 175, 176, 177, 178, 179, 180, 181, 182, 183, 184, 185, 186, 187, 188, 189, 190, 191, 192, 193, 194, 195, 196, 197, 198, 199, 200, 201, 202, 203, 204, 205, 206, 207, 208, 209, 210, 211, 212, 213, 214, 215, 216, 217, 218, 219, 220, 221, 222, 223, 224, 225, 226, 227, 228, 229, 230, 231, 232, 233, 234, 235, 236, 237, 238, 239, 240, 241, 242, 243, 244, 245, 246, 247, 248, 249, 250, 251, 252, 253, 254, 255, 256, 257, 258, 259, 260, 261, 262, 263, 264, 265, 266, 267, 268, 269, 270, 271, 272, 273, 274, 275, 276, 277, 278, 279, 280, 281, 282, 283, 284, 285, 286, 287, 288, 289, 290, 291, 292, 293, 294, 295, 296, 297, 298, 299, 300, 301, 302, 303, 304, 305, 306, 307, 308, 309, 310, 311, 312, 313, 314, 315, 316, 317, 318, 319, 320, 321, 322, 323, 324, 325, 326, 327, 328, 329, 330, 331, 332, 333, 334, 335, 336, 337, 338, 339, 340, 341, 342, 343, 344, 345, 346, 347, 348, 349, 350, 351, 352, 353, 354, 355, 356, 357, 358, 359, 360, 361, 362, 363, 364, 365, 366, 367, 368, 369, 370, 371, 372, 373, 374, 375, 376, 377, 378, 379, 380, 381, 382, 383, 384, 385, 386, 387, 388, 389, 390, 391, 392, 393, 394, 395, 396, 397, 398, 399, 400, 401, 402, 403, 404, 405, 406, 407, 408, 409, 410, 411, 412, 413, 414, 415, 416, 417, 418, 419, 420, 421, 422, 423, 424, 425, 426, 427, 428, 429, 430, 431, 432, 433, 434, 435, 436, 437, 438, 439, 440, 441, 442, 443, 444, 445, 446, 447, 448, 449, 450, 451, 452, 453, 454, 455, 456, 457, 458, 459, 460, 461, 462, 463, 464, 465, 466, 467, 468, 469, 470, 471, 472, 473, 474, 475, 476, 477, 478, 479, 480, 481, 482, 483, 484, 485, 486, 487, 488, 489, 490, 491, 492, 493, 494, 495, 496, 497, 498, 499, 500, 501, 502, 503, 504, 505, 506, 507, 508, 509, 510, 511, 512, 513, 514, 515, 516, 517, 518, 519, 520, 521, 522, 523, 524, 525, 526, 527, 528, 529, 530, 531, 532, 533, 534, 535, 536, 537, 538, 539, 540, 541, 542, 543, 544, 545, 546, 547, 548, 549, 550, 551, 552, 553, 554, 555, 556, 557, 558, 559, 560, 561, 562, 563, 564, 565, 566, 567, 568, 569, 570, 571, 572, 573, 574, 575, 576, 577, 578, 579, 580, 581, 582, 583, 584, 585, 586, 587, 588, 589, 590, 591, 592, 593, 594, 595, 596, 597, 598, 599, 600, 601, 602, 603, 604, 605, 606, 607, 608, 609, 610, 611, 612, 613, 614, 615, 616, 617, 618, 619, 620, 621, 622, 623, 624, 625, 626, 627, 628, 629, 630, 631, 632, 633, 634, 635, 636, 637, 638, 639, 640, 641, 642, 643, 644, 645, 646, 647, 648, 649, 650, 651, 652, 653, 654, 655, 656, 657, 658, 659, 660, 661, 662, 663, 664, 665, 666, 667, 668, 669, 670, 671, 672, 673, 674, 675, 676, 677, 678, 679, 680, 681, 682, 683, 684, 685, 686, 687, 688, 689, 690, 691, 692, 693, 694, 695, 696, 697, 698, 699, 700, 701, 702, 703, 704, 705, 706, 707, 708, 709, 710, 711, 712, 713, 714, 715, 716, 717, 718, 719, 720, 721, 722, 723, 724, 725, 726, 727, 728, 729, 730, 731, 732, 733, 734, 735, 736, 737, 738, 739, 740, 741, 742, 743, 744, 745, 746, 747, 748, 749, 750, 751, 752, 753, 754, 755, 756, 757, 758, 759, 760, 761, 762, 763, 764, 765, 766, 767, 768, 769, 770, 771, 772, 773, 774, 775, 776, 777, 778, 779, 780, 781, 782, 783, 784, 785, 786, 787, 788, 789, 790, 791, 792, 793, 794, 795, 796, 797, 798, 799, 800, 801, 802, 803, 804, 805, 806, 807, 808, 809, 810, 811, 812, 813, 814, 815, 816, 817, 818, 819, 820, 821, 822, 823, 824, 825, 826, 827, 828, 829, 830, 831, 832, 833, 834, 835, 836, 837, 838, 839, 840, 841, 842, 843, 844, 845, 846, 847, 848, 849, 850, 851, 852, 853, 854, 855, 856, 857, 858, 859, 860, 861, 862, 863, 864, 865, 866, 867, 868, 869, 870, 871, 872],
      "AcquisitionTime": ["133242.325000", "133242.785000", "133243.245000", "133243.705000", "133244.165000", "133244.625000", "133245.085000", "133245.545000", "133246.005000", "133246.465000", "133246.925000", "133247.385000", "133247.845000", "133248.305000", "133248.765000", "133249.225000", "133249.685000", "133250.145000", "133250.605000", "133251.065000", "133251.525000", "133251.985000", "133252.445000", "133252.905000", "133253.365000", "133253.825000", "133254.285000", "133254.745000", "133255.205000", "133255.665000", "133256.125000", "133256.585000", "133257.045000", "133257.505000", "133257.965000", "133258.425000", "133258.885000", "133259.345000", "133259.805000", "133300.265000", "133300.725000", "133301.185000", "133301.645000", "133302.105000", "133302.565000", "133303.025000", "133303.485000", "133303.945000", "133304.405000", "133304.865000", "133305.325000", "133305.785000", "133306.245000", "133306.705000", "133307.165000", "133307.625000", "133308.085000", "133308.545000", "133309.005000", "133309.465000", "133309.925000", "133310.385000", "133310.845000", "133311.305000", "133311.765000", "133312.225000", "133312.685000", "133313.145000", "133313.605000", "133314.065000", "133314.525000", "133314.985000", "133315.445000", "133315.905000", "133316.365000", "133316.825000", "133317.285000", "133317.745000", "133318.205000", "133318.665000", "133319.125000", "133319.585000", "133320.045000", "133320.505000", "133320.965000", "133321.425000", "133321.885000", "133322.345000", "133322.805000", "133323.265000", "133323.725000", "133324.185000", "133324.645000", "133325.105000", "133325.565000", "133326.025000", "133326.485000", "133326.945000", "133327.405000", "133327.865000", "133328.325000", "133328.785000", "133329.245000", "133329.705000", "133330.165000", "133330.625000", "133331.085000", "133331.545000", "133332.005000", "133332.465000", "133332.925000", "133333.385000", "133333.845000", "133334.305000", "133334.765000", "133335.225000", "133335.685000", "133336.145000", "133336.605000", "133337.065000", "133337.525000", "133337.985000", "133338.445000", "133338.905000", "133339.365000", "133339.825000", "133340.285000", "133340.745000", "133341.205000", "133341.665000", "133342.125000", "133342.585000", "133343.045000", "133343.505000", "133343.965000", "133344.425000", "133344.885000", "133345.345000", "133345.805000", "133346.265000", "133346.725000", "133347.185000", "133347.645000", "133348.105000", "133348.565000", "133349.025000", "133349.485000", "133349.945000", "133350.405000", "133350.865000", "133351.325000", "133351.785000", "133352.245000", "133352.705000", "133353.165000", "133353.625000", "133354.085000", "133354.545000", "133355.005000", "133355.465000", "133355.925000", "133356.385000", "133356.845000", "133357.305000", "133357.765000", "133358.225000", "133358.685000", "133359.145000", "133359.605000", "133400.065000", "133400.525000", "133400.985000", "133401.445000", "133401.905000", "133402.365000", "133402.825000", "133403.285000", "133403.745000", "133404.205000", "133404.665000", "133405.125000", "133405.585000", "133406.045000", "133406.505000", "133406.965000", "133407.425000", "133407.885000", "133408.345000", "133408.805000", "133409.265000", "133409.725000", "133410.185000", "133410.645000", "133411.105000", "133411.565000", "133412.025000", "133412.485000", "133412.945000", "133413.405000", "133413.865000", "133414.325000", "133414.785000", "133415.245000", "133415.705000", "133416.165000", "133416.625000", "133417.085000", "133417.545000", "133418.005000", "133418.465000", "133418.925000", "133419.385000", "133419.845000", "133420.305000", "133420.765000", "133421.225000", "133421.685000", "133422.145000", "133422.605000", "133423.065000", "133423.525000", "133423.985000", "133424.445000", "133424.905000", "133425.365000", "133425.825000", "133426.285000", "133426.745000", "133427.205000", "133427.665000", "133428.125000", "133428.585000", "133429.045000", "133429.505000", "133429.965000", "133430.425000", "133430.885000", "133431.345000", "133431.805000", "133432.265000", "133432.725000", "133433.185000", "133433.645000", "133434.105000", "133434.565000", "133435.025000", "133435.485000", "133435.945000", "133436.405000", "133436.865000", "133437.325000", "133437.785000", "133438.245000", "133438.705000", "133439.165000", "133439.625000", "133440.085000", "133440.545000", "133441.005000", "133441.465000", "133441.925000", "133442.385000", "133442.845000", "133443.305000", "133443.765000", "133444.225000", "133444.685000", "133445.145000", "133445.605000", "133446.065000", "133446.525000", "133446.985000", "133447.445000", "133447.905000", "133448.365000", "133448.825000", "133449.285000", "133449.745000", "133450.205000", "133450.665000", "133451.125000", "133451.585000", "133452.045000", "133452.505000", "133452.965000", "133453.425000", "133453.885000", "133454.345000", "133454.805000", "133455.265000", "133455.725000", "133456.185000", "133456.645000", "133457.105000", "133457.565000", "133458.025000", "133458.485000", "133458.945000", "133459.405000", "133459.865000", "133500.325000", "133500.785000", "133501.245000", "133501.705000", "133502.165000", "133502.625000", "133503.085000", "133503.545000", "133504.005000", "133504.465000", "133504.925000", "133505.385000", "133505.845000", "133506.305000", "133506.765000", "133507.225000", "133507.685000", "133508.145000", "133508.605000", "133509.065000", "133509.525000", "133509.985000", "133510.445000", "133510.905000", "133511.365000", "133511.825000", "133512.285000", "133512.745000", "133513.205000", "133513.665000", "133514.125000", "133514.585000", "133515.045000", "133515.505000", "133515.965000", "133516.425000", "133516.885000", "133517.345000", "133517.805000", "133518.265000", "133518.725000", "133519.185000", "133519.645000", "133520.105000", "133520.565000", "133521.025000", "133521.485000", "133521.945000", "133522.405000", "133522.865000", "133523.325000", "133523.785000", "133524.245000", "133524.705000", "133525.165000", "133525.625000", "133526.085000", "133526.545000", "133527.005000", "133527.465000", "133527.925000", "133528.385000", "133528.845000", "133529.305000", "133529.765000", "133530.225000", "133530.685000", "133531.145000", "133531.605000", "133532.065000", "133532.525000", "133532.985000", "133533.445000", "133533.905000", "133534.365000", "133534.825000", "133535.285000", "133535.745000", "133536.205000", "133536.665000", "133537.125000", "133537.585000", "133538.045000", "133538.505000", "133538.965000", "133539.425000", "133539.885000", "133540.345000", "133540.805000", "133541.265000", "133541.725000", "133542.185000", "133542.645000", "133543.105000", "133543.565000", "133544.025000", "133544.485000", "133544.945000", "133545.405000", "133545.865000", "133546.325000", "133546.785000", "133547.245000", "133547.705000", "133548.165000", "133548.625000", "133549.085000", "133549.545000", "133550.005000", "133550.465000", "133550.925000", "133551.385000", "133551.845000", "133552.305000", "133552.765000", "133553.225000", "133553.685000", "133554.145000", "133554.605000", "133555.065000", "133555.525000", "133555.985000", "133556.445000", "133556.905000", "133557.365000", "133557.825000", "133558.285000", "133558.745000", "133559.205000", "133559.665000", "133600.125000", "133600.585000", "133601.045000", "133601.505000", "133601.965000", "133602.425000", "133602.885000", "133603.345000", "133603.805000", "133604.265000", "133604.725000", "133605.185000", "133605.645000", "133606.105000", "133606.565000", "133607.025000", "133607.485000", "133607.945000", "133608.405000", "133608.865000", "133609.325000", "133609.785000", "133610.245000", "133610.705000", "133611.165000", "133611.625000", "133612.085000", "133612.545000", "133613.005000", "133613.465000", "133613.925000", "133614.385000", "133614.845000", "133615.305000", "133615.765000", "133616.225000", "133616.685000", "133617.145000", "133617.605000", "133618.065000", "133618.525000", "133618.985000", "133619.445000", "133619.905000", "133620.365000", "133620.825000", "133621.285000", "133621.745000", "133622.205000", "133622.665000", "133623.125000", "133623.585000", "133624.045000", "133624.505000", "133624.965000", "133625.425000", "133625.885000", "133626.345000", "133626.805000", "133627.265000", "133627.725000", "133628.185000", "133628.645000", "133629.105000", "133629.565000", "133630.025000", "133630.485000", "133630.945000", "133631.405000", "133631.865000", "133632.325000", "133632.785000", "133633.245000", "133633.705000", "133634.165000", "133634.625000", "133635.085000", "133635.545000", "133636.005000", "133636.465000", "133636.925000", "133637.385000", "133637.845000", "133638.305000", "133638.765000", "133639.225000", "133639.685000", "133640.145000", "133640.605000", "133641.065000", "133641.525000", "133641.985000", "133642.445000", "133642.905000", "133643.365000", "133643.825000", "133644.285000", "133644.745000", "133645.205000", "133645.665000", "133646.125000", "133646.585000", "133647.045000", "133647.505000", "133647.965000", "133648.425000", "133648.885000", "133649.345000", "133649.805000", "133650.265000", "133650.725000", "133651.185000", "133651.645000", "133652.105000", "133652.565000", "133653.025000", "133653.485000", "133653.945000", "133654.405000", "133654.865000", "133655.325000", "133655.785000", "133656.245000", "133656.705000", "133657.165000", "133657.625000", "133658.085000", "133658.545000", "133659.005000", "133659.465000", "133659.925000", "133700.385000", "133700.845000", "133701.305000", "133701.765000", "133702.225000", "133702.685000", "133703.145000", "133703.605000", "133704.065000", "133704.525000", "133704.985000", "133705.445000", "133705.905000", "133706.365000", "133706.825000", "133707.285000", "133707.745000", "133708.205000", "133708.665000", "133709.125000", "133709.585000", "133710.045000", "133710.505000", "133710.965000", "133711.425000", "133711.885000", "133712.345000", "133712.805000", "133713.265000", "133713.725000", "133714.185000", "133714.645000", "133715.105000", "133715.565000", "133716.025000", "133716.485000", "133716.945000", "133717.405000", "133717.865000", "133718.325000", "133718.785000", "133719.245000", "133719.705000", "133720.165000", "133720.625000", "133721.085000", "133721.545000", "133722.005000", "133722.465000", "133722.925000", "133723.385000", "133723.845000", "133724.305000", "133724.765000", "133725.225000", "133725.685000", "133726.145000", "133726.605000", "133727.065000", "133727.525000", "133727.985000", "133728.445000", "133728.905000", "133729.365000", "133729.825000", "133730.285000", "133730.745000", "133731.205000", "133731.665000", "133732.125000", "133732.585000", "133733.045000", "133733.505000", "133733.965000", "133734.425000", "133734.885000", "133735.345000", "133735.805000", "133736.265000", "133736.725000", "133737.185000", "133737.645000", "133738.105000", "133738.565000", "133739.025000", "133739.485000", "133739.945000", "133740.405000", "133740.865000", "133741.325000", "133741.785000", "133742.245000", "133742.705000", "133743.165000", "133743.625000", "133744.085000", "133744.545000", "133745.005000", "133745.465000", "133745.925000", "133746.385000", "133746.845000", "133747.305000", "133747.765000", "133748.225000", "133748.685000", "133749.145000", "133749.605000", "133750.065000", "133750.525000", "133750.985000", "133751.445000", "133751.905000", "133752.365000", "133752.825000", "133753.285000", "133753.745000", "133754.205000", "133754.665000", "133755.125000", "133755.585000", "133756.045000", "133756.505000", "133756.965000", "133757.425000", "133757.885000", "133758.345000", "133758.805000", "133759.265000", "133759.725000", "133800.185000", "133800.645000", "133801.105000", "133801.565000", "133802.025000", "133802.485000", "133802.945000", "133803.405000", "133803.865000", "133804.325000", "133804.785000", "133805.245000", "133805.705000", "133806.165000", "133806.625000", "133807.085000", "133807.545000", "133808.005000", "133808.465000", "133808.925000", "133809.385000", "133809.845000", "133810.305000", "133810.765000", "133811.225000", "133811.685000", "133812.145000", "133812.605000", "133813.065000", "133813.525000", "133813.985000", "133814.445000", "133814.905000", "133815.365000", "133815.825000", "133816.285000", "133816.745000", "133817.205000", "133817.665000", "133818.125000", "133818.585000", "133819.045000", "133819.505000", "133819.965000", "133820.425000", "133820.885000", "133821.345000", "133821.805000", "133822.265000", "133822.725000", "133823.185000", "133823.645000", "133824.105000", "133824.565000", "133825.025000", "133825.485000", "133825.945000", "133826.405000", "133826.865000", "133827.325000", "133827.785000", "133828.245000", "133828.705000", "133829.165000", "133829.625000", "133830.085000", "133830.545000", "133831.005000", "133831.465000", "133831.925000", "133832.385000", "133832.845000", "133833.305000", "133833.765000", "133834.225000", "133834.685000", "133835.145000", "133835.605000", "133836.065000", "133836.525000", "133836.985000", "133837.445000", "133837.905000", "133838.365000", "133838.825000", "133839.285000", "133839.745000", "133840.205000", "133840.665000", "133841.125000", "133841.585000", "133842.045000", "133842.505000", "133842.965000", "133843.425000", "133843.885000", "133844.345000", "133844.805000", "133845.265000", "133845.725000", "133846.185000", "133846.645000", "133847.105000", "133847.565000", "133848.025000", "133848.485000", "133848.945000", "133849.405000", "133849.865000", "133850.325000", "133850.785000", "133851.245000", "133851.705000", "133852.165000", "133852.625000", "133853.085000", "133853.545000", "133854.005000", "133854.465000", "133854.925000", "133855.385000", "133855.845000", "133856.305000", "133856.765000", "133857.225000", "133857.685000", "133858.145000", "133858.605000", "133859.065000", "133859.525000", "133859.985000", "133900.445000", "133900.905000", "133901.365000", "133901.825000", "133902.285000", "133902.745000", "133903.205000", "133903.665000", "133904.125000", "133904.585000", "133905.045000", "133905.505000", "133905.965000", "133906.425000", "133906.885000", "133907.345000", "133907.805000", "133908.265000", "133908.725000", "133909.185000", "133909.645000", "133910.105000", "133910.565000", "133911.025000", "133911.485000", "133911.945000", "133912.405000", "133912.865000", "133913.325000", "133913.785000", "133914.245000", "133914.705000", "133915.165000", "133915.625000", "133916.085000", "133916.545000", "133917.005000", "133917.465000", "133917.925000", "133918.385000", "133918.845000", "133919.305000", "133919.765000", "133920.225000", "133920.685000", "133921.145000", "133921.605000", "133922.065000", "133922.525000", "133922.985000"],
