{
  "AcquisitionMatrixPE": 82,
  "AcquisitionNumber": 1,
  "AcquisitionTime": "11:35:30.575000",
  "BandwidthPerPixelPhaseEncode": 24.888,
  "BaseResolution": 82,
  "BodyPartExamined": "BRAIN",
  "ConsistencyInfo": "N4_VE11E_LATEST_20181129",
  "ConversionSoftware": "dcm2niix",
  "ConversionSoftwareVersion": "v1.0.20201102",
  "DerivedVendorReportedEchoSpacing": 0.00049,
  "DeviceSerialNumber": "66112",
  "DwellTime": 2e-06,
  "EchoTime": 0.0272,
  "EchoTrainLength": 82,
  "EffectiveEchoSpacing": 0.00049,
  "FlipAngle": 44,
  "ImageComments": "Unaliased MB8/PE3",
  "ImageOrientationPatientDICOM": [0.991749, -0.0432748, 0.12067, 0.0282218, 0.991909, 0.123773],
  "ImageType": [
    "ORIGINAL",
    "PRIMARY",
    "M",
    "MB",
    "ND",
    "NORM",
    "MOSAIC"
],
  "ImagingFrequency": 123.252,
  "InPlanePhaseEncodingDirectionDICOM": "COL",
  "InstitutionAddress": "Maynard 3,Hanover,NH,US,03755",
  "InstitutionName": "dartmouth_brain_imaging_center",
  "InstitutionalDepartmentName": "Department",
  "MRAcquisitionType": "2D",
  "MagneticFieldStrength": 3,
  "Manufacturer": "Siemens",
  "ManufacturersModelName": "Prisma",
  "Modality": "MR",
  "MultibandAccelerationFactor": 8,
  "PartialFourier": 1,
  "PatientPosition": "HFS",
  "PercentPhaseFOV": 100,
  "PercentSampling": 100,
  "PhaseEncodingDirection": "j-",
  "PhaseEncodingSteps": 82,
  "PhaseResolution": 1,
  "PixelBandwidth": 3050,
  "ProcedureStepDescription": "Wager_Wager^1076_spacetop",
  "ProtocolName": "func_run-01_task-social_acq-ap-mb8",
  "PulseSequenceDetails": "%CustomerSeq%\\cmrr_mbep2d_bold",
  "ReceiveCoilActiveElements": "HEA;HEP",
  "ReceiveCoilName": "Head_32",
  "ReconMatrixPE": 82,
  "RepetitionTime": 0.46,
  "SAR": 0.0886593,
  "ScanOptions": "FS",
  "ScanningSequence": "EP",
  "SequenceName": "epfid2d1_82",
  "SequenceVariant": "SK\\SS",
  "SeriesDescription": "func_run-01_task-social_acq-ap-mb8",
  "SeriesNumber": 12,
  "ShimSetting": [4158, -7743, -7276, 651, -48, -146, 95, 79],
  "SliceThickness": 2.7,
  "SliceTiming": [0, 0.25, 0.0625, 0.3125, 0.125, 0.3775, 0.1875, 0, 0.25, 0.0625, 0.3125, 0.125, 0.3775, 0.1875, 0, 0.25, 0.0625, 0.3125, 0.125, 0.3775, 0.1875, 0, 0.25, 0.0625, 0.3125, 0.125, 0.3775, 0.1875, 0, 0.25, 0.0625, 0.3125, 0.125, 0.3775, 0.1875, 0, 0.25, 0.0625, 0.3125, 0.125, 0.3775, 0.1875, 0, 0.25, 0.0625, 0.3125, 0.125, 0.3775, 0.1875, 0, 0.25, 0.0625, 0.3125, 0.125, 0.3775, 0.1875],
  "SoftwareVersions": "syngo MR E11",
  "SpacingBetweenSlices": 2.7,
  "StationName": "AWP66112",
  "TaskName": "social",
  "TotalReadoutTime": 0.03969,
  "TxRefAmp": 246.838,
  "WipMemBlock": "de5fe685-07a7-45ca-8a7b-5725e1cdd2b2||Sequence: R016 ve11e/master r/434b28f1; Aug  7 2019 18:53:46 by eja",
  "dcmmeta_affine": [
    [-2.660789966583252, 0.07571690529584885, 0.3376350402832031, 101.01716613769531],
    [0.11610306799411774, 2.661219596862793, 0.322236031293869, -106.7984848022461],
    [0.32374897599220276, -0.3320751190185547, 2.6593546867370605, -78.444580078125],
    [0.0, 0.0, 0.0, 1.0]
],
  "dcmmeta_reorient_transform": [
    [0.0, -1.0, 0.0, 81.0],
    [1.0, 0.0, 0.0, 0.0],
    [0.0, 0.0, 1.0, 0.0],
    [0.0, 0.0, 0.0, 1.0]
],
  "dcmmeta_shape": [82, 82, 56, 872],
  "dcmmeta_slice_dim": 2,
  "dcmmeta_version": 0.6,
  "global": {
    "const": {
      "AccessionNumber": "A003898",
      "AcquisitionMatrix": [82, 0, 0, 82],
      "AngioFlag": "N",
      "BitsAllocated": 16,
      "BitsStored": 16,
      "BodyPartExamined": "BRAIN",
      "Columns": 656,
      "EchoNumbers": 1,
      "EchoTime": 27.2,
      "EchoTrainLength": 82,
      "FlipAngle": 44.0,
      "HighBit": 15,
      "ImageOrientationPatient": [0.99174897434444, -0.0432747789997, 0.12067006832378, 0.02822175442311, 0.99190910102787, 0.12377345383955],
      "ImagePositionPatient": [-892.52771244139, -839.20874717934, -293.56418494242],
      "ImageType": [
        "ORIGINAL",
        "PRIMARY",
        "M",
        "MB",
        "ND",
        "NORM",
        "MOSAIC"
],
      "ImagedNucleus": "1H",
      "ImagingFrequency": 123.252198,
      "InPlanePhaseEncodingDirection": "COL",
      "MRAcquisitionType": "2D",
      "MagneticFieldStrength": 3.0,
      "Manufacturer": "SIEMENS",
      "ManufacturerModelName": "Prisma",
      "Modality": "MR",
      "NumberOfAverages": 1.0,
      "NumberOfPhaseEncodingSteps": 82,
      "PercentPhaseFieldOfView": 100.0,
      "PercentSampling": 100.0,
      "PerformedProcedureStepStartTime": "105657.142000",
      "PhotometricInterpretation": "MONOCHROME2",
      "PixelBandwidth": 3050.0,
      "PixelRepresentation": 0,
      "PixelSpacing": [2.6829268932343, 2.6829268932343],
      "ProtocolName": "func_run-01_task-social_acq-ap-mb8",
      "RepetitionTime": 460.0,
      "Rows": 656,
      "SAR": 0.08865930346045,
      "SamplesPerPixel": 1,
      "ScanOptions": "FS",
      "ScanningSequence": "EP",
      "SequenceName": "epfid2d1_82",
      "SequenceVariant": [
        "SK",
        "SS"
],
      "SeriesDescription": "func_run-01_task-social_acq-ap-mb8",
      "SeriesNumber": 12,
      "SeriesTime": "113552.715000",
      "SliceLocation": -77.377535096876,
      "SliceThickness": 2.7000000476837,
      "SmallestImagePixelValue": 0,
      "SoftwareVersions": "syngo MR E11",
      "SpacingBetweenSlices": 2.7000000720111,
      "SpecificCharacterSet": "ISO_IR 100",
      "StudyID": "1",
      "StudyTime": "105656.974000",
      "TransmitCoilName": "Body",
      "VariableFlipAngleFlag": "N",
      "WindowCenterWidthExplanation": "Algo1"
    },
    "slices": {}
  },
  "time": {
    "samples": {
      "AcquisitionNumber": [1, 2, 3, 4, 5, 6, 7, 8, 9, 10, 11, 12, 13, 14, 15, 16, 17, 18, 19, 20, 21, 22, 23, 24, 25, 26, 27, 28, 29, 30, 31, 32, 33, 34, 35, 36, 37, 38, 39, 40, 41, 42, 43, 44, 45, 46, 47, 48, 49, 50, 51, 52, 53, 54, 55, 56, 57, 58, 59, 60, 61, 62, 63, 64, 65, 66, 67, 68, 69, 70, 71, 72, 73, 74, 75, 76, 77, 78, 79, 80, 81, 82, 83, 84, 85, 86, 87, 88, 89, 90, 91, 92, 93, 94, 95, 96, 97, 98, 99, 100, 101, 102, 103, 104, 105, 106, 107, 108, 109, 110, 111, 112, 113, 114, 115, 116, 117, 118, 119, 120, 121, 122, 123, 124, 125, 126, 127, 128, 129, 130, 131, 132, 133, 134, 135, 136, 137, 138, 139, 140, 141, 142, 143, 144, 145, 146, 147, 148, 149, 150, 151, 152, 153, 154, 155, 156, 157, 158, 159, 160, 161, 162, 163, 164, 165, 166, 167, 168, 169, 170, 171, 172, 173, 174, 175, 176, 177, 178, 179, 180, 181, 182, 183, 184, 185, 186, 187, 188, 189, 190, 191, 192, 193, 194, 195, 196, 197, 198, 199, 200, 201, 202, 203, 204, 205, 206, 207, 208, 209, 210, 211, 212, 213, 214, 215, 216, 217, 218, 219, 220, 221, 222, 223, 224, 225, 226, 227, 228, 229, 230, 231, 232, 233, 234, 235, 236, 237, 238, 239, 240, 241, 242, 243, 244, 245, 246, 247, 248, 249, 250, 251, 252, 253, 254, 255, 256, 257, 258, 259, 260, 261, 262, 263, 264, 265, 266, 267, 268, 269, 270, 271, 272, 273, 274, 275, 276, 277, 278, 279, 280, 281, 282, 283, 284, 285, 286, 287, 288, 289, 290, 291, 292, 293, 294, 295, 296, 297, 298, 299, 300, 301, 302, 303, 304, 305, 306, 307, 308, 309, 310, 311, 312, 313, 314, 315, 316, 317, 318, 319, 320, 321, 322, 323, 324, 325, 326, 327, 328, 329, 330, 331, 332, 333, 334, 335, 336, 337, 338, 339, 340, 341, 342, 343, 344, 345, 346, 347, 348, 349, 350, 351, 352, 353, 354, 355, 356, 357, 358, 359, 360, 361, 362, 363, 364, 365, 366, 367, 368, 369, 370, 371, 372, 373, 374, 375, 376, 377, 378, 379, 380, 381, 382, 383, 384, 385, 386, 387, 388, 389, 390, 391, 392, 393, 394, 395, 396, 397, 398, 399, 400, 401, 402, 403, 404, 405, 406, 407, 408, 409, 410, 411, 412, 413, 414, 415, 416, 417, 418, 419, 420, 421, 422, 423, 424, 425, 426, 427, 428, 429, 430, 431, 432, 433, 434, 435, 436, 437, 438, 439, 440, 441, 442, 443, 444, 445, 446, 447, 448, 449, 450, 451, 452, 453, 454, 455, 456, 457, 458, 459, 460, 461, 462, 463, 464, 465, 466, 467, 468, 469, 470, 471, 472, 473, 474, 475, 476, 477, 478, 479, 480, 481, 482, 483, 484, 485, 486, 487, 488, 489, 490, 491, 492, 493, 494, 495, 496, 497, 498, 499, 500, 501, 502, 503, 504, 505, 506, 507, 508, 509, 510, 511, 512, 513, 514, 515, 516, 517, 518, 519, 520, 521, 522, 523, 524, 525, 526, 527, 528, 529, 530, 531, 532, 533, 534, 535, 536, 537, 538, 539, 540, 541, 542, 543, 544, 545, 546, 547, 548, 549, 550, 551, 552, 553, 554, 555, 556, 557, 558, 559, 560, 561, 562, 563, 564, 565, 566, 567, 568, 569, 570, 571, 572, 573, 574, 575, 576, 577, 578, 579, 580, 581, 582, 583, 584, 585, 586, 587, 588, 589, 590, 591, 592, 593, 594, 595, 596, 597, 598, 599, 600, 601, 602, 603, 604, 605, 606, 607, 608, 609, 610, 611, 612, 613, 614, 615, 616, 617, 618, 619, 620, 621, 622, 623, 624, 625, 626, 627, 628, 629, 630, 631, 632, 633, 634, 635, 636, 637, 638, 639, 640, 641, 642, 643, 644, 645, 646, 647, 648, 649, 650, 651, 652, 653, 654, 655, 656, 657, 658, 659, 660, 661, 662, 663, 664, 665, 666, 667, 668, 669, 670, 671, 672, 673, 674, 675, 676, 677, 678, 679, 680, 681, 682, 683, 684, 685, 686, 687, 688, 689, 690, 691, 692, 693, 694, 695, 696, 697, 698, 699, 700, 701, 702, 703, 704, 705, 706, 707, 708, 709, 710, 711, 712, 713, 714, 715, 716, 717, 718, 719, 720, 721, 722, 723, 724, 725, 726, 727, 728, 729, 730, 731, 732, 733, 734, 735, 736, 737, 738, 739, 740, 741, 742, 743, 744, 745, 746, 747, 748, 749, 750, 751, 752, 753, 754, 755, 756, 757, 758, 759, 760, 761, 762, 763, 764, 765, 766, 767, 768, 769, 770, 771, 772, 773, 774, 775, 776, 777, 778, 779, 780, 781, 782, 783, 784, 785, 786, 787, 788, 789, 790, 791, 792, 793, 794, 795, 796, 797, 798, 799, 800, 801, 802, 803, 804, 805, 806, 807, 808, 809, 810, 811, 812, 813, 814, 815, 816, 817, 818, 819, 820, 821, 822, 823, 824, 825, 826, 827, 828, 829, 830, 831, 832, 833, 834, 835, 836, 837, 838, 839, 840, 841, 842, 843, 844, 845, 846, 847, 848, 849, 850, 851, 852, 853, 854, 855, 856, 857, 858, 859, 860, 861, 862, 863, 864, 865, 866, 867, 868, 869, 870, 871, 872],
      "AcquisitionTime": ["113530.575000", "113531.035000", "113531.495000", "113531.955000", "113532.415000", "113532.875000", "113533.335000", "113533.795000", "113534.255000", "113534.715000", "113535.175000", "113535.635000", "113536.095000", "113536.555000", "113537.015000", "113537.475000", "113537.935000", "113538.395000", "113538.855000", "113539.315000", "113539.775000", "113540.235000", "113540.695000", "113541.155000", "113541.615000", "113542.075000", "113542.535000", "113542.995000", "113543.455000", "113543.915000", "113544.375000", "113544.835000", "113545.295000", "113545.755000", "113546.215000", "113546.675000", "113547.135000", "113547.595000", "113548.055000", "113548.515000", "113548.975000", "113549.435000", "113549.895000", "113550.355000", "113550.815000", "113551.275000", "113551.735000", "113552.195000", "113552.655000", "113553.115000", "113553.575000", "113554.035000", "113554.495000", "113554.955000", "113555.415000", "113555.875000", "113556.335000", "113556.795000", "113557.255000", "113557.715000", "113558.175000", "113558.635000", "113559.095000", "113559.555000", "113600.015000", "113600.475000", "113600.935000", "113601.395000", "113601.855000", "113602.315000", "113602.775000", "113603.235000", "113603.695000", "113604.155000", "113604.615000", "113605.075000", "113605.535000", "113605.995000", "113606.455000", "113606.915000", "113607.375000", "113607.835000", "113608.295000", "113608.755000", "113609.215000", "113609.675000", "113610.135000", "113610.595000", "113611.055000", "113611.515000", "113611.975000", "113612.435000", "113612.895000", "113613.355000", "113613.815000", "113614.275000", "113614.735000", "113615.195000", "113615.655000", "113616.115000", "113616.575000", "113617.035000", "113617.495000", "113617.955000", "113618.415000", "113618.875000", "113619.335000", "113619.795000", "113620.255000", "113620.715000", "113621.175000", "113621.635000", "113622.095000", "113622.555000", "113623.015000", "113623.475000", "113623.935000", "113624.395000", "113624.855000", "113625.315000", "113625.775000", "113626.235000", "113626.695000", "113627.155000", "113627.615000", "113628.075000", "113628.535000", "113628.995000", "113629.455000", "113629.915000", "113630.375000", "113630.835000", "113631.295000", "113631.755000", "113632.215000", "113632.675000", "113633.135000", "113633.595000", "113634.055000", "113634.515000", "113634.975000", "113635.435000", "113635.895000", "113636.355000", "113636.815000", "113637.275000", "113637.735000", "113638.195000", "113638.655000", "113639.115000", "113639.575000", "113640.035000", "113640.495000", "113640.955000", "113641.415000", "113641.875000", "113642.335000", "113642.795000", "113643.255000", "113643.715000", "113644.175000", "113644.635000", "113645.095000", "113645.555000", "113646.015000", "113646.475000", "113646.935000", "113647.395000", "113647.855000", "113648.315000", "113648.775000", "113649.235000", "113649.695000", "113650.155000", "113650.615000", "113651.075000", "113651.535000", "113651.995000", "113652.455000", "113652.915000", "113653.375000", "113653.835000", "113654.295000", "113654.755000", "113655.215000", "113655.675000", "113656.135000", "113656.595000", "113657.055000", "113657.515000", "113657.975000", "113658.435000", "113658.895000", "113659.355000", "113659.815000", "113700.275000", "113700.735000", "113701.195000", "113701.655000", "113702.115000", "113702.575000", "113703.035000", "113703.495000", "113703.955000", "113704.415000", "113704.875000", "113705.335000", "113705.795000", "113706.255000", "113706.715000", "113707.175000", "113707.635000", "113708.095000", "113708.555000", "113709.015000", "113709.475000", "113709.935000", "113710.395000", "113710.855000", "113711.315000", "113711.775000", "113712.235000", "113712.695000", "113713.155000", "113713.615000", "113714.075000", "113714.535000", "113714.995000", "113715.455000", "113715.915000", "113716.375000", "113716.835000", "113717.295000", "113717.755000", "113718.215000", "113718.675000", "113719.135000", "113719.595000", "113720.055000", "113720.515000", "113720.975000", "113721.435000", "113721.895000", "113722.355000", "113722.815000", "113723.275000", "113723.735000", "113724.195000", "113724.655000", "113725.115000", "113725.575000", "113726.035000", "113726.495000", "113726.955000", "113727.415000", "113727.875000", "113728.335000", "113728.795000", "113729.255000", "113729.715000", "113730.175000", "113730.635000", "113731.095000", "113731.555000", "113732.015000", "113732.475000", "113732.935000", "113733.395000", "113733.855000", "113734.315000", "113734.775000", "113735.235000", "113735.695000", "113736.155000", "113736.615000", "113737.075000", "113737.535000", "113737.995000", "113738.455000", "113738.915000", "113739.375000", "113739.835000", "113740.295000", "113740.755000", "113741.215000", "113741.675000", "113742.135000", "113742.595000", "113743.055000", "113743.515000", "113743.975000", "113744.435000", "113744.895000", "113745.355000", "113745.815000", "113746.275000", "113746.735000", "113747.195000", "113747.655000", "113748.115000", "113748.575000", "113749.035000", "113749.495000", "113749.955000", "113750.415000", "113750.875000", "113751.335000", "113751.795000", "113752.255000", "113752.715000", "113753.175000", "113753.635000", "113754.095000", "113754.555000", "113755.015000", "113755.475000", "113755.935000", "113756.395000", "113756.855000", "113757.315000", "113757.775000", "113758.235000", "113758.695000", "113759.155000", "113759.615000", "113800.075000", "113800.535000", "113800.995000", "113801.455000", "113801.915000", "113802.375000", "113802.835000", "113803.295000", "113803.755000", "113804.215000", "113804.675000", "113805.135000", "113805.595000", "113806.055000", "113806.515000", "113806.975000", "113807.435000", "113807.895000", "113808.355000", "113808.815000", "113809.275000", "113809.735000", "113810.195000", "113810.655000", "113811.115000", "113811.575000", "113812.035000", "113812.495000", "113812.955000", "113813.415000", "113813.875000", "113814.335000", "113814.795000", "113815.255000", "113815.715000", "113816.175000", "113816.635000", "113817.095000", "113817.555000", "113818.015000", "113818.475000", "113818.935000", "113819.395000", "113819.855000", "113820.315000", "113820.775000", "113821.235000", "113821.695000", "113822.155000", "113822.615000", "113823.075000", "113823.535000", "113823.995000", "113824.455000", "113824.915000", "113825.375000", "113825.835000", "113826.295000", "113826.755000", "113827.215000", "113827.675000", "113828.135000", "113828.595000", "113829.055000", "113829.515000", "113829.975000", "113830.435000", "113830.895000", "113831.355000", "113831.815000", "113832.275000", "113832.735000", "113833.195000", "113833.655000", "113834.115000", "113834.575000", "113835.035000", "113835.495000", "113835.955000", "113836.415000", "113836.875000", "113837.335000", "113837.795000", "113838.255000", "113838.715000", "113839.175000", "113839.635000", "113840.095000", "113840.555000", "113841.015000", "113841.475000", "113841.935000", "113842.395000", "113842.855000", "113843.315000", "113843.775000", "113844.235000", "113844.695000", "113845.155000", "113845.615000", "113846.075000", "113846.535000", "113846.995000", "113847.455000", "113847.915000", "113848.375000", "113848.835000", "113849.295000", "113849.755000", "113850.215000", "113850.675000", "113851.135000", "113851.595000", "113852.055000", "113852.515000", "113852.975000", "113853.435000", "113853.895000", "113854.355000", "113854.815000", "113855.275000", "113855.735000", "113856.195000", "113856.655000", "113857.115000", "113857.575000", "113858.035000", "113858.495000", "113858.955000", "113859.415000", "113859.875000", "113900.335000", "113900.795000", "113901.255000", "113901.715000", "113902.175000", "113902.635000", "113903.095000", "113903.555000", "113904.015000", "113904.475000", "113904.935000", "113905.395000", "113905.855000", "113906.315000", "113906.775000", "113907.235000", "113907.695000", "113908.155000", "113908.615000", "113909.075000", "113909.535000", "113909.995000", "113910.455000", "113910.915000", "113911.375000", "113911.835000", "113912.295000", "113912.755000", "113913.215000", "113913.675000", "113914.135000", "113914.595000", "113915.055000", "113915.515000", "113915.975000", "113916.435000", "113916.895000", "113917.355000", "113917.815000", "113918.275000", "113918.735000", "113919.195000", "113919.655000", "113920.115000", "113920.575000", "113921.035000", "113921.495000", "113921.955000", "113922.415000", "113922.875000", "113923.335000", "113923.795000", "113924.255000", "113924.715000", "113925.175000", "113925.635000", "113926.095000", "113926.555000", "113927.015000", "113927.475000", "113927.935000", "113928.395000", "113928.855000", "113929.315000", "113929.775000", "113930.235000", "113930.695000", "113931.155000", "113931.615000", "113932.075000", "113932.535000", "113932.995000", "113933.455000", "113933.915000", "113934.375000", "113934.835000", "113935.295000", "113935.755000", "113936.215000", "113936.675000", "113937.135000", "113937.595000", "113938.055000", "113938.515000", "113938.975000", "113939.435000", "113939.895000", "113940.355000", "113940.815000", "113941.275000", "113941.735000", "113942.195000", "113942.655000", "113943.115000", "113943.575000", "113944.035000", "113944.495000", "113944.955000", "113945.415000", "113945.875000", "113946.335000", "113946.795000", "113947.255000", "113947.715000", "113948.175000", "113948.635000", "113949.095000", "113949.555000", "113950.015000", "113950.475000", "113950.935000", "113951.395000", "113951.855000", "113952.315000", "113952.775000", "113953.235000", "113953.695000", "113954.155000", "113954.615000", "113955.075000", "113955.535000", "113955.995000", "113956.455000", "113956.915000", "113957.375000", "113957.835000", "113958.295000", "113958.755000", "113959.215000", "113959.675000", "114000.135000", "114000.595000", "114001.055000", "114001.515000", "114001.975000", "114002.435000", "114002.895000", "114003.355000", "114003.815000", "114004.275000", "114004.735000", "114005.195000", "114005.655000", "114006.115000", "114006.575000", "114007.035000", "114007.495000", "114007.955000", "114008.415000", "114008.875000", "114009.335000", "114009.795000", "114010.255000", "114010.715000", "114011.175000", "114011.635000", "114012.095000", "114012.555000", "114013.015000", "114013.475000", "114013.935000", "114014.395000", "114014.855000", "114015.315000", "114015.775000", "114016.235000", "114016.695000", "114017.155000", "114017.615000", "114018.075000", "114018.535000", "114018.995000", "114019.455000", "114019.915000", "114020.375000", "114020.835000", "114021.295000", "114021.755000", "114022.215000", "114022.675000", "114023.135000", "114023.595000", "114024.055000", "114024.515000", "114024.975000", "114025.435000", "114025.895000", "114026.355000", "114026.815000", "114027.275000", "114027.735000", "114028.195000", "114028.655000", "114029.115000", "114029.575000", "114030.035000", "114030.495000", "114030.955000", "114031.415000", "114031.875000", "114032.335000", "114032.795000", "114033.255000", "114033.715000", "114034.175000", "114034.635000", "114035.095000", "114035.555000", "114036.015000", "114036.475000", "114036.935000", "114037.395000", "114037.855000", "114038.315000", "114038.775000", "114039.235000", "114039.695000", "114040.155000", "114040.615000", "114041.075000", "114041.535000", "114041.995000", "114042.455000", "114042.915000", "114043.375000", "114043.835000", "114044.295000", "114044.755000", "114045.215000", "114045.675000", "114046.135000", "114046.595000", "114047.055000", "114047.515000", "114047.975000", "114048.435000", "114048.895000", "114049.355000", "114049.815000", "114050.275000", "114050.735000", "114051.195000", "114051.655000", "114052.115000", "114052.575000", "114053.035000", "114053.495000", "114053.955000", "114054.415000", "114054.875000", "114055.335000", "114055.795000", "114056.255000", "114056.715000", "114057.175000", "114057.635000", "114058.095000", "114058.555000", "114059.015000", "114059.475000", "114059.935000", "114100.395000", "114100.855000", "114101.315000", "114101.775000", "114102.235000", "114102.695000", "114103.155000", "114103.615000", "114104.075000", "114104.535000", "114104.995000", "114105.455000", "114105.915000", "114106.375000", "114106.835000", "114107.295000", "114107.755000", "114108.215000", "114108.675000", "114109.135000", "114109.595000", "114110.055000", "114110.515000", "114110.975000", "114111.435000", "114111.895000", "114112.355000", "114112.815000", "114113.275000", "114113.735000", "114114.195000", "114114.655000", "114115.115000", "114115.575000", "114116.035000", "114116.495000", "114116.955000", "114117.415000", "114117.875000", "114118.335000", "114118.795000", "114119.255000", "114119.715000", "114120.175000", "114120.635000", "114121.095000", "114121.555000", "114122.015000", "114122.475000", "114122.935000", "114123.395000", "114123.855000", "114124.315000", "114124.775000", "114125.235000", "114125.695000", "114126.155000", "114126.615000", "114127.075000", "114127.535000", "114127.995000", "114128.455000", "114128.915000", "114129.375000", "114129.835000", "114130.295000", "114130.755000", "114131.215000", "114131.675000", "114132.135000", "114132.595000", "114133.055000", "114133.515000", "114133.975000", "114134.435000", "114134.895000", "114135.355000", "114135.815000", "114136.275000", "114136.735000", "114137.195000", "114137.655000", "114138.115000", "114138.575000", "114139.035000", "114139.495000", "114139.955000", "114140.415000", "114140.875000", "114141.335000", "114141.795000", "114142.255000", "114142.715000", "114143.175000", "114143.635000", "114144.095000", "114144.555000", "114145.015000", "114145.475000", "114145.935000", "114146.395000", "114146.855000", "114147.315000", "114147.775000", "114148.235000", "114148.695000", "114149.155000", "114149.615000", "114150.075000", "114150.535000", "114150.995000", "114151.455000", "114151.915000", "114152.375000", "114152.835000", "114153.295000", "114153.755000", "114154.215000", "114154.675000", "114155.135000", "114155.595000", "114156.055000", "114156.515000", "114156.975000", "114157.435000", "114157.895000", "114158.355000", "114158.815000", "114159.275000", "114159.735000", "114200.195000", "114200.655000", "114201.115000", "114201.575000", "114202.035000", "114202.495000", "114202.955000", "114203.415000", "114203.875000", "114204.335000", "114204.795000", "114205.255000", "114205.715000", "114206.175000", "114206.635000", "114207.095000", "114207.555000", "114208.015000", "114208.475000", "114208.935000", "114209.395000", "114209.855000", "114210.315000", "114210.775000", "114211.235000"],
