{
  "AcquisitionMatrixPE": 82,
  "AcquisitionNumber": 1,
  "AcquisitionTime": "11:49:39.617500",
  "BandwidthPerPixelPhaseEncode": 24.888,
  "BaseResolution": 82,
  "BodyPartExamined": "BRAIN",
  "ConsistencyInfo": "N4_VE11E_LATEST_20181129",
  "ConversionSoftware": "dcm2niix",
  "ConversionSoftwareVersion": "v1.0.20201102",
  "DerivedVendorReportedEchoSpacing": 0.00049,
  "DeviceSerialNumber": "66112",
  "DwellTime": 2e-06,
  "EchoTime": 0.0272,
  "EchoTrainLength": 82,
  "EffectiveEchoSpacing": 0.00049,
  "FlipAngle": 44,
  "ImageComments": "Unaliased MB8/PE3",
  "ImageOrientationPatientDICOM": [0.991749, -0.0432748, 0.12067, 0.0282218, 0.991909, 0.123773],
  "ImageType": [
    "ORIGINAL",
    "PRIMARY",
    "M",
    "MB",
    "ND",
    "NORM",
    "MOSAIC"
],
  "ImagingFrequency": 123.252,
  "InPlanePhaseEncodingDirectionDICOM": "COL",
  "InstitutionAddress": "Maynard 3,Hanover,NH,US,03755",
  "InstitutionName": "dartmouth_brain_imaging_center",
  "InstitutionalDepartmentName": "Department",
  "MRAcquisitionType": "2D",
  "MagneticFieldStrength": 3,
  "Manufacturer": "Siemens",
  "ManufacturersModelName": "Prisma",
  "Modality": "MR",
  "MultibandAccelerationFactor": 8,
  "PartialFourier": 1,
  "PatientPosition": "HFS",
  "PercentPhaseFOV": 100,
  "PercentSampling": 100,
  "PhaseEncodingDirection": "j-",
  "PhaseEncodingSteps": 82,
  "PhaseResolution": 1,
  "PixelBandwidth": 3050,
  "ProcedureStepDescription": "Wager_Wager^1076_spacetop",
  "ProtocolName": "func_run-03_task-social_acq-ap-mb8",
  "PulseSequenceDetails": "%CustomerSeq%\\cmrr_mbep2d_bold",
  "ReceiveCoilActiveElements": "HEA;HEP",
  "ReceiveCoilName": "Head_32",
  "ReconMatrixPE": 82,
  "RepetitionTime": 0.46,
  "SAR": 0.0886593,
  "ScanOptions": "FS",
  "ScanningSequence": "EP",
  "SequenceName": "epfid2d1_82",
  "SequenceVariant": "SK\\SS",
  "SeriesDescription": "func_run-03_task-social_acq-ap-mb8",
  "SeriesNumber": 16,
  "ShimSetting": [4158, -7743, -7276, 651, -48, -146, 95, 79],
  "SliceThickness": 2.7,
  "SliceTiming": [0, 0.25, 0.0625, 0.315, 0.125, 0.3775, 0.1875, 0, 0.25, 0.0625, 0.315, 0.125, 0.3775, 0.1875, 0, 0.25, 0.0625, 0.315, 0.125, 0.3775, 0.1875, 0, 0.25, 0.0625, 0.315, 0.125, 0.3775, 0.1875, 0, 0.25, 0.0625, 0.315, 0.125, 0.3775, 0.1875, 0, 0.25, 0.0625, 0.315, 0.125, 0.3775, 0.1875, 0, 0.25, 0.0625, 0.315, 0.125, 0.3775, 0.1875, 0, 0.25, 0.0625, 0.315, 0.125, 0.3775, 0.1875],
  "SoftwareVersions": "syngo MR E11",
  "SpacingBetweenSlices": 2.7,
  "StationName": "AWP66112",
  "TaskName": "social",
  "TotalReadoutTime": 0.03969,
  "TxRefAmp": 246.838,
  "WipMemBlock": "d99e90fd-424d-44c0-b6f5-994ed05a9ff1||Sequence: R016 ve11e/master r/434b28f1; Aug  7 2019 18:53:46 by eja",
  "dcmmeta_affine": [
    [-2.660789966583252, 0.07571690529584885, 0.3376350402832031, 101.01716613769531],
    [0.11610306799411774, 2.661219596862793, 0.322236031293869, -106.7984848022461],
    [0.32374897599220276, -0.3320751190185547, 2.6593546867370605, -78.444580078125],
    [0.0, 0.0, 0.0, 1.0]
],
  "dcmmeta_reorient_transform": [
    [0.0, -1.0, 0.0, 81.0],
    [1.0, 0.0, 0.0, 0.0],
    [0.0, 0.0, 1.0, 0.0],
    [0.0, 0.0, 0.0, 1.0]
],
  "dcmmeta_shape": [82, 82, 56, 872],
  "dcmmeta_slice_dim": 2,
  "dcmmeta_version": 0.6,
  "global": {
    "const": {
      "AccessionNumber": "A003898",
      "AcquisitionMatrix": [82, 0, 0, 82],
      "AngioFlag": "N",
      "BitsAllocated": 16,
      "BitsStored": 16,
      "BodyPartExamined": "BRAIN",
      "Columns": 656,
      "EchoNumbers": 1,
      "EchoTime": 27.2,
      "EchoTrainLength": 82,
      "FlipAngle": 44.0,
      "HighBit": 15,
      "ImageOrientationPatient": [0.99174897434444, -0.0432747789997, 0.12067006832378, 0.02822175442311, 0.99190910102787, 0.12377345383955],
      "ImagePositionPatient": [-892.52771244139, -839.20874717934, -293.56418494242],
      "ImageType": [
        "ORIGINAL",
        "PRIMARY",
        "M",
        "MB",
        "ND",
        "NORM",
        "MOSAIC"
],
      "ImagedNucleus": "1H",
      "ImagingFrequency": 123.252209,
      "InPlanePhaseEncodingDirection": "COL",
      "MRAcquisitionType": "2D",
      "MagneticFieldStrength": 3.0,
      "Manufacturer": "SIEMENS",
      "ManufacturerModelName": "Prisma",
      "Modality": "MR",
      "NumberOfAverages": 1.0,
      "NumberOfPhaseEncodingSteps": 82,
      "PercentPhaseFieldOfView": 100.0,
      "PercentSampling": 100.0,
      "PerformedProcedureStepStartTime": "105657.142000",
      "PhotometricInterpretation": "MONOCHROME2",
      "PixelBandwidth": 3050.0,
      "PixelRepresentation": 0,
      "PixelSpacing": [2.6829268932343, 2.6829268932343],
      "ProtocolName": "func_run-03_task-social_acq-ap-mb8",
      "RepetitionTime": 460.0,
      "Rows": 656,
      "SAR": 0.08865930346045,
      "SamplesPerPixel": 1,
      "ScanOptions": "FS",
      "ScanningSequence": "EP",
      "SequenceName": "epfid2d1_82",
      "SequenceVariant": [
        "SK",
        "SS"
],
      "SeriesDescription": "func_run-03_task-social_acq-ap-mb8",
      "SeriesNumber": 16,
      "SeriesTime": "114952.886000",
      "SliceLocation": -77.377535096876,
      "SliceThickness": 2.7000000476837,
      "SmallestImagePixelValue": 0,
      "SoftwareVersions": "syngo MR E11",
      "SpacingBetweenSlices": 2.7000000720111,
      "SpecificCharacterSet": "ISO_IR 100",
      "StudyID": "1",
      "StudyTime": "105656.974000",
      "TransmitCoilName": "Body",
      "VariableFlipAngleFlag": "N",
      "WindowCenterWidthExplanation": "Algo1"
    },
    "slices": {}
  },
  "time": {
    "samples": {
      "AcquisitionNumber": [1, 2, 3, 4, 5, 6, 7, 8, 9, 10, 11, 12, 13, 14, 15, 16, 17, 18, 19, 20, 21, 22, 23, 24, 25, 26, 27, 28, 29, 30, 31, 32, 33, 34, 35, 36, 37, 38, 39, 40, 41, 42, 43, 44, 45, 46, 47, 48, 49, 50, 51, 52, 53, 54, 55, 56, 57, 58, 59, 60, 61, 62, 63, 64, 65, 66, 67, 68, 69, 70, 71, 72, 73, 74, 75, 76, 77, 78, 79, 80, 81, 82, 83, 84, 85, 86, 87, 88, 89, 90, 91, 92, 93, 94, 95, 96, 97, 98, 99, 100, 101, 102, 103, 104, 105, 106, 107, 108, 109, 110, 111, 112, 113, 114, 115, 116, 117, 118, 119, 120, 121, 122, 123, 124, 125, 126, 127, 128, 129, 130, 131, 132, 133, 134, 135, 136, 137, 138, 139, 140, 141, 142, 143, 144, 145, 146, 147, 148, 149, 150, 151, 152, 153, 154, 155, 156, 157, 158, 159, 160, 161, 162, 163, 164, 165, 166, 167, 168, 169, 170, 171, 172, 173, 174, 175, 176, 177, 178, 179, 180, 181, 182, 183, 184, 185, 186, 187, 188, 189, 190, 191, 192, 193, 194, 195, 196, 197, 198, 199, 200, 201, 202, 203, 204, 205, 206, 207, 208, 209, 210, 211, 212, 213, 214, 215, 216, 217, 218, 219, 220, 221, 222, 223, 224, 225, 226, 227, 228, 229, 230, 231, 232, 233, 234, 235, 236, 237, 238, 239, 240, 241, 242, 243, 244, 245, 246, 247, 248, 249, 250, 251, 252, 253, 254, 255, 256, 257, 258, 259, 260, 261, 262, 263, 264, 265, 266, 267, 268, 269, 270, 271, 272, 273, 274, 275, 276, 277, 278, 279, 280, 281, 282, 283, 284, 285, 286, 287, 288, 289, 290, 291, 292, 293, 294, 295, 296, 297, 298, 299, 300, 301, 302, 303, 304, 305, 306, 307, 308, 309, 310, 311, 312, 313, 314, 315, 316, 317, 318, 319, 320, 321, 322, 323, 324, 325, 326, 327, 328, 329, 330, 331, 332, 333, 334, 335, 336, 337, 338, 339, 340, 341, 342, 343, 344, 345, 346, 347, 348, 349, 350, 351, 352, 353, 354, 355, 356, 357, 358, 359, 360, 361, 362, 363, 364, 365, 366, 367, 368, 369, 370, 371, 372, 373, 374, 375, 376, 377, 378, 379, 380, 381, 382, 383, 384, 385, 386, 387, 388, 389, 390, 391, 392, 393, 394, 395, 396, 397, 398, 399, 400, 401, 402, 403, 404, 405, 406, 407, 408, 409, 410, 411, 412, 413, 414, 415, 416, 417, 418, 419, 420, 421, 422, 423, 424, 425, 426, 427, 428, 429, 430, 431, 432, 433, 434, 435, 436, 437, 438, 439, 440, 441, 442, 443, 444, 445, 446, 447, 448, 449, 450, 451, 452, 453, 454, 455, 456, 457, 458, 459, 460, 461, 462, 463, 464, 465, 466, 467, 468, 469, 470, 471, 472, 473, 474, 475, 476, 477, 478, 479, 480, 481, 482, 483, 484, 485, 486, 487, 488, 489, 490, 491, 492, 493, 494, 495, 496, 497, 498, 499, 500, 501, 502, 503, 504, 505, 506, 507, 508, 509, 510, 511, 512, 513, 514, 515, 516, 517, 518, 519, 520, 521, 522, 523, 524, 525, 526, 527, 528, 529, 530, 531, 532, 533, 534, 535, 536, 537, 538, 539, 540, 541, 542, 543, 544, 545, 546, 547, 548, 549, 550, 551, 552, 553, 554, 555, 556, 557, 558, 559, 560, 561, 562, 563, 564, 565, 566, 567, 568, 569, 570, 571, 572, 573, 574, 575, 576, 577, 578, 579, 580, 581, 582, 583, 584, 585, 586, 587, 588, 589, 590, 591, 592, 593, 594, 595, 596, 597, 598, 599, 600, 601, 602, 603, 604, 605, 606, 607, 608, 609, 610, 611, 612, 613, 614, 615, 616, 617, 618, 619, 620, 621, 622, 623, 624, 625, 626, 627, 628, 629, 630, 631, 632, 633, 634, 635, 636, 637, 638, 639, 640, 641, 642, 643, 644, 645, 646, 647, 648, 649, 650, 651, 652, 653, 654, 655, 656, 657, 658, 659, 660, 661, 662, 663, 664, 665, 666, 667, 668, 669, 670, 671, 672, 673, 674, 675, 676, 677, 678, 679, 680, 681, 682, 683, 684, 685, 686, 687, 688, 689, 690, 691, 692, 693, 694, 695, 696, 697, 698, 699, 700, 701, 702, 703, 704, 705, 706, 707, 708, 709, 710, 711, 712, 713, 714, 715, 716, 717, 718, 719, 720, 721, 722, 723, 724, 725, 726, 727, 728, 729, 730, 731, 732, 733, 734, 735, 736, 737, 738, 739, 740, 741, 742, 743, 744, 745, 746, 747, 748, 749, 750, 751, 752, 753, 754, 755, 756, 757, 758, 759, 760, 761, 762, 763, 764, 765, 766, 767, 768, 769, 770, 771, 772, 773, 774, 775, 776, 777, 778, 779, 780, 781, 782, 783, 784, 785, 786, 787, 788, 789, 790, 791, 792, 793, 794, 795, 796, 797, 798, 799, 800, 801, 802, 803, 804, 805, 806, 807, 808, 809, 810, 811, 812, 813, 814, 815, 816, 817, 818, 819, 820, 821, 822, 823, 824, 825, 826, 827, 828, 829, 830, 831, 832, 833, 834, 835, 836, 837, 838, 839, 840, 841, 842, 843, 844, 845, 846, 847, 848, 849, 850, 851, 852, 853, 854, 855, 856, 857, 858, 859, 860, 861, 862, 863, 864, 865, 866, 867, 868, 869, 870, 871, 872],
      "AcquisitionTime": ["114939.617500", "114940.077500", "114940.537500", "114940.997500", "114941.457500", "114941.917500", "114942.377500", "114942.837500", "114943.297500", "114943.757500", "114944.217500", "114944.677500", "114945.137500", "114945.597500", "114946.057500", "114946.517500", "114946.977500", "114947.437500", "114947.897500", "114948.357500", "114948.817500", "114949.277500", "114949.737500", "114950.197500", "114950.657500", "114951.117500", "114951.577500", "114952.037500", "114952.497500", "114952.957500", "114953.417500", "114953.877500", "114954.337500", "114954.797500", "114955.257500", "114955.717500", "114956.177500", "114956.637500", "114957.097500", "114957.557500", "114958.017500", "114958.477500", "114958.937500", "114959.397500", "114959.857500", "115000.317500", "115000.777500", "115001.237500", "115001.697500", "115002.157500", "115002.617500", "115003.077500", "115003.537500", "115003.997500", "115004.457500", "115004.917500", "115005.377500", "115005.837500", "115006.297500", "115006.757500", "115007.217500", "115007.677500", "115008.137500", "115008.597500", "115009.057500", "115009.517500", "115009.977500", "115010.437500", "115010.897500", "115011.357500", "115011.817500", "115012.277500", "115012.737500", "115013.197500", "115013.657500", "115014.117500", "115014.577500", "115015.037500", "115015.497500", "115015.957500", "115016.417500", "115016.877500", "115017.337500", "115017.797500", "115018.257500", "115018.717500", "115019.177500", "115019.637500", "115020.097500", "115020.557500", "115021.017500", "115021.477500", "115021.937500", "115022.397500", "115022.857500", "115023.317500", "115023.777500", "115024.237500", "115024.697500", "115025.157500", "115025.617500", "115026.077500", "115026.537500", "115026.997500", "115027.457500", "115027.917500", "115028.377500", "115028.837500", "115029.297500", "115029.757500", "115030.217500", "115030.677500", "115031.137500", "115031.597500", "115032.057500", "115032.517500", "115032.977500", "115033.437500", "115033.897500", "115034.357500", "115034.817500", "115035.277500", "115035.737500", "115036.197500", "115036.657500", "115037.117500", "115037.577500", "115038.037500", "115038.497500", "115038.957500", "115039.417500", "115039.877500", "115040.337500", "115040.797500", "115041.257500", "115041.717500", "115042.177500", "115042.637500", "115043.097500", "115043.557500", "115044.017500", "115044.477500", "115044.937500", "115045.397500", "115045.857500", "115046.317500", "115046.777500", "115047.237500", "115047.697500", "115048.157500", "115048.617500", "115049.077500", "115049.537500", "115049.997500", "115050.457500", "115050.917500", "115051.377500", "115051.837500", "115052.297500", "115052.757500", "115053.217500", "115053.677500", "115054.137500", "115054.597500", "115055.057500", "115055.517500", "115055.977500", "115056.437500", "115056.897500", "115057.357500", "115057.817500", "115058.277500", "115058.737500", "115059.197500", "115059.657500", "115100.117500", "115100.577500", "115101.037500", "115101.497500", "115101.957500", "115102.417500", "115102.877500", "115103.337500", "115103.797500", "115104.257500", "115104.717500", "115105.177500", "115105.637500", "115106.097500", "115106.557500", "115107.017500", "115107.477500", "115107.937500", "115108.397500", "115108.857500", "115109.317500", "115109.777500", "115110.237500", "115110.697500", "115111.157500", "115111.617500", "115112.077500", "115112.537500", "115112.997500", "115113.457500", "115113.917500", "115114.377500", "115114.837500", "115115.297500", "115115.757500", "115116.217500", "115116.677500", "115117.137500", "115117.597500", "115118.057500", "115118.517500", "115118.977500", "115119.437500", "115119.897500", "115120.357500", "115120.817500", "115121.277500", "115121.737500", "115122.197500", "115122.657500", "115123.117500", "115123.577500", "115124.037500", "115124.497500", "115124.957500", "115125.417500", "115125.877500", "115126.337500", "115126.797500", "115127.257500", "115127.717500", "115128.177500", "115128.637500", "115129.097500", "115129.557500", "115130.017500", "115130.477500", "115130.937500", "115131.397500", "115131.857500", "115132.317500", "115132.777500", "115133.237500", "115133.697500", "115134.157500", "115134.617500", "115135.077500", "115135.537500", "115135.997500", "115136.457500", "115136.917500", "115137.377500", "115137.837500", "115138.297500", "115138.757500", "115139.217500", "115139.677500", "115140.137500", "115140.597500", "115141.057500", "115141.517500", "115141.977500", "115142.437500", "115142.897500", "115143.357500", "115143.817500", "115144.277500", "115144.737500", "115145.197500", "115145.657500", "115146.117500", "115146.577500", "115147.037500", "115147.497500", "115147.957500", "115148.417500", "115148.877500", "115149.337500", "115149.797500", "115150.257500", "115150.717500", "115151.177500", "115151.637500", "115152.097500", "115152.557500", "115153.017500", "115153.477500", "115153.937500", "115154.397500", "115154.857500", "115155.317500", "115155.777500", "115156.237500", "115156.697500", "115157.157500", "115157.617500", "115158.077500", "115158.537500", "115158.997500", "115159.457500", "115159.917500", "115200.377500", "115200.837500", "115201.297500", "115201.757500", "115202.217500", "115202.677500", "115203.137500", "115203.597500", "115204.057500", "115204.517500", "115204.977500", "115205.437500", "115205.897500", "115206.357500", "115206.817500", "115207.277500", "115207.737500", "115208.197500", "115208.657500", "115209.117500", "115209.577500", "115210.037500", "115210.497500", "115210.957500", "115211.417500", "115211.877500", "115212.337500", "115212.797500", "115213.257500", "115213.717500", "115214.177500", "115214.637500", "115215.097500", "115215.557500", "115216.017500", "115216.477500", "115216.937500", "115217.397500", "115217.857500", "115218.317500", "115218.777500", "115219.237500", "115219.697500", "115220.157500", "115220.617500", "115221.077500", "115221.537500", "115221.997500", "115222.457500", "115222.917500", "115223.377500", "115223.837500", "115224.297500", "115224.757500", "115225.217500", "115225.677500", "115226.137500", "115226.597500", "115227.057500", "115227.517500", "115227.977500", "115228.437500", "115228.897500", "115229.357500", "115229.817500", "115230.277500", "115230.737500", "115231.197500", "115231.657500", "115232.117500", "115232.577500", "115233.037500", "115233.497500", "115233.957500", "115234.417500", "115234.877500", "115235.337500", "115235.797500", "115236.257500", "115236.717500", "115237.177500", "115237.637500", "115238.097500", "115238.557500", "115239.017500", "115239.477500", "115239.937500", "115240.397500", "115240.857500", "115241.317500", "115241.777500", "115242.237500", "115242.697500", "115243.157500", "115243.617500", "115244.077500", "115244.537500", "115244.997500", "115245.457500", "115245.917500", "115246.377500", "115246.837500", "115247.297500", "115247.757500", "115248.217500", "115248.677500", "115249.137500", "115249.597500", "115250.057500", "115250.517500", "115250.977500", "115251.437500", "115251.897500", "115252.357500", "115252.817500", "115253.277500", "115253.737500", "115254.197500", "115254.657500", "115255.117500", "115255.577500", "115256.037500", "115256.497500", "115256.957500", "115257.417500", "115257.877500", "115258.337500", "115258.797500", "115259.257500", "115259.717500", "115300.177500", "115300.637500", "115301.097500", "115301.557500", "115302.017500", "115302.477500", "115302.937500", "115303.397500", "115303.857500", "115304.317500", "115304.777500", "115305.237500", "115305.697500", "115306.157500", "115306.617500", "115307.077500", "115307.537500", "115307.997500", "115308.457500", "115308.917500", "115309.377500", "115309.837500", "115310.297500", "115310.757500", "115311.217500", "115311.677500", "115312.137500", "115312.597500", "115313.057500", "115313.517500", "115313.977500", "115314.437500", "115314.897500", "115315.357500", "115315.817500", "115316.277500", "115316.737500", "115317.197500", "115317.657500", "115318.117500", "115318.577500", "115319.037500", "115319.497500", "115319.957500", "115320.417500", "115320.877500", "115321.337500", "115321.797500", "115322.257500", "115322.717500", "115323.177500", "115323.637500", "115324.097500", "115324.557500", "115325.017500", "115325.477500", "115325.937500", "115326.397500", "115326.857500", "115327.317500", "115327.777500", "115328.237500", "115328.697500", "115329.157500", "115329.617500", "115330.077500", "115330.537500", "115330.997500", "115331.457500", "115331.917500", "115332.377500", "115332.837500", "115333.297500", "115333.757500", "115334.217500", "115334.677500", "115335.137500", "115335.597500", "115336.057500", "115336.517500", "115336.977500", "115337.437500", "115337.897500", "115338.357500", "115338.817500", "115339.277500", "115339.737500", "115340.197500", "115340.657500", "115341.117500", "115341.577500", "115342.037500", "115342.497500", "115342.957500", "115343.417500", "115343.877500", "115344.337500", "115344.797500", "115345.257500", "115345.717500", "115346.177500", "115346.637500", "115347.097500", "115347.557500", "115348.017500", "115348.477500", "115348.937500", "115349.397500", "115349.857500", "115350.317500", "115350.777500", "115351.237500", "115351.697500", "115352.157500", "115352.617500", "115353.077500", "115353.537500", "115353.997500", "115354.457500", "115354.917500", "115355.377500", "115355.837500", "115356.297500", "115356.757500", "115357.217500", "115357.677500", "115358.137500", "115358.597500", "115359.057500", "115359.517500", "115359.977500", "115400.437500", "115400.897500", "115401.357500", "115401.817500", "115402.277500", "115402.737500", "115403.197500", "115403.657500", "115404.117500", "115404.577500", "115405.037500", "115405.497500", "115405.957500", "115406.417500", "115406.877500", "115407.337500", "115407.797500", "115408.257500", "115408.717500", "115409.177500", "115409.637500", "115410.097500", "115410.557500", "115411.017500", "115411.477500", "115411.937500", "115412.397500", "115412.857500", "115413.317500", "115413.777500", "115414.237500", "115414.697500", "115415.157500", "115415.617500", "115416.077500", "115416.537500", "115416.997500", "115417.457500", "115417.917500", "115418.377500", "115418.837500", "115419.297500", "115419.757500", "115420.217500", "115420.677500", "115421.137500", "115421.597500", "115422.057500", "115422.517500", "115422.977500", "115423.437500", "115423.897500", "115424.357500", "115424.817500", "115425.277500", "115425.737500", "115426.197500", "115426.657500", "115427.117500", "115427.577500", "115428.037500", "115428.497500", "115428.957500", "115429.417500", "115429.877500", "115430.337500", "115430.797500", "115431.257500", "115431.717500", "115432.177500", "115432.637500", "115433.097500", "115433.557500", "115434.017500", "115434.477500", "115434.937500", "115435.397500", "115435.857500", "115436.317500", "115436.777500", "115437.237500", "115437.697500", "115438.157500", "115438.617500", "115439.077500", "115439.537500", "115439.997500", "115440.457500", "115440.917500", "115441.377500", "115441.837500", "115442.297500", "115442.757500", "115443.217500", "115443.677500", "115444.137500", "115444.597500", "115445.057500", "115445.517500", "115445.977500", "115446.437500", "115446.897500", "115447.357500", "115447.817500", "115448.277500", "115448.737500", "115449.197500", "115449.657500", "115450.117500", "115450.577500", "115451.037500", "115451.497500", "115451.957500", "115452.417500", "115452.877500", "115453.337500", "115453.797500", "115454.257500", "115454.717500", "115455.177500", "115455.637500", "115456.097500", "115456.557500", "115457.017500", "115457.477500", "115457.937500", "115458.397500", "115458.857500", "115459.317500", "115459.777500", "115500.237500", "115500.697500", "115501.157500", "115501.617500", "115502.077500", "115502.537500", "115502.997500", "115503.457500", "115503.917500", "115504.377500", "115504.837500", "115505.297500", "115505.757500", "115506.217500", "115506.677500", "115507.137500", "115507.597500", "115508.057500", "115508.517500", "115508.977500", "115509.437500", "115509.897500", "115510.357500", "115510.817500", "115511.277500", "115511.737500", "115512.197500", "115512.657500", "115513.117500", "115513.577500", "115514.037500", "115514.497500", "115514.957500", "115515.417500", "115515.877500", "115516.337500", "115516.797500", "115517.257500", "115517.717500", "115518.177500", "115518.637500", "115519.097500", "115519.557500", "115520.017500", "115520.477500", "115520.937500", "115521.397500", "115521.857500", "115522.317500", "115522.777500", "115523.237500", "115523.697500", "115524.157500", "115524.617500", "115525.077500", "115525.537500", "115525.997500", "115526.457500", "115526.917500", "115527.377500", "115527.837500", "115528.297500", "115528.757500", "115529.217500", "115529.677500", "115530.137500", "115530.597500", "115531.057500", "115531.517500", "115531.977500", "115532.437500", "115532.897500", "115533.357500", "115533.817500", "115534.277500", "115534.737500", "115535.197500", "115535.657500", "115536.117500", "115536.577500", "115537.037500", "115537.497500", "115537.957500", "115538.417500", "115538.877500", "115539.337500", "115539.797500", "115540.257500", "115540.717500", "115541.177500", "115541.637500", "115542.097500", "115542.557500", "115543.017500", "115543.477500", "115543.937500", "115544.397500", "115544.857500", "115545.317500", "115545.777500", "115546.237500", "115546.697500", "115547.157500", "115547.617500", "115548.077500", "115548.537500", "115548.997500", "115549.457500", "115549.917500", "115550.377500", "115550.837500", "115551.297500", "115551.757500", "115552.217500", "115552.677500", "115553.137500", "115553.597500", "115554.057500", "115554.517500", "115554.977500", "115555.437500", "115555.897500", "115556.357500", "115556.817500", "115557.277500", "115557.737500", "115558.197500", "115558.657500", "115559.117500", "115559.577500", "115600.037500", "115600.497500", "115600.957500", "115601.417500", "115601.877500", "115602.337500", "115602.797500", "115603.257500", "115603.717500", "115604.177500", "115604.637500", "115605.097500", "115605.557500", "115606.017500", "115606.477500", "115606.937500", "115607.397500", "115607.857500", "115608.317500", "115608.777500", "115609.237500", "115609.697500", "115610.157500", "115610.617500", "115611.077500", "115611.537500", "115611.997500", "115612.457500", "115612.917500", "115613.377500", "115613.837500", "115614.297500", "115614.757500", "115615.217500", "115615.677500", "115616.137500", "115616.597500", "115617.057500", "115617.517500", "115617.977500", "115618.437500", "115618.897500", "115619.357500", "115619.817500", "115620.277500"],
