{
  "AcquisitionMatrixPE": 82,
  "AcquisitionNumber": 1,
  "AcquisitionTime": "11:42:41.440000",
  "BandwidthPerPixelPhaseEncode": 24.888,
  "BaseResolution": 82,
  "BodyPartExamined": "BRAIN",
  "ConsistencyInfo": "N4_VE11E_LATEST_20181129",
  "ConversionSoftware": "dcm2niix",
  "ConversionSoftwareVersion": "v1.0.20201102",
  "DerivedVendorReportedEchoSpacing": 0.00049,
  "DeviceSerialNumber": "66112",
  "DwellTime": 2e-06,
  "EchoTime": 0.0272,
  "EchoTrainLength": 82,
  "EffectiveEchoSpacing": 0.00049,
  "FlipAngle": 44,
  "ImageComments": "Unaliased MB8/PE3",
  "ImageOrientationPatientDICOM": [0.991749, -0.0432748, 0.12067, 0.0282218, 0.991909, 0.123773],
  "ImageType": [
    "ORIGINAL",
    "PRIMARY",
    "M",
    "MB",
    "ND",
    "NORM",
    "MOSAIC"
],
  "ImagingFrequency": 123.252,
  "InPlanePhaseEncodingDirectionDICOM": "COL",
  "InstitutionAddress": "Maynard 3,Hanover,NH,US,03755",
  "InstitutionName": "dartmouth_brain_imaging_center",
  "InstitutionalDepartmentName": "Department",
  "MRAcquisitionType": "2D",
  "MagneticFieldStrength": 3,
  "Manufacturer": "Siemens",
  "ManufacturersModelName": "Prisma",
  "Modality": "MR",
  "MultibandAccelerationFactor": 8,
  "PartialFourier": 1,
  "PatientPosition": "HFS",
  "PercentPhaseFOV": 100,
  "PercentSampling": 100,
  "PhaseEncodingDirection": "j-",
  "PhaseEncodingSteps": 82,
  "PhaseResolution": 1,
  "PixelBandwidth": 3050,
  "ProcedureStepDescription": "Wager_Wager^1076_spacetop",
  "ProtocolName": "func_run-02_task-social_acq-ap-mb8",
  "PulseSequenceDetails": "%CustomerSeq%\\cmrr_mbep2d_bold",
  "ReceiveCoilActiveElements": "HEA;HEP",
  "ReceiveCoilName": "Head_32",
  "ReconMatrixPE": 82,
  "RepetitionTime": 0.46,
  "SAR": 0.0886593,
  "ScanOptions": "FS",
  "ScanningSequence": "EP",
  "SequenceName": "epfid2d1_82",
  "SequenceVariant": "SK\\SS",
  "SeriesDescription": "func_run-02_task-social_acq-ap-mb8",
  "SeriesNumber": 14,
  "ShimSetting": [4158, -7743, -7276, 651, -48, -146, 95, 79],
  "SliceThickness": 2.7,
  "SliceTiming": [0, 0.2525, 0.0625, 0.315, 0.125, 0.3775, 0.1875, 0, 0.2525, 0.0625, 0.315, 0.125, 0.3775, 0.1875, 0, 0.2525, 0.0625, 0.315, 0.125, 0.3775, 0.1875, 0, 0.2525, 0.0625, 0.315, 0.125, 0.3775, 0.1875, 0, 0.2525, 0.0625, 0.315, 0.125, 0.3775, 0.1875, 0, 0.2525, 0.0625, 0.315, 0.125, 0.3775, 0.1875, 0, 0.2525, 0.0625, 0.315, 0.125, 0.3775, 0.1875, 0, 0.2525, 0.0625, 0.315, 0.125, 0.3775, 0.1875],
  "SoftwareVersions": "syngo MR E11",
  "SpacingBetweenSlices": 2.7,
  "StationName": "AWP66112",
  "TaskName": "social",
  "TotalReadoutTime": 0.03969,
  "TxRefAmp": 246.838,
  "WipMemBlock": "61c96e09-04fb-4425-8fb4-37f9c89f2d95||Sequence: R016 ve11e/master r/434b28f1; Aug  7 2019 18:53:46 by eja",
  "dcmmeta_affine": [
    [-2.660789966583252, 0.07571690529584885, 0.3376350402832031, 101.01716613769531],
    [0.11610306799411774, 2.661219596862793, 0.322236031293869, -106.7984848022461],
    [0.32374897599220276, -0.3320751190185547, 2.6593546867370605, -78.444580078125],
    [0.0, 0.0, 0.0, 1.0]
],
  "dcmmeta_reorient_transform": [
    [0.0, -1.0, 0.0, 81.0],
    [1.0, 0.0, 0.0, 0.0],
    [0.0, 0.0, 1.0, 0.0],
    [0.0, 0.0, 0.0, 1.0]
],
  "dcmmeta_shape": [82, 82, 56, 872],
  "dcmmeta_slice_dim": 2,
  "dcmmeta_version": 0.6,
  "global": {
    "const": {
      "AccessionNumber": "A003898",
      "AcquisitionMatrix": [82, 0, 0, 82],
      "AngioFlag": "N",
      "BitsAllocated": 16,
      "BitsStored": 16,
      "BodyPartExamined": "BRAIN",
      "Columns": 656,
      "EchoNumbers": 1,
      "EchoTime": 27.2,
      "EchoTrainLength": 82,
      "FlipAngle": 44.0,
      "HighBit": 15,
      "ImageOrientationPatient": [0.99174897434444, -0.0432747789997, 0.12067006832378, 0.02822175442311, 0.99190910102787, 0.12377345383955],
      "ImagePositionPatient": [-892.52771244139, -839.20874717934, -293.56418494242],
      "ImageType": [
        "ORIGINAL",
        "PRIMARY",
        "M",
        "MB",
        "ND",
        "NORM",
        "MOSAIC"
],
      "ImagedNucleus": "1H",
      "ImagingFrequency": 123.252208,
      "InPlanePhaseEncodingDirection": "COL",
      "MRAcquisitionType": "2D",
      "MagneticFieldStrength": 3.0,
      "Manufacturer": "SIEMENS",
      "ManufacturerModelName": "Prisma",
      "Modality": "MR",
      "NumberOfAverages": 1.0,
      "NumberOfPhaseEncodingSteps": 82,
      "PercentPhaseFieldOfView": 100.0,
      "PercentSampling": 100.0,
      "PerformedProcedureStepStartTime": "105657.142000",
      "PhotometricInterpretation": "MONOCHROME2",
      "PixelBandwidth": 3050.0,
      "PixelRepresentation": 0,
      "PixelSpacing": [2.6829268932343, 2.6829268932343],
      "ProtocolName": "func_run-02_task-social_acq-ap-mb8",
      "RepetitionTime": 460.0,
      "Rows": 656,
      "SAR": 0.08865930346045,
      "SamplesPerPixel": 1,
      "ScanOptions": "FS",
      "ScanningSequence": "EP",
      "SequenceName": "epfid2d1_82",
      "SequenceVariant": [
        "SK",
        "SS"
],
      "SeriesDescription": "func_run-02_task-social_acq-ap-mb8",
      "SeriesNumber": 14,
      "SeriesTime": "114252.801000",
      "SliceLocation": -77.377535096876,
      "SliceThickness": 2.7000000476837,
      "SmallestImagePixelValue": 0,
      "SoftwareVersions": "syngo MR E11",
      "SpacingBetweenSlices": 2.7000000720111,
      "SpecificCharacterSet": "ISO_IR 100",
      "StudyID": "1",
      "StudyTime": "105656.974000",
      "TransmitCoilName": "Body",
      "VariableFlipAngleFlag": "N",
      "WindowCenterWidthExplanation": "Algo1"
    },
    "slices": {}
  },
  "time": {
    "samples": {
      "AcquisitionNumber": [1, 2, 3, 4, 5, 6, 7, 8, 9, 10, 11, 12, 13, 14, 15, 16, 17, 18, 19, 20, 21, 22, 23, 24, 25, 26, 27, 28, 29, 30, 31, 32, 33, 34, 35, 36, 37, 38, 39, 40, 41, 42, 43, 44, 45, 46, 47, 48, 49, 50, 51, 52, 53, 54, 55, 56, 57, 58, 59, 60, 61, 62, 63, 64, 65, 66, 67, 68, 69, 70, 71, 72, 73, 74, 75, 76, 77, 78, 79, 80, 81, 82, 83, 84, 85, 86, 87, 88, 89, 90, 91, 92, 93, 94, 95, 96, 97, 98, 99, 100, 101, 102, 103, 104, 105, 106, 107, 108, 109, 110, 111, 112, 113, 114, 115, 116, 117, 118, 119, 120, 121, 122, 123, 124, 125, 126, 127, 128, 129, 130, 131, 132, 133, 134, 135, 136, 137, 138, 139, 140, 141, 142, 143, 144, 145, 146, 147, 148, 149, 150, 151, 152, 153, 154, 155, 156, 157, 158, 159, 160, 161, 162, 163, 164, 165, 166, 167, 168, 169, 170, 171, 172, 173, 174, 175, 176, 177, 178, 179, 180, 181, 182, 183, 184, 185, 186, 187, 188, 189, 190, 191, 192, 193, 194, 195, 196, 197, 198, 199, 200, 201, 202, 203, 204, 205, 206, 207, 208, 209, 210, 211, 212, 213, 214, 215, 216, 217, 218, 219, 220, 221, 222, 223, 224, 225, 226, 227, 228, 229, 230, 231, 232, 233, 234, 235, 236, 237, 238, 239, 240, 241, 242, 243, 244, 245, 246, 247, 248, 249, 250, 251, 252, 253, 254, 255, 256, 257, 258, 259, 260, 261, 262, 263, 264, 265, 266, 267, 268, 269, 270, 271, 272, 273, 274, 275, 276, 277, 278, 279, 280, 281, 282, 283, 284, 285, 286, 287, 288, 289, 290, 291, 292, 293, 294, 295, 296, 297, 298, 299, 300, 301, 302, 303, 304, 305, 306, 307, 308, 309, 310, 311, 312, 313, 314, 315, 316, 317, 318, 319, 320, 321, 322, 323, 324, 325, 326, 327, 328, 329, 330, 331, 332, 333, 334, 335, 336, 337, 338, 339, 340, 341, 342, 343, 344, 345, 346, 347, 348, 349, 350, 351, 352, 353, 354, 355, 356, 357, 358, 359, 360, 361, 362, 363, 364, 365, 366, 367, 368, 369, 370, 371, 372, 373, 374, 375, 376, 377, 378, 379, 380, 381, 382, 383, 384, 385, 386, 387, 388, 389, 390, 391, 392, 393, 394, 395, 396, 397, 398, 399, 400, 401, 402, 403, 404, 405, 406, 407, 408, 409, 410, 411, 412, 413, 414, 415, 416, 417, 418, 419, 420, 421, 422, 423, 424, 425, 426, 427, 428, 429, 430, 431, 432, 433, 434, 435, 436, 437, 438, 439, 440, 441, 442, 443, 444, 445, 446, 447, 448, 449, 450, 451, 452, 453, 454, 455, 456, 457, 458, 459, 460, 461, 462, 463, 464, 465, 466, 467, 468, 469, 470, 471, 472, 473, 474, 475, 476, 477, 478, 479, 480, 481, 482, 483, 484, 485, 486, 487, 488, 489, 490, 491, 492, 493, 494, 495, 496, 497, 498, 499, 500, 501, 502, 503, 504, 505, 506, 507, 508, 509, 510, 511, 512, 513, 514, 515, 516, 517, 518, 519, 520, 521, 522, 523, 524, 525, 526, 527, 528, 529, 530, 531, 532, 533, 534, 535, 536, 537, 538, 539, 540, 541, 542, 543, 544, 545, 546, 547, 548, 549, 550, 551, 552, 553, 554, 555, 556, 557, 558, 559, 560, 561, 562, 563, 564, 565, 566, 567, 568, 569, 570, 571, 572, 573, 574, 575, 576, 577, 578, 579, 580, 581, 582, 583, 584, 585, 586, 587, 588, 589, 590, 591, 592, 593, 594, 595, 596, 597, 598, 599, 600, 601, 602, 603, 604, 605, 606, 607, 608, 609, 610, 611, 612, 613, 614, 615, 616, 617, 618, 619, 620, 621, 622, 623, 624, 625, 626, 627, 628, 629, 630, 631, 632, 633, 634, 635, 636, 637, 638, 639, 640, 641, 642, 643, 644, 645, 646, 647, 648, 649, 650, 651, 652, 653, 654, 655, 656, 657, 658, 659, 660, 661, 662, 663, 664, 665, 666, 667, 668, 669, 670, 671, 672, 673, 674, 675, 676, 677, 678, 679, 680, 681, 682, 683, 684, 685, 686, 687, 688, 689, 690, 691, 692, 693, 694, 695, 696, 697, 698, 699, 700, 701, 702, 703, 704, 705, 706, 707, 708, 709, 710, 711, 712, 713, 714, 715, 716, 717, 718, 719, 720, 721, 722, 723, 724, 725, 726, 727, 728, 729, 730, 731, 732, 733, 734, 735, 736, 737, 738, 739, 740, 741, 742, 743, 744, 745, 746, 747, 748, 749, 750, 751, 752, 753, 754, 755, 756, 757, 758, 759, 760, 761, 762, 763, 764, 765, 766, 767, 768, 769, 770, 771, 772, 773, 774, 775, 776, 777, 778, 779, 780, 781, 782, 783, 784, 785, 786, 787, 788, 789, 790, 791, 792, 793, 794, 795, 796, 797, 798, 799, 800, 801, 802, 803, 804, 805, 806, 807, 808, 809, 810, 811, 812, 813, 814, 815, 816, 817, 818, 819, 820, 821, 822, 823, 824, 825, 826, 827, 828, 829, 830, 831, 832, 833, 834, 835, 836, 837, 838, 839, 840, 841, 842, 843, 844, 845, 846, 847, 848, 849, 850, 851, 852, 853, 854, 855, 856, 857, 858, 859, 860, 861, 862, 863, 864, 865, 866, 867, 868, 869, 870, 871, 872],
      "AcquisitionTime": ["114241.440000", "114241.900000", "114242.360000", "114242.820000", "114243.280000", "114243.740000", "114244.200000", "114244.660000", "114245.120000", "114245.580000", "114246.040000", "114246.500000", "114246.960000", "114247.420000", "114247.880000", "114248.340000", "114248.800000", "114249.260000", "114249.720000", "114250.180000", "114250.640000", "114251.100000", "114251.560000", "114252.020000", "114252.480000", "114252.940000", "114253.400000", "114253.860000", "114254.320000", "114254.780000", "114255.240000", "114255.700000", "114256.160000", "114256.620000", "114257.080000", "114257.540000", "114258.000000", "114258.460000", "114258.920000", "114259.380000", "114259.840000", "114300.300000", "114300.760000", "114301.220000", "114301.680000", "114302.140000", "114302.600000", "114303.060000", "114303.520000", "114303.980000", "114304.440000", "114304.900000", "114305.360000", "114305.820000", "114306.280000", "114306.740000", "114307.200000", "114307.660000", "114308.120000", "114308.580000", "114309.040000", "114309.500000", "114309.960000", "114310.420000", "114310.880000", "114311.340000", "114311.800000", "114312.260000", "114312.720000", "114313.180000", "114313.640000", "114314.100000", "114314.560000", "114315.020000", "114315.480000", "114315.940000", "114316.400000", "114316.860000", "114317.320000", "114317.780000", "114318.240000", "114318.700000", "114319.160000", "114319.620000", "114320.080000", "114320.540000", "114321.000000", "114321.460000", "114321.920000", "114322.380000", "114322.840000", "114323.300000", "114323.760000", "114324.220000", "114324.680000", "114325.140000", "114325.600000", "114326.060000", "114326.520000", "114326.980000", "114327.440000", "114327.900000", "114328.360000", "114328.820000", "114329.280000", "114329.740000", "114330.200000", "114330.660000", "114331.120000", "114331.580000", "114332.040000", "114332.500000", "114332.960000", "114333.420000", "114333.880000", "114334.340000", "114334.800000", "114335.260000", "114335.720000", "114336.180000", "114336.640000", "114337.100000", "114337.560000", "114338.020000", "114338.480000", "114338.940000", "114339.400000", "114339.860000", "114340.320000", "114340.780000", "114341.240000", "114341.700000", "114342.160000", "114342.620000", "114343.080000", "114343.540000", "114344.000000", "114344.460000", "114344.920000", "114345.380000", "114345.840000", "114346.300000", "114346.760000", "114347.220000", "114347.680000", "114348.140000", "114348.600000", "114349.060000", "114349.520000", "114349.980000", "114350.440000", "114350.900000", "114351.360000", "114351.820000", "114352.280000", "114352.740000", "114353.200000", "114353.660000", "114354.120000", "114354.580000", "114355.040000", "114355.500000", "114355.960000", "114356.420000", "114356.880000", "114357.340000", "114357.800000", "114358.260000", "114358.720000", "114359.180000", "114359.640000", "114400.100000", "114400.560000", "114401.020000", "114401.480000", "114401.940000", "114402.400000", "114402.860000", "114403.320000", "114403.780000", "114404.240000", "114404.700000", "114405.160000", "114405.620000", "114406.080000", "114406.540000", "114407.000000", "114407.460000", "114407.920000", "114408.380000", "114408.840000", "114409.300000", "114409.760000", "114410.220000", "114410.680000", "114411.140000", "114411.600000", "114412.060000", "114412.520000", "114412.980000", "114413.440000", "114413.900000", "114414.360000", "114414.820000", "114415.280000", "114415.740000", "114416.200000", "114416.660000", "114417.120000", "114417.580000", "114418.040000", "114418.500000", "114418.960000", "114419.420000", "114419.880000", "114420.340000", "114420.800000", "114421.260000", "114421.720000", "114422.180000", "114422.640000", "114423.100000", "114423.560000", "114424.020000", "114424.480000", "114424.940000", "114425.400000", "114425.860000", "114426.320000", "114426.780000", "114427.240000", "114427.700000", "114428.160000", "114428.620000", "114429.080000", "114429.540000", "114430.000000", "114430.460000", "114430.920000", "114431.380000", "114431.840000", "114432.300000", "114432.760000", "114433.220000", "114433.680000", "114434.140000", "114434.600000", "114435.060000", "114435.520000", "114435.980000", "114436.440000", "114436.900000", "114437.360000", "114437.820000", "114438.280000", "114438.740000", "114439.200000", "114439.660000", "114440.120000", "114440.580000", "114441.040000", "114441.500000", "114441.960000", "114442.420000", "114442.880000", "114443.340000", "114443.800000", "114444.260000", "114444.720000", "114445.180000", "114445.640000", "114446.100000", "114446.560000", "114447.020000", "114447.480000", "114447.940000", "114448.400000", "114448.860000", "114449.320000", "114449.780000", "114450.240000", "114450.700000", "114451.160000", "114451.620000", "114452.080000", "114452.540000", "114453.000000", "114453.460000", "114453.920000", "114454.380000", "114454.840000", "114455.300000", "114455.760000", "114456.220000", "114456.680000", "114457.140000", "114457.600000", "114458.060000", "114458.520000", "114458.980000", "114459.440000", "114459.900000", "114500.360000", "114500.820000", "114501.280000", "114501.740000", "114502.200000", "114502.660000", "114503.120000", "114503.580000", "114504.040000", "114504.500000", "114504.960000", "114505.420000", "114505.880000", "114506.340000", "114506.800000", "114507.260000", "114507.720000", "114508.180000", "114508.640000", "114509.100000", "114509.560000", "114510.020000", "114510.480000", "114510.940000", "114511.400000", "114511.860000", "114512.320000", "114512.780000", "114513.240000", "114513.700000", "114514.160000", "114514.620000", "114515.080000", "114515.540000", "114516.000000", "114516.460000", "114516.920000", "114517.380000", "114517.840000", "114518.300000", "114518.760000", "114519.220000", "114519.680000", "114520.140000", "114520.600000", "114521.060000", "114521.520000", "114521.980000", "114522.440000", "114522.900000", "114523.360000", "114523.820000", "114524.280000", "114524.740000", "114525.200000", "114525.660000", "114526.120000", "114526.580000", "114527.040000", "114527.500000", "114527.960000", "114528.420000", "114528.880000", "114529.340000", "114529.800000", "114530.260000", "114530.720000", "114531.180000", "114531.640000", "114532.100000", "114532.560000", "114533.020000", "114533.480000", "114533.940000", "114534.400000", "114534.860000", "114535.320000", "114535.780000", "114536.240000", "114536.700000", "114537.160000", "114537.620000", "114538.080000", "114538.540000", "114539.000000", "114539.460000", "114539.920000", "114540.380000", "114540.840000", "114541.300000", "114541.760000", "114542.220000", "114542.680000", "114543.140000", "114543.600000", "114544.060000", "114544.520000", "114544.980000", "114545.440000", "114545.900000", "114546.360000", "114546.820000", "114547.280000", "114547.740000", "114548.200000", "114548.660000", "114549.120000", "114549.580000", "114550.040000", "114550.500000", "114550.960000", "114551.420000", "114551.880000", "114552.340000", "114552.800000", "114553.260000", "114553.720000", "114554.180000", "114554.640000", "114555.100000", "114555.560000", "114556.020000", "114556.480000", "114556.940000", "114557.400000", "114557.860000", "114558.320000", "114558.780000", "114559.240000", "114559.700000", "114600.160000", "114600.620000", "114601.080000", "114601.540000", "114602.000000", "114602.460000", "114602.920000", "114603.380000", "114603.840000", "114604.300000", "114604.760000", "114605.220000", "114605.680000", "114606.140000", "114606.600000", "114607.060000", "114607.520000", "114607.980000", "114608.440000", "114608.900000", "114609.360000", "114609.820000", "114610.280000", "114610.740000", "114611.200000", "114611.660000", "114612.120000", "114612.580000", "114613.040000", "114613.500000", "114613.960000", "114614.420000", "114614.880000", "114615.340000", "114615.800000", "114616.260000", "114616.720000", "114617.180000", "114617.640000", "114618.100000", "114618.560000", "114619.020000", "114619.480000", "114619.940000", "114620.400000", "114620.860000", "114621.320000", "114621.780000", "114622.240000", "114622.700000", "114623.160000", "114623.620000", "114624.080000", "114624.540000", "114625.000000", "114625.460000", "114625.920000", "114626.380000", "114626.840000", "114627.300000", "114627.760000", "114628.220000", "114628.680000", "114629.140000", "114629.600000", "114630.060000", "114630.520000", "114630.980000", "114631.440000", "114631.900000", "114632.360000", "114632.820000", "114633.280000", "114633.740000", "114634.200000", "114634.660000", "114635.120000", "114635.580000", "114636.040000", "114636.500000", "114636.960000", "114637.420000", "114637.880000", "114638.340000", "114638.800000", "114639.260000", "114639.720000", "114640.180000", "114640.640000", "114641.100000", "114641.560000", "114642.020000", "114642.480000", "114642.940000", "114643.400000", "114643.860000", "114644.320000", "114644.780000", "114645.240000", "114645.700000", "114646.160000", "114646.620000", "114647.080000", "114647.540000", "114648.000000", "114648.460000", "114648.920000", "114649.380000", "114649.840000", "114650.300000", "114650.760000", "114651.220000", "114651.680000", "114652.140000", "114652.600000", "114653.060000", "114653.520000", "114653.980000", "114654.440000", "114654.900000", "114655.360000", "114655.820000", "114656.280000", "114656.740000", "114657.200000", "114657.660000", "114658.120000", "114658.580000", "114659.040000", "114659.500000", "114659.960000", "114700.420000", "114700.880000", "114701.340000", "114701.800000", "114702.260000", "114702.720000", "114703.180000", "114703.640000", "114704.100000", "114704.560000", "114705.020000", "114705.480000", "114705.940000", "114706.400000", "114706.860000", "114707.320000", "114707.780000", "114708.240000", "114708.700000", "114709.160000", "114709.620000", "114710.080000", "114710.540000", "114711.000000", "114711.460000", "114711.920000", "114712.380000", "114712.840000", "114713.300000", "114713.760000", "114714.220000", "114714.680000", "114715.140000", "114715.600000", "114716.060000", "114716.520000", "114716.980000", "114717.440000", "114717.900000", "114718.360000", "114718.820000", "114719.280000", "114719.740000", "114720.200000", "114720.660000", "114721.120000", "114721.580000", "114722.040000", "114722.500000", "114722.960000", "114723.420000", "114723.880000", "114724.340000", "114724.800000", "114725.260000", "114725.720000", "114726.180000", "114726.640000", "114727.100000", "114727.560000", "114728.020000", "114728.480000", "114728.940000", "114729.400000", "114729.860000", "114730.320000", "114730.780000", "114731.240000", "114731.700000", "114732.160000", "114732.620000", "114733.080000", "114733.540000", "114734.000000", "114734.460000", "114734.920000", "114735.380000", "114735.840000", "114736.300000", "114736.760000", "114737.220000", "114737.680000", "114738.140000", "114738.600000", "114739.060000", "114739.520000", "114739.980000", "114740.440000", "114740.900000", "114741.360000", "114741.820000", "114742.280000", "114742.740000", "114743.200000", "114743.660000", "114744.120000", "114744.580000", "114745.040000", "114745.500000", "114745.960000", "114746.420000", "114746.880000", "114747.340000", "114747.800000", "114748.260000", "114748.720000", "114749.180000", "114749.640000", "114750.100000", "114750.560000", "114751.020000", "114751.480000", "114751.940000", "114752.400000", "114752.860000", "114753.320000", "114753.780000", "114754.240000", "114754.700000", "114755.160000", "114755.620000", "114756.080000", "114756.540000", "114757.000000", "114757.460000", "114757.920000", "114758.380000", "114758.840000", "114759.300000", "114759.760000", "114800.220000", "114800.680000", "114801.140000", "114801.600000", "114802.060000", "114802.520000", "114802.980000", "114803.440000", "114803.900000", "114804.360000", "114804.820000", "114805.280000", "114805.740000", "114806.200000", "114806.660000", "114807.120000", "114807.580000", "114808.040000", "114808.500000", "114808.960000", "114809.420000", "114809.880000", "114810.340000", "114810.800000", "114811.260000", "114811.720000", "114812.180000", "114812.640000", "114813.100000", "114813.560000", "114814.020000", "114814.480000", "114814.940000", "114815.400000", "114815.860000", "114816.320000", "114816.780000", "114817.240000", "114817.700000", "114818.160000", "114818.620000", "114819.080000", "114819.540000", "114820.000000", "114820.460000", "114820.920000", "114821.380000", "114821.840000", "114822.300000", "114822.760000", "114823.220000", "114823.680000", "114824.140000", "114824.600000", "114825.060000", "114825.520000", "114825.980000", "114826.440000", "114826.900000", "114827.360000", "114827.820000", "114828.280000", "114828.740000", "114829.200000", "114829.660000", "114830.120000", "114830.580000", "114831.040000", "114831.500000", "114831.960000", "114832.420000", "114832.880000", "114833.340000", "114833.800000", "114834.260000", "114834.720000", "114835.180000", "114835.640000", "114836.100000", "114836.560000", "114837.020000", "114837.480000", "114837.940000", "114838.400000", "114838.860000", "114839.320000", "114839.780000", "114840.240000", "114840.700000", "114841.160000", "114841.620000", "114842.080000", "114842.540000", "114843.000000", "114843.460000", "114843.920000", "114844.380000", "114844.840000", "114845.300000", "114845.760000", "114846.220000", "114846.680000", "114847.140000", "114847.600000", "114848.060000", "114848.520000", "114848.980000", "114849.440000", "114849.900000", "114850.360000", "114850.820000", "114851.280000", "114851.740000", "114852.200000", "114852.660000", "114853.120000", "114853.580000", "114854.040000", "114854.500000", "114854.960000", "114855.420000", "114855.880000", "114856.340000", "114856.800000", "114857.260000", "114857.720000", "114858.180000", "114858.640000", "114859.100000", "114859.560000", "114900.020000", "114900.480000", "114900.940000", "114901.400000", "114901.860000", "114902.320000", "114902.780000", "114903.240000", "114903.700000", "114904.160000", "114904.620000", "114905.080000", "114905.540000", "114906.000000", "114906.460000", "114906.920000", "114907.380000", "114907.840000", "114908.300000", "114908.760000", "114909.220000", "114909.680000", "114910.140000", "114910.600000", "114911.060000", "114911.520000", "114911.980000", "114912.440000", "114912.900000", "114913.360000", "114913.820000", "114914.280000", "114914.740000", "114915.200000", "114915.660000", "114916.120000", "114916.580000", "114917.040000", "114917.500000", "114917.960000", "114918.420000", "114918.880000", "114919.340000", "114919.800000", "114920.260000", "114920.720000", "114921.180000", "114921.640000", "114922.100000"],
