{
  "AcquisitionMatrixPE": 82,
  "AcquisitionNumber": 1,
  "AcquisitionTime": "12:03:33.900000",
  "BandwidthPerPixelPhaseEncode": 24.888,
  "BaseResolution": 82,
  "BodyPartExamined": "BRAIN",
  "ConsistencyInfo": "N4_VE11E_LATEST_20181129",
  "ConversionSoftware": "dcm2niix",
  "ConversionSoftwareVersion": "v1.0.20201102",
  "DerivedVendorReportedEchoSpacing": 0.00049,
  "DeviceSerialNumber": "66112",
  "DwellTime": 2e-06,
  "EchoTime": 0.0272,
  "EchoTrainLength": 82,
  "EffectiveEchoSpacing": 0.00049,
  "FlipAngle": 44,
  "ImageComments": "Unaliased MB8/PE3",
  "ImageOrientationPatientDICOM": [0.991749, -0.0432748, 0.12067, 0.0282218, 0.991909, 0.123773],
  "ImageType": [
    "ORIGINAL",
    "PRIMARY",
    "M",
    "MB",
    "ND",
    "NORM",
    "MOSAIC"
],
  "ImagingFrequency": 123.252,
  "InPlanePhaseEncodingDirectionDICOM": "COL",
  "InstitutionAddress": "Maynard 3,Hanover,NH,US,03755",
  "InstitutionName": "dartmouth_brain_imaging_center",
  "InstitutionalDepartmentName": "Department",
  "MRAcquisitionType": "2D",
  "MagneticFieldStrength": 3,
  "Manufacturer": "Siemens",
  "ManufacturersModelName": "Prisma",
  "Modality": "MR",
  "MultibandAccelerationFactor": 8,
  "PartialFourier": 1,
  "PatientPosition": "HFS",
  "PercentPhaseFOV": 100,
  "PercentSampling": 100,
  "PhaseEncodingDirection": "j-",
  "PhaseEncodingSteps": 82,
  "PhaseResolution": 1,
  "PixelBandwidth": 3050,
  "ProcedureStepDescription": "Wager_Wager^1076_spacetop",
  "ProtocolName": "func_run-05_task-social_acq-ap-mb8",
  "PulseSequenceDetails": "%CustomerSeq%\\cmrr_mbep2d_bold",
  "ReceiveCoilActiveElements": "HEA;HEP",
  "ReceiveCoilName": "Head_32",
  "ReconMatrixPE": 82,
  "RepetitionTime": 0.46,
  "SAR": 0.0886593,
  "ScanOptions": "FS",
  "ScanningSequence": "EP",
  "SequenceName": "epfid2d1_82",
  "SequenceVariant": "SK\\SS",
  "SeriesDescription": "func_run-05_task-social_acq-ap-mb8",
  "SeriesNumber": 20,
  "ShimSetting": [4158, -7743, -7276, 651, -48, -146, 95, 79],
  "SliceThickness": 2.7,
  "SliceTiming": [0, 0.2525, 0.0625, 0.315, 0.125, 0.3775, 0.1875, 0, 0.2525, 0.0625, 0.315, 0.125, 0.3775, 0.1875, 0, 0.2525, 0.0625, 0.315, 0.125, 0.3775, 0.1875, 0, 0.2525, 0.0625, 0.315, 0.125, 0.3775, 0.1875, 0, 0.2525, 0.0625, 0.315, 0.125, 0.3775, 0.1875, 0, 0.2525, 0.0625, 0.315, 0.125, 0.3775, 0.1875, 0, 0.2525, 0.0625, 0.315, 0.125, 0.3775, 0.1875, 0, 0.2525, 0.0625, 0.315, 0.125, 0.3775, 0.1875],
  "SoftwareVersions": "syngo MR E11",
  "SpacingBetweenSlices": 2.7,
  "StationName": "AWP66112",
  "TaskName": "social",
  "TotalReadoutTime": 0.03969,
  "TxRefAmp": 246.838,
  "WipMemBlock": "fee2bef9-7485-4ecb-ba43-29c8147594e5||Sequence: R016 ve11e/master r/434b28f1; Aug  7 2019 18:53:46 by eja",
  "dcmmeta_affine": [
    [-2.660789966583252, 0.07571690529584885, 0.3376350402832031, 101.01716613769531],
    [0.11610306799411774, 2.661219596862793, 0.322236031293869, -106.7984848022461],
    [0.32374897599220276, -0.3320751190185547, 2.6593546867370605, -78.444580078125],
    [0.0, 0.0, 0.0, 1.0]
],
  "dcmmeta_reorient_transform": [
    [0.0, -1.0, 0.0, 81.0],
    [1.0, 0.0, 0.0, 0.0],
    [0.0, 0.0, 1.0, 0.0],
    [0.0, 0.0, 0.0, 1.0]
],
  "dcmmeta_shape": [82, 82, 56, 872],
  "dcmmeta_slice_dim": 2,
  "dcmmeta_version": 0.6,
  "global": {
    "const": {
      "AccessionNumber": "A003898",
      "AcquisitionMatrix": [82, 0, 0, 82],
      "AngioFlag": "N",
      "BitsAllocated": 16,
      "BitsStored": 16,
      "BodyPartExamined": "BRAIN",
      "Columns": 656,
      "EchoNumbers": 1,
      "EchoTime": 27.2,
      "EchoTrainLength": 82,
      "FlipAngle": 44.0,
      "HighBit": 15,
      "ImageOrientationPatient": [0.99174897434444, -0.0432747789997, 0.12067006832378, 0.02822175442311, 0.99190910102787, 0.12377345383955],
      "ImagePositionPatient": [-892.52771244139, -839.20874717934, -293.56418494242],
      "ImageType": [
        "ORIGINAL",
        "PRIMARY",
        "M",
        "MB",
        "ND",
        "NORM",
        "MOSAIC"
],
      "ImagedNucleus": "1H",
      "ImagingFrequency": 123.25221,
      "InPlanePhaseEncodingDirection": "COL",
      "MRAcquisitionType": "2D",
      "MagneticFieldStrength": 3.0,
      "Manufacturer": "SIEMENS",
      "ManufacturerModelName": "Prisma",
      "Modality": "MR",
      "NumberOfAverages": 1.0,
      "NumberOfPhaseEncodingSteps": 82,
      "PercentPhaseFieldOfView": 100.0,
      "PercentSampling": 100.0,
      "PerformedProcedureStepStartTime": "105657.142000",
      "PhotometricInterpretation": "MONOCHROME2",
      "PixelBandwidth": 3050.0,
      "PixelRepresentation": 0,
      "PixelSpacing": [2.6829268932343, 2.6829268932343],
      "ProtocolName": "func_run-05_task-social_acq-ap-mb8",
      "RepetitionTime": 460.0,
      "Rows": 656,
      "SAR": 0.08865930346045,
      "SamplesPerPixel": 1,
      "ScanOptions": "FS",
      "ScanningSequence": "EP",
      "SequenceName": "epfid2d1_82",
      "SequenceVariant": [
        "SK",
        "SS"
],
      "SeriesDescription": "func_run-05_task-social_acq-ap-mb8",
      "SeriesNumber": 20,
      "SeriesTime": "120352.869000",
      "SliceLocation": -77.377535096876,
      "SliceThickness": 2.7000000476837,
      "SmallestImagePixelValue": 0,
      "SoftwareVersions": "syngo MR E11",
      "SpacingBetweenSlices": 2.7000000720111,
      "SpecificCharacterSet": "ISO_IR 100",
      "StudyID": "1",
      "StudyTime": "105656.974000",
      "TransmitCoilName": "Body",
      "VariableFlipAngleFlag": "N",
      "WindowCenterWidthExplanation": "Algo1"
    },
    "slices": {}
  },
  "time": {
    "samples": {
      "AcquisitionNumber": [1, 2, 3, 4, 5, 6, 7, 8, 9, 10, 11, 12, 13, 14, 15, 16, 17, 18, 19, 20, 21, 22, 23, 24, 25, 26, 27, 28, 29, 30, 31, 32, 33, 34, 35, 36, 37, 38, 39, 40, 41, 42, 43, 44, 45, 46, 47, 48, 49, 50, 51, 52, 53, 54, 55, 56, 57, 58, 59, 60, 61, 62, 63, 64, 65, 66, 67, 68, 69, 70, 71, 72, 73, 74, 75, 76, 77, 78, 79, 80, 81, 82, 83, 84, 85, 86, 87, 88, 89, 90, 91, 92, 93, 94, 95, 96, 97, 98, 99, 100, 101, 102, 103, 104, 105, 106, 107, 108, 109, 110, 111, 112, 113, 114, 115, 116, 117, 118, 119, 120, 121, 122, 123, 124, 125, 126, 127, 128, 129, 130, 131, 132, 133, 134, 135, 136, 137, 138, 139, 140, 141, 142, 143, 144, 145, 146, 147, 148, 149, 150, 151, 152, 153, 154, 155, 156, 157, 158, 159, 160, 161, 162, 163, 164, 165, 166, 167, 168, 169, 170, 171, 172, 173, 174, 175, 176, 177, 178, 179, 180, 181, 182, 183, 184, 185, 186, 187, 188, 189, 190, 191, 192, 193, 194, 195, 196, 197, 198, 199, 200, 201, 202, 203, 204, 205, 206, 207, 208, 209, 210, 211, 212, 213, 214, 215, 216, 217, 218, 219, 220, 221, 222, 223, 224, 225, 226, 227, 228, 229, 230, 231, 232, 233, 234, 235, 236, 237, 238, 239, 240, 241, 242, 243, 244, 245, 246, 247, 248, 249, 250, 251, 252, 253, 254, 255, 256, 257, 258, 259, 260, 261, 262, 263, 264, 265, 266, 267, 268, 269, 270, 271, 272, 273, 274, 275, 276, 277, 278, 279, 280, 281, 282, 283, 284, 285, 286, 287, 288, 289, 290, 291, 292, 293, 294, 295, 296, 297, 298, 299, 300, 301, 302, 303, 304, 305, 306, 307, 308, 309, 310, 311, 312, 313, 314, 315, 316, 317, 318, 319, 320, 321, 322, 323, 324, 325, 326, 327, 328, 329, 330, 331, 332, 333, 334, 335, 336, 337, 338, 339, 340, 341, 342, 343, 344, 345, 346, 347, 348, 349, 350, 351, 352, 353, 354, 355, 356, 357, 358, 359, 360, 361, 362, 363, 364, 365, 366, 367, 368, 369, 370, 371, 372, 373, 374, 375, 376, 377, 378, 379, 380, 381, 382, 383, 384, 385, 386, 387, 388, 389, 390, 391, 392, 393, 394, 395, 396, 397, 398, 399, 400, 401, 402, 403, 404, 405, 406, 407, 408, 409, 410, 411, 412, 413, 414, 415, 416, 417, 418, 419, 420, 421, 422, 423, 424, 425, 426, 427, 428, 429, 430, 431, 432, 433, 434, 435, 436, 437, 438, 439, 440, 441, 442, 443, 444, 445, 446, 447, 448, 449, 450, 451, 452, 453, 454, 455, 456, 457, 458, 459, 460, 461, 462, 463, 464, 465, 466, 467, 468, 469, 470, 471, 472, 473, 474, 475, 476, 477, 478, 479, 480, 481, 482, 483, 484, 485, 486, 487, 488, 489, 490, 491, 492, 493, 494, 495, 496, 497, 498, 499, 500, 501, 502, 503, 504, 505, 506, 507, 508, 509, 510, 511, 512, 513, 514, 515, 516, 517, 518, 519, 520, 521, 522, 523, 524, 525, 526, 527, 528, 529, 530, 531, 532, 533, 534, 535, 536, 537, 538, 539, 540, 541, 542, 543, 544, 545, 546, 547, 548, 549, 550, 551, 552, 553, 554, 555, 556, 557, 558, 559, 560, 561, 562, 563, 564, 565, 566, 567, 568, 569, 570, 571, 572, 573, 574, 575, 576, 577, 578, 579, 580, 581, 582, 583, 584, 585, 586, 587, 588, 589, 590, 591, 592, 593, 594, 595, 596, 597, 598, 599, 600, 601, 602, 603, 604, 605, 606, 607, 608, 609, 610, 611, 612, 613, 614, 615, 616, 617, 618, 619, 620, 621, 622, 623, 624, 625, 626, 627, 628, 629, 630, 631, 632, 633, 634, 635, 636, 637, 638, 639, 640, 641, 642, 643, 644, 645, 646, 647, 648, 649, 650, 651, 652, 653, 654, 655, 656, 657, 658, 659, 660, 661, 662, 663, 664, 665, 666, 667, 668, 669, 670, 671, 672, 673, 674, 675, 676, 677, 678, 679, 680, 681, 682, 683, 684, 685, 686, 687, 688, 689, 690, 691, 692, 693, 694, 695, 696, 697, 698, 699, 700, 701, 702, 703, 704, 705, 706, 707, 708, 709, 710, 711, 712, 713, 714, 715, 716, 717, 718, 719, 720, 721, 722, 723, 724, 725, 726, 727, 728, 729, 730, 731, 732, 733, 734, 735, 736, 737, 738, 739, 740, 741, 742, 743, 744, 745, 746, 747, 748, 749, 750, 751, 752, 753, 754, 755, 756, 757, 758, 759, 760, 761, 762, 763, 764, 765, 766, 767, 768, 769, 770, 771, 772, 773, 774, 775, 776, 777, 778, 779, 780, 781, 782, 783, 784, 785, 786, 787, 788, 789, 790, 791, 792, 793, 794, 795, 796, 797, 798, 799, 800, 801, 802, 803, 804, 805, 806, 807, 808, 809, 810, 811, 812, 813, 814, 815, 816, 817, 818, 819, 820, 821, 822, 823, 824, 825, 826, 827, 828, 829, 830, 831, 832, 833, 834, 835, 836, 837, 838, 839, 840, 841, 842, 843, 844, 845, 846, 847, 848, 849, 850, 851, 852, 853, 854, 855, 856, 857, 858, 859, 860, 861, 862, 863, 864, 865, 866, 867, 868, 869, 870, 871, 872],
      "AcquisitionTime": ["120333.900000", "120334.360000", "120334.820000", "120335.280000", "120335.740000", "120336.200000", "120336.660000", "120337.120000", "120337.580000", "120338.040000", "120338.500000", "120338.960000", "120339.420000", "120339.880000", "120340.340000", "120340.800000", "120341.260000", "120341.720000", "120342.180000", "120342.640000", "120343.100000", "120343.560000", "120344.020000", "120344.480000", "120344.940000", "120345.400000", "120345.860000", "120346.320000", "120346.780000", "120347.240000", "120347.700000", "120348.160000", "120348.620000", "120349.080000", "120349.540000", "120350.000000", "120350.460000", "120350.920000", "120351.380000", "120351.840000", "120352.300000", "120352.760000", "120353.220000", "120353.680000", "120354.140000", "120354.600000", "120355.060000", "120355.520000", "120355.980000", "120356.440000", "120356.900000", "120357.360000", "120357.820000", "120358.280000", "120358.740000", "120359.200000", "120359.660000", "120400.120000", "120400.580000", "120401.040000", "120401.500000", "120401.960000", "120402.420000", "120402.880000", "120403.340000", "120403.800000", "120404.260000", "120404.720000", "120405.180000", "120405.640000", "120406.100000", "120406.560000", "120407.020000", "120407.480000", "120407.940000", "120408.400000", "120408.860000", "120409.320000", "120409.780000", "120410.240000", "120410.700000", "120411.160000", "120411.620000", "120412.080000", "120412.540000", "120413.000000", "120413.460000", "120413.920000", "120414.380000", "120414.840000", "120415.300000", "120415.760000", "120416.220000", "120416.680000", "120417.140000", "120417.600000", "120418.060000", "120418.520000", "120418.980000", "120419.440000", "120419.900000", "120420.360000", "120420.820000", "120421.280000", "120421.740000", "120422.200000", "120422.660000", "120423.120000", "120423.580000", "120424.040000", "120424.500000", "120424.960000", "120425.420000", "120425.880000", "120426.340000", "120426.800000", "120427.260000", "120427.720000", "120428.180000", "120428.640000", "120429.100000", "120429.560000", "120430.020000", "120430.480000", "120430.940000", "120431.400000", "120431.860000", "120432.320000", "120432.780000", "120433.240000", "120433.700000", "120434.160000", "120434.620000", "120435.080000", "120435.540000", "120436.000000", "120436.460000", "120436.920000", "120437.380000", "120437.840000", "120438.300000", "120438.760000", "120439.220000", "120439.680000", "120440.140000", "120440.600000", "120441.060000", "120441.520000", "120441.980000", "120442.440000", "120442.900000", "120443.360000", "120443.820000", "120444.280000", "120444.740000", "120445.200000", "120445.660000", "120446.120000", "120446.580000", "120447.040000", "120447.500000", "120447.960000", "120448.420000", "120448.880000", "120449.340000", "120449.800000", "120450.260000", "120450.720000", "120451.180000", "120451.640000", "120452.100000", "120452.560000", "120453.020000", "120453.480000", "120453.940000", "120454.400000", "120454.860000", "120455.320000", "120455.780000", "120456.240000", "120456.700000", "120457.160000", "120457.620000", "120458.080000", "120458.540000", "120459.000000", "120459.460000", "120459.920000", "120500.380000", "120500.840000", "120501.300000", "120501.760000", "120502.220000", "120502.680000", "120503.140000", "120503.600000", "120504.060000", "120504.520000", "120504.980000", "120505.440000", "120505.900000", "120506.360000", "120506.820000", "120507.280000", "120507.740000", "120508.200000", "120508.660000", "120509.120000", "120509.580000", "120510.040000", "120510.500000", "120510.960000", "120511.420000", "120511.880000", "120512.340000", "120512.800000", "120513.260000", "120513.720000", "120514.180000", "120514.640000", "120515.100000", "120515.560000", "120516.020000", "120516.480000", "120516.940000", "120517.400000", "120517.860000", "120518.320000", "120518.780000", "120519.240000", "120519.700000", "120520.160000", "120520.620000", "120521.080000", "120521.540000", "120522.000000", "120522.460000", "120522.920000", "120523.380000", "120523.840000", "120524.300000", "120524.760000", "120525.220000", "120525.680000", "120526.140000", "120526.600000", "120527.060000", "120527.520000", "120527.980000", "120528.440000", "120528.900000", "120529.360000", "120529.820000", "120530.280000", "120530.740000", "120531.200000", "120531.660000", "120532.120000", "120532.580000", "120533.040000", "120533.500000", "120533.960000", "120534.420000", "120534.880000", "120535.340000", "120535.800000", "120536.260000", "120536.720000", "120537.180000", "120537.640000", "120538.100000", "120538.560000", "120539.020000", "120539.480000", "120539.940000", "120540.400000", "120540.860000", "120541.320000", "120541.780000", "120542.240000", "120542.700000", "120543.160000", "120543.620000", "120544.080000", "120544.540000", "120545.000000", "120545.460000", "120545.920000", "120546.380000", "120546.840000", "120547.300000", "120547.760000", "120548.220000", "120548.680000", "120549.140000", "120549.600000", "120550.060000", "120550.520000", "120550.980000", "120551.440000", "120551.900000", "120552.360000", "120552.820000", "120553.280000", "120553.740000", "120554.200000", "120554.660000", "120555.120000", "120555.580000", "120556.040000", "120556.500000", "120556.960000", "120557.420000", "120557.880000", "120558.340000", "120558.800000", "120559.260000", "120559.720000", "120600.180000", "120600.640000", "120601.100000", "120601.560000", "120602.020000", "120602.480000", "120602.940000", "120603.400000", "120603.860000", "120604.320000", "120604.780000", "120605.240000", "120605.700000", "120606.160000", "120606.620000", "120607.080000", "120607.540000", "120608.000000", "120608.460000", "120608.920000", "120609.380000", "120609.840000", "120610.300000", "120610.760000", "120611.220000", "120611.680000", "120612.140000", "120612.600000", "120613.060000", "120613.520000", "120613.980000", "120614.440000", "120614.900000", "120615.360000", "120615.820000", "120616.280000", "120616.740000", "120617.200000", "120617.660000", "120618.120000", "120618.580000", "120619.040000", "120619.500000", "120619.960000", "120620.420000", "120620.880000", "120621.340000", "120621.800000", "120622.260000", "120622.720000", "120623.180000", "120623.640000", "120624.100000", "120624.560000", "120625.020000", "120625.480000", "120625.940000", "120626.400000", "120626.860000", "120627.320000", "120627.780000", "120628.240000", "120628.700000", "120629.160000", "120629.620000", "120630.080000", "120630.540000", "120631.000000", "120631.460000", "120631.920000", "120632.380000", "120632.840000", "120633.300000", "120633.760000", "120634.220000", "120634.680000", "120635.140000", "120635.600000", "120636.060000", "120636.520000", "120636.980000", "120637.440000", "120637.900000", "120638.360000", "120638.820000", "120639.280000", "120639.740000", "120640.200000", "120640.660000", "120641.120000", "120641.580000", "120642.040000", "120642.500000", "120642.960000", "120643.420000", "120643.880000", "120644.340000", "120644.800000", "120645.260000", "120645.720000", "120646.180000", "120646.640000", "120647.100000", "120647.560000", "120648.020000", "120648.480000", "120648.940000", "120649.400000", "120649.860000", "120650.320000", "120650.780000", "120651.240000", "120651.700000", "120652.160000", "120652.620000", "120653.080000", "120653.540000", "120654.000000", "120654.460000", "120654.920000", "120655.380000", "120655.840000", "120656.300000", "120656.760000", "120657.220000", "120657.680000", "120658.140000", "120658.600000", "120659.060000", "120659.520000", "120659.980000", "120700.440000", "120700.900000", "120701.360000", "120701.820000", "120702.280000", "120702.740000", "120703.200000", "120703.660000", "120704.120000", "120704.580000", "120705.040000", "120705.500000", "120705.960000", "120706.420000", "120706.880000", "120707.340000", "120707.800000", "120708.260000", "120708.720000", "120709.180000", "120709.640000", "120710.100000", "120710.560000", "120711.020000", "120711.480000", "120711.940000", "120712.400000", "120712.860000", "120713.320000", "120713.780000", "120714.240000", "120714.700000", "120715.160000", "120715.620000", "120716.080000", "120716.540000", "120717.000000", "120717.460000", "120717.920000", "120718.380000", "120718.840000", "120719.300000", "120719.760000", "120720.220000", "120720.680000", "120721.140000", "120721.600000", "120722.060000", "120722.520000", "120722.980000", "120723.440000", "120723.900000", "120724.360000", "120724.820000", "120725.280000", "120725.740000", "120726.200000", "120726.660000", "120727.120000", "120727.580000", "120728.040000", "120728.500000", "120728.960000", "120729.420000", "120729.880000", "120730.340000", "120730.800000", "120731.260000", "120731.720000", "120732.180000", "120732.640000", "120733.100000", "120733.560000", "120734.020000", "120734.480000", "120734.940000", "120735.400000", "120735.860000", "120736.320000", "120736.780000", "120737.240000", "120737.700000", "120738.160000", "120738.620000", "120739.080000", "120739.540000", "120740.000000", "120740.460000", "120740.920000", "120741.380000", "120741.840000", "120742.300000", "120742.760000", "120743.220000", "120743.680000", "120744.140000", "120744.600000", "120745.060000", "120745.520000", "120745.980000", "120746.440000", "120746.900000", "120747.360000", "120747.820000", "120748.280000", "120748.740000", "120749.200000", "120749.660000", "120750.120000", "120750.580000", "120751.040000", "120751.500000", "120751.960000", "120752.420000", "120752.880000", "120753.340000", "120753.800000", "120754.260000", "120754.720000", "120755.180000", "120755.640000", "120756.100000", "120756.560000", "120757.020000", "120757.480000", "120757.940000", "120758.400000", "120758.860000", "120759.320000", "120759.780000", "120800.240000", "120800.700000", "120801.160000", "120801.620000", "120802.080000", "120802.540000", "120803.000000", "120803.460000", "120803.920000", "120804.380000", "120804.840000", "120805.300000", "120805.760000", "120806.220000", "120806.680000", "120807.140000", "120807.600000", "120808.060000", "120808.520000", "120808.980000", "120809.440000", "120809.900000", "120810.360000", "120810.820000", "120811.280000", "120811.740000", "120812.200000", "120812.660000", "120813.120000", "120813.580000", "120814.040000", "120814.500000", "120814.960000", "120815.420000", "120815.880000", "120816.340000", "120816.800000", "120817.260000", "120817.720000", "120818.180000", "120818.640000", "120819.100000", "120819.560000", "120820.020000", "120820.480000", "120820.940000", "120821.400000", "120821.860000", "120822.320000", "120822.780000", "120823.240000", "120823.700000", "120824.160000", "120824.620000", "120825.080000", "120825.540000", "120826.000000", "120826.460000", "120826.920000", "120827.380000", "120827.840000", "120828.300000", "120828.760000", "120829.220000", "120829.680000", "120830.140000", "120830.600000", "120831.060000", "120831.520000", "120831.980000", "120832.440000", "120832.900000", "120833.360000", "120833.820000", "120834.280000", "120834.740000", "120835.200000", "120835.660000", "120836.120000", "120836.580000", "120837.040000", "120837.500000", "120837.960000", "120838.420000", "120838.880000", "120839.340000", "120839.800000", "120840.260000", "120840.720000", "120841.180000", "120841.640000", "120842.100000", "120842.560000", "120843.020000", "120843.480000", "120843.940000", "120844.400000", "120844.860000", "120845.320000", "120845.780000", "120846.240000", "120846.700000", "120847.160000", "120847.620000", "120848.080000", "120848.540000", "120849.000000", "120849.460000", "120849.920000", "120850.380000", "120850.840000", "120851.300000", "120851.760000", "120852.220000", "120852.680000", "120853.140000", "120853.600000", "120854.060000", "120854.520000", "120854.980000", "120855.440000", "120855.900000", "120856.360000", "120856.820000", "120857.280000", "120857.740000", "120858.200000", "120858.660000", "120859.120000", "120859.580000", "120900.040000", "120900.500000", "120900.960000", "120901.420000", "120901.880000", "120902.340000", "120902.800000", "120903.260000", "120903.720000", "120904.180000", "120904.640000", "120905.100000", "120905.560000", "120906.020000", "120906.480000", "120906.940000", "120907.400000", "120907.860000", "120908.320000", "120908.780000", "120909.240000", "120909.700000", "120910.160000", "120910.620000", "120911.080000", "120911.540000", "120912.000000", "120912.460000", "120912.920000", "120913.380000", "120913.840000", "120914.300000", "120914.760000", "120915.220000", "120915.680000", "120916.140000", "120916.600000", "120917.060000", "120917.520000", "120917.980000", "120918.440000", "120918.900000", "120919.360000", "120919.820000", "120920.280000", "120920.740000", "120921.200000", "120921.660000", "120922.120000", "120922.580000", "120923.040000", "120923.500000", "120923.960000", "120924.420000", "120924.880000", "120925.340000", "120925.800000", "120926.260000", "120926.720000", "120927.180000", "120927.640000", "120928.100000", "120928.560000", "120929.020000", "120929.480000", "120929.940000", "120930.400000", "120930.860000", "120931.320000", "120931.780000", "120932.240000", "120932.700000", "120933.160000", "120933.620000", "120934.080000", "120934.540000", "120935.000000", "120935.460000", "120935.920000", "120936.380000", "120936.840000", "120937.300000", "120937.760000", "120938.220000", "120938.680000", "120939.140000", "120939.600000", "120940.060000", "120940.520000", "120940.980000", "120941.440000", "120941.900000", "120942.360000", "120942.820000", "120943.280000", "120943.740000", "120944.200000", "120944.660000", "120945.120000", "120945.580000", "120946.040000", "120946.500000", "120946.960000", "120947.420000", "120947.880000", "120948.340000", "120948.800000", "120949.260000", "120949.720000", "120950.180000", "120950.640000", "120951.100000", "120951.560000", "120952.020000", "120952.480000", "120952.940000", "120953.400000", "120953.860000", "120954.320000", "120954.780000", "120955.240000", "120955.700000", "120956.160000", "120956.620000", "120957.080000", "120957.540000", "120958.000000", "120958.460000", "120958.920000", "120959.380000", "120959.840000", "121000.300000", "121000.760000", "121001.220000", "121001.680000", "121002.140000", "121002.600000", "121003.060000", "121003.520000", "121003.980000", "121004.440000", "121004.900000", "121005.360000", "121005.820000", "121006.280000", "121006.740000", "121007.200000", "121007.660000", "121008.120000", "121008.580000", "121009.040000", "121009.500000", "121009.960000", "121010.420000", "121010.880000", "121011.340000", "121011.800000", "121012.260000", "121012.720000", "121013.180000", "121013.640000", "121014.100000", "121014.560000"],
