{
  "AcquisitionMatrixPE": 140,
  "AcquisitionNumber": 1,
  "AcquisitionTime": "15:46:21.995000",
  "BandwidthPerPixelPhaseEncode": 10.352,
  "BaseResolution": 140,
  "BodyPartExamined": "BRAIN",
  "ConsistencyInfo": "N4_VE11E_LATEST_20181129",
  "ConversionSoftware": "dcm2niix",
  "ConversionSoftwareVersion": "v1.0.20201102",
  "DerivedVendorReportedEchoSpacing": 0.000689998,
  "DeviceSerialNumber": "66112",
  "DiffusionScheme": "Monopolar",
  "DwellTime": 2.1e-06,
  "EchoTime": 0.088,
  "EchoTrainLength": 105,
  "EffectiveEchoSpacing": 0.000689998,
  "FlipAngle": 90,
  "ImageComments": "Unaliased MB3/PE3",
  "ImageOrientationPatientDICOM": [0.999478, 0.0217656, 0.0238606, -0.0259977, 0.98055, 0.194542],
  "ImageType": [
    "ORIGINAL",
    "PRIMARY",
    "DIFFUSION",
    "NONE",
    "MB",
    "ND"
],
  "ImagingFrequency": 123.252,
  "InPlanePhaseEncodingDirectionDICOM": "COL",
  "InstitutionAddress": "Maynard 3,Hanover,NH,US,03755",
  "InstitutionName": "Dartmouth College - PBS",
  "InstitutionalDepartmentName": "Department",
  "IntendedFor": [
    "ses-01/dwi/sub-0069_ses-01_acq-96dirX6b0Xmb_dwi.nii.gz"
],
  "MRAcquisitionType": "2D",
  "MagneticFieldStrength": 3,
  "Manufacturer": "Siemens",
  "ManufacturersModelName": "Prisma",
  "Modality": "MR",
  "MultibandAccelerationFactor": 3,
  "PartialFourier": 0.75,
  "PatientPosition": "HFS",
  "PercentPhaseFOV": 100,
  "PercentSampling": 100,
  "PhaseEncodingDirection": "j-",
  "PhaseEncodingSteps": 105,
  "PhaseResolution": 1,
  "PixelBandwidth": 1700,
  "ProcedureStepDescription": "Wager_Wager^1076_spacetop",
  "ProtocolName": "dwi_acq-discorr-AP",
  "PulseSequenceDetails": "%CustomerSeq%\\cmrr_mbep2d_diff",
  "ReceiveCoilActiveElements": "HEA;HEP",
  "ReceiveCoilName": "Head_32",
  "ReconMatrixPE": 140,
  "RepetitionTime": 4.1,
  "SAR": 0.132784,
  "ScanOptions": "PFP\\FS",
  "ScanningSequence": "EP",
  "SequenceName": "ep_b0",
  "SequenceVariant": "SK\\SS",
  "SeriesDescription": "dwi_acq-discorr-AP",
  "SeriesNumber": 7,
  "ShimSetting": [4155, -7758, -7253, 572, -57, -102, 89, 46],
  "SliceThickness": 1.7,
  "SliceTiming": [0, 2.10938, 0.14062, 2.26562, 0.29688, 2.40625, 0.45312, 2.5625, 0.59375, 2.71875, 0.75, 2.85938, 0.90625, 3.01562, 1.04688, 3.17188, 1.20312, 3.3125, 1.35938, 3.46875, 1.5, 3.625, 1.65625, 3.76562, 1.8125, 3.92188, 1.95312, 0, 2.10938, 0.14062, 2.26562, 0.29688, 2.40625, 0.45312, 2.5625, 0.59375, 2.71875, 0.75, 2.85938, 0.90625, 3.01562, 1.04688, 3.17188, 1.20312, 3.3125, 1.35938, 3.46875, 1.5, 3.625, 1.65625, 3.76562, 1.8125, 3.92188, 1.95312, 0, 2.10938, 0.14062, 2.26562, 0.29688, 2.40625, 0.45312, 2.5625, 0.59375, 2.71875, 0.75, 2.85938, 0.90625, 3.01562, 1.04688, 3.17188, 1.20312, 3.3125, 1.35938, 3.46875, 1.5, 3.625, 1.65625, 3.76562, 1.8125, 3.92188, 1.95312],
  "SoftwareVersions": "syngo MR E11",
  "SpacingBetweenSlices": 1.7,
  "StationName": "AWP66112",
  "TotalReadoutTime": 0.0959097,
  "TxRefAmp": 234.688,
  "WipMemBlock": "2e2f518f-c96a-4f53-992e-b85231d75543||Sequence: R016 ve11e/master r/434b28f1; Aug  7 2019 19:06:17 by eja",
  "dcmmeta_affine": [
    [-1.7133914232254028, -0.04456743597984314, 0.03257560729980469, 124.33317565917969],
    [-0.03731240704655647, 1.680942177772522, 0.3316001892089844, -104.6202163696289],
    [0.04090387001633644, -0.3335004150867462, 1.6670303344726562, -22.55055046081543],
    [0.0, 0.0, 0.0, 1.0]
],
  "dcmmeta_reorient_transform": [
    [0.0, -1.0, 0.0, 139.0],
    [1.0, 0.0, 0.0, 0.0],
    [0.0, 0.0, -1.0, 80.0],
    [0.0, 0.0, 0.0, 1.0]
],
  "dcmmeta_shape": [140, 140, 81],
  "dcmmeta_slice_dim": 2,
  "dcmmeta_version": 0.6,
  "global": {
    "const": {
      "AccessionNumber": "A003979",
      "AcquisitionMatrix": [140, 0, 0, 140],
      "AcquisitionNumber": 1,
      "AngioFlag": "N",
      "BitsAllocated": 16,
      "BitsStored": 16,
      "BodyPartExamined": "BRAIN",
      "Columns": 140,
      "EchoNumbers": 1,
      "EchoTime": 88.0,
      "EchoTrainLength": 105,
      "FlipAngle": 90.0,
      "HighBit": 15,
      "ImageOrientationPatient": [0.99947832997745, 0.02176557156176, 0.02386059094135, -0.0259976699528, 0.98054962681731, 0.19454189910008],
      "ImageType": [
        "ORIGINAL",
        "PRIMARY",
        "DIFFUSION",
        "NONE",
        "MB",
        "ND"
],
      "ImagedNucleus": "1H",
      "ImagingFrequency": 123.252157,
      "InPlanePhaseEncodingDirection": "COL",
      "MRAcquisitionType": "2D",
      "MagneticFieldStrength": 3.0,
      "Manufacturer": "SIEMENS",
      "ManufacturerModelName": "Prisma",
      "Modality": "MR",
      "NumberOfAverages": 1.0,
      "NumberOfPhaseEncodingSteps": 105,
      "PercentPhaseFieldOfView": 100.0,
      "PercentSampling": 100.0,
      "PerformedProcedureStepStartTime": "150123.292000",
      "PhotometricInterpretation": "MONOCHROME2",
      "PixelBandwidth": 1700.0,
      "PixelRepresentation": 0,
      "PixelSpacing": [1.7142857313156, 1.7142857313156],
      "ProtocolName": "dwi_acq-discorr-AP",
      "RepetitionTime": 4100.0,
      "Rows": 140,
      "SAR": 0.13278445928956,
      "SamplesPerPixel": 1,
      "ScanOptions": [
        "PFP",
        "FS"
],
      "ScanningSequence": "EP",
      "SequenceName": "ep_b0",
      "SequenceVariant": [
        "SK",
        "SS"
],
      "SeriesDescription": "dwi_acq-discorr-AP",
      "SeriesNumber": 7,
      "SeriesTime": "154626.922000",
      "SliceThickness": 1.7000000476837,
      "SmallestImagePixelValue": 0,
      "SoftwareVersions": "syngo MR E11",
      "SpacingBetweenSlices": 1.7,
      "SpecificCharacterSet": "ISO_IR 100",
      "StudyID": "1",
      "StudyTime": "150123.223000",
      "TransmitCoilName": "Body",
      "VariableFlipAngleFlag": "N",
      "WindowCenterWidthExplanation": "Algo1"
    },
    "slices": {
      "AcquisitionTime": ["154621.995000", "154624.110000", "154622.145000", "154624.262500", "154622.297500", "154624.412500", "154622.447500", "154624.565000", "154622.600000", "154624.715000", "154622.750000", "154624.865000", "154622.902500", "154625.017500", "154623.052500", "154625.167500", "154623.205000", "154625.320000", "154623.355000", "154625.470000", "154623.505000", "154625.622500", "154623.657500", "154625.772500", "154623.807500", "154625.925000", "154623.960000", "154621.995000", "154624.110000", "154622.145000", "154624.262500", "154622.297500", "154624.412500", "154622.447500", "154624.565000", "154622.600000", "154624.715000", "154622.750000", "154624.865000", "154622.902500", "154625.017500", "154623.052500", "154625.167500", "154623.205000", "154625.320000", "154623.355000", "154625.470000", "154623.505000", "154625.622500", "154623.657500", "154625.772500", "154623.807500", "154625.925000", "154623.960000", "154621.995000", "154624.110000", "154622.145000", "154624.262500", "154622.297500", "154624.412500", "154622.447500", "154624.565000", "154622.600000", "154624.715000", "154622.750000", "154624.865000", "154622.902500", "154625.017500", "154623.052500", "154625.167500", "154623.205000", "154625.320000", "154623.355000", "154625.470000", "154623.505000", "154625.622500", "154623.657500", "154625.772500", "154623.807500", "154625.925000", "154623.960000"],
      "ContentTime": ["154626.925000", "154627.018000", "154626.932000", "154627.026000", "154626.938000", "154627.033000", "154626.944000", "154627.041000", "154626.950000", "154627.048000", "154626.956000", "154627.054000", "154626.962000", "154627.064000", "154626.972000", "154627.070000", "154626.978000", "154627.078000", "154626.984000", "154627.083000", "154626.990000", "154627.090000", "154626.996000", "154627.096000", "154627.006000", "154627.102000", "154627.012000", "154626.928000", "154627.021000", "154626.934000", "154627.028000", "154626.940000", "154627.035000", "154626.946000", "154627.043000", "154626.952000", "154627.049000", "154626.958000", "154627.059000", "154626.964000", "154627.066000", "154626.974000", "154627.073000", "154626.980000", "154627.080000", "154626.986000", "154627.086000", "154626.992000", "154627.092000", "154626.998000", "154627.098000", "154627.008000", "154627.105000", "154627.014000", "154626.930000", "154627.024000", "154626.936000", "154627.030000", "154626.942000", "154627.039000", "154626.948000", "154627.046000", "154626.954000", "154627.052000", "154626.960000", "154627.061000", "154626.970000", "154627.068000", "154626.976000", "154627.076000", "154626.982000", "154627.082000", "154626.988000", "154627.088000", "154626.994000", "154627.094000", "154627.001000", "154627.100000", "154627.010000", "154627.107000", "154627.016000"],
      "CsaImage.GSWDDataType": [
        "predicted",
        "predicted",
        "predicted",
        "predicted",
        "predicted",
        "predicted",
        "predicted",
        "predicted",
        "predicted",
        "predicted",
        "predicted",
        "predicted",
        "predicted",
        "predicted",
        "predicted",
        "predicted",
        "predicted",
        "predicted",
        "predicted",
        "predicted",
        "predicted",
        "predicted",
        "predicted",
        "measured",
        "predicted",
        "measured",
        "predicted",
        "predicted",
        "predicted",
        "predicted",
        "predicted",
        "predicted",
        "predicted",
        "predicted",
        "predicted",
        "predicted",
        "predicted",
        "predicted",
        "predicted",
        "predicted",
        "predicted",
        "predicted",
        "predicted",
        "predicted",
        "predicted",
        "predicted",
        "predicted",
        "predicted",
        "predicted",
        "predicted",
        "measured",
        "predicted",
        "measured",
        "predicted",
        "predicted",
        "predicted",
        "predicted",
        "predicted",
        "predicted",
        "predicted",
        "predicted",
        "predicted",
        "predicted",
        "predicted",
        "predicted",
        "predicted",
        "predicted",
        "predicted",
        "predicted",
        "predicted",
        "predicted",
        "predicted",
        "predicted",
        "predicted",
        "predicted",
        "predicted",
        "predicted",
        "measured",
        "predicted",
        "measured",
        "predicted"
],
      "CsaImage.ICE_Dims": [
        "X_1_1_1_1_1_1_1_1_1_1_1_123",
        "X_1_1_1_1_1_1_42_1_1_2_1_123",
        "X_1_1_1_1_1_1_2_1_1_3_1_123",
        "X_1_1_1_1_1_1_43_1_1_4_1_123",
        "X_1_1_1_1_1_1_3_1_1_5_1_123",
        "X_1_1_1_1_1_1_44_1_1_6_1_123",
        "X_1_1_1_1_1_1_4_1_1_7_1_123",
        "X_1_1_1_1_1_1_45_1_1_8_1_123",
        "X_1_1_1_1_1_1_5_1_1_9_1_123",
        "X_1_1_1_1_1_1_46_1_1_10_1_123",
        "X_1_1_1_1_1_1_6_1_1_11_1_123",
        "X_1_1_1_1_1_1_47_1_1_12_1_123",
        "X_1_1_1_1_1_1_7_1_1_13_1_123",
        "X_1_1_1_1_1_1_48_1_1_14_1_123",
        "X_1_1_1_1_1_1_8_1_1_15_1_123",
        "X_1_1_1_1_1_1_49_1_1_16_1_123",
        "X_1_1_1_1_1_1_9_1_1_17_1_123",
        "X_1_1_1_1_1_1_50_1_1_18_1_123",
        "X_1_1_1_1_1_1_10_1_1_19_1_123",
        "X_1_1_1_1_1_1_51_1_1_20_1_123",
        "X_1_1_1_1_1_1_11_1_1_21_1_123",
        "X_1_1_1_1_1_1_52_1_1_22_1_123",
        "X_1_1_1_1_1_1_12_1_1_23_1_123",
        "X_1_1_1_1_1_1_53_1_1_24_1_123",
        "X_1_1_1_1_1_1_13_1_1_25_1_123",
        "X_1_1_1_1_1_1_54_1_1_26_1_123",
        "X_1_1_1_1_1_1_14_1_1_27_1_123",
        "X_1_1_1_1_1_1_55_1_1_28_1_123",
        "X_1_1_1_1_1_1_15_1_1_29_1_123",
        "X_1_1_1_1_1_1_56_1_1_30_1_123",
        "X_1_1_1_1_1_1_16_1_1_31_1_123",
        "X_1_1_1_1_1_1_57_1_1_32_1_123",
        "X_1_1_1_1_1_1_17_1_1_33_1_123",
        "X_1_1_1_1_1_1_58_1_1_34_1_123",
        "X_1_1_1_1_1_1_18_1_1_35_1_123",
        "X_1_1_1_1_1_1_59_1_1_36_1_123",
        "X_1_1_1_1_1_1_19_1_1_37_1_123",
        "X_1_1_1_1_1_1_60_1_1_38_1_123",
        "X_1_1_1_1_1_1_20_1_1_39_1_123",
        "X_1_1_1_1_1_1_61_1_1_40_1_123",
        "X_1_1_1_1_1_1_21_1_1_41_1_123",
        "X_1_1_1_1_1_1_62_1_1_42_1_123",
        "X_1_1_1_1_1_1_22_1_1_43_1_123",
        "X_1_1_1_1_1_1_63_1_1_44_1_123",
        "X_1_1_1_1_1_1_23_1_1_45_1_123",
        "X_1_1_1_1_1_1_64_1_1_46_1_123",
        "X_1_1_1_1_1_1_24_1_1_47_1_123",
        "X_1_1_1_1_1_1_65_1_1_48_1_123",
        "X_1_1_1_1_1_1_25_1_1_49_1_123",
        "X_1_1_1_1_1_1_66_1_1_50_1_123",
        "X_1_1_1_1_1_1_26_1_1_51_1_123",
        "X_1_1_1_1_1_1_67_1_1_52_1_123",
        "X_1_1_1_1_1_1_27_1_1_53_1_123",
        "X_1_1_1_1_1_1_68_1_1_54_1_123",
        "X_1_1_1_1_1_1_28_1_1_55_1_123",
        "X_1_1_1_1_1_1_69_1_1_56_1_123",
        "X_1_1_1_1_1_1_29_1_1_57_1_123",
        "X_1_1_1_1_1_1_70_1_1_58_1_123",
        "X_1_1_1_1_1_1_30_1_1_59_1_123",
        "X_1_1_1_1_1_1_71_1_1_60_1_123",
        "X_1_1_1_1_1_1_31_1_1_61_1_123",
        "X_1_1_1_1_1_1_72_1_1_62_1_123",
        "X_1_1_1_1_1_1_32_1_1_63_1_123",
        "X_1_1_1_1_1_1_73_1_1_64_1_123",
        "X_1_1_1_1_1_1_33_1_1_65_1_123",
        "X_1_1_1_1_1_1_74_1_1_66_1_123",
        "X_1_1_1_1_1_1_34_1_1_67_1_123",
        "X_1_1_1_1_1_1_75_1_1_68_1_123",
        "X_1_1_1_1_1_1_35_1_1_69_1_123",
        "X_1_1_1_1_1_1_76_1_1_70_1_123",
        "X_1_1_1_1_1_1_36_1_1_71_1_123",
        "X_1_1_1_1_1_1_77_1_1_72_1_123",
        "X_1_1_1_1_1_1_37_1_1_73_1_123",
        "X_1_1_1_1_1_1_78_1_1_74_1_123",
        "X_1_1_1_1_1_1_38_1_1_75_1_123",
        "X_1_1_1_1_1_1_79_1_1_76_1_123",
        "X_1_1_1_1_1_1_39_1_1_77_1_123",
        "X_1_1_1_1_1_1_80_1_1_78_1_123",
        "X_1_1_1_1_1_1_40_1_1_79_1_123",
        "X_1_1_1_1_1_1_81_1_1_80_1_123",
        "X_1_1_1_1_1_1_41_1_1_81_1_123"
],
      "CsaImage.ProtocolSliceNumber": [0, 1, 2, 3, 4, 5, 6, 7, 8, 9, 10, 11, 12, 13, 14, 15, 16, 17, 18, 19, 20, 21, 22, 23, 24, 25, 26, 27, 28, 29, 30, 31, 32, 33, 34, 35, 36, 37, 38, 39, 40, 41, 42, 43, 44, 45, 46, 47, 48, 49, 50, 51, 52, 53, 54, 55, 56, 57, 58, 59, 60, 61, 62, 63, 64, 65, 66, 67, 68, 69, 70, 71, 72, 73, 74, 75, 76, 77, 78, 79, 80],
      "CsaImage.RFSWDDataType": [
        "predicted",
        "predicted",
        "predicted",
        "predicted",
        "predicted",
        "predicted",
        "predicted",
        "predicted",
        "predicted",
        "predicted",
        "predicted",
        "predicted",
        "predicted",
        "predicted",
        "predicted",
        "predicted",
        "predicted",
        "predicted",
        "predicted",
        "predicted",
        "predicted",
        "predicted",
        "predicted",
        "measured",
        "predicted",
        "measured",
        "predicted",
        "predicted",
        "predicted",
        "predicted",
        "predicted",
        "predicted",
        "predicted",
        "predicted",
        "predicted",
        "predicted",
        "predicted",
        "predicted",
        "predicted",
        "predicted",
        "predicted",
        "predicted",
        "predicted",
        "predicted",
        "predicted",
        "predicted",
        "predicted",
        "predicted",
        "predicted",
        "predicted",
        "measured",
        "predicted",
        "measured",
        "predicted",
        "predicted",
        "predicted",
        "predicted",
        "predicted",
        "predicted",
        "predicted",
        "predicted",
        "predicted",
        "predicted",
        "predicted",
        "predicted",
        "predicted",
        "predicted",
        "predicted",
        "predicted",
        "predicted",
        "predicted",
        "predicted",
        "predicted",
        "predicted",
        "predicted",
        "predicted",
        "predicted",
        "measured",
        "predicted",
        "measured",
        "predicted"
],
      "CsaImage.SlicePosition_PCS": [
        [-118.13829148, -129.03050769, -68.90681973],
        [-118.17086721, -129.36211074, -67.23979321],
        [-118.20344294, -129.69371379, -65.57276669],
        [-118.23601866, -130.02531779, -63.90574017],
        [-118.26859427, -130.35692084, -62.23871365],
        [-118.30117, -130.68852389, -60.57168713],
        [-118.33374572, -131.02012694, -58.90466061],
        [-118.36632145, -131.35172999, -57.23763218],
        [-118.39889706, -131.683334, -55.57060566],
        [-118.43147278, -132.01493705, -53.90357914],
        [-118.46404851, -132.3465401, -52.23655262],
        [-118.49662412, -132.67814315, -50.5695261],
        [-118.52919984, -133.0097462, -48.90249958],
        [-118.56177557, -133.3413502, -47.23547306],
        [-118.5943513, -133.67295325, -45.56844654],
        [-118.6269269, -134.0045563, -43.90142002],
        [-118.65950263, -134.33615935, -42.23439159],
        [-118.69207836, -134.6677624, -40.56736603],
        [-118.72465408, -134.99936641, -38.90033856],
        [-118.75722969, -135.33096946, -37.23331204],
        [-118.78980542, -135.66257251, -35.56628552],
        [-118.82238102, -135.99417556, -33.899259],
        [-118.85495687, -136.32577956, -32.232232],
        [-118.88753248, -136.65738166, -30.56520548],
        [-118.92010808, -136.98898566, -28.89817872],
        [-118.95268393, -137.32058966, -27.23115196],
        [-118.98525954, -137.65219176, -25.5641252],
        [-119.01783538, -137.98379576, -23.89709845],
        [-119.05041099, -138.31539786, -22.23007169],
        [-119.0829866, -138.64700186, -20.56304493],
        [-119.11556244, -138.97860587, -18.89601841],
        [-119.14813805, -139.31020797, -17.22899189],
        [-119.18071366, -139.64181197, -15.56196442],
        [-119.2132895, -139.97341407, -13.8949379],
        [-119.24586511, -140.30501807, -12.22791138],
        [-119.27844096, -140.63662207, -10.56088486],
        [-119.31101656, -140.96822417, -8.89385738],
        [-119.34359217, -141.29982817, -7.22683086],
        [-119.37616802, -141.63143027, -5.55980434],
        [-119.40874362, -141.96303427, -3.89277783],
        [-119.44131923, -142.29463828, -2.22575131],
        [-119.47389508, -142.62624038, -0.55872479],
        [-119.50647068, -142.95784438, 1.10830173],
        [-119.53904629, -143.28944648, 2.77532825],
        [-119.57162214, -143.62105048, 4.44235668],
        [-119.60419775, -143.95265448, 6.10938129],
        [-119.63677359, -144.28425658, 7.77640781],
        [-119.6693492, -144.61586058, 9.44343433],
        [-119.70192481, -144.94746268, 11.11046467],
        [-119.73450065, -145.27906668, 12.77749119],
        [-119.76707626, -145.61067069, 14.44451771],
        [-119.79965187, -145.94227278, 16.11154423],
        [-119.83222771, -146.27387679, 17.77857075],
        [-119.86480332, -146.60547889, 19.44559727],
        [-119.89737893, -146.93708289, 21.11262379],
        [-119.92995477, -147.26868689, 22.77965031],
        [-119.96253038, -147.60028899, 24.44667683],
        [-119.99510622, -147.93189299, 26.11370335],
        [-120.02768183, -148.26349509, 27.78072987],
        [-120.06025744, -148.59509909, 29.44775639],
        [-120.09283329, -148.9267031, 31.1147829],
        [-120.12540889, -149.25830519, 32.78180942],
        [-120.1579845, -149.5899092, 34.44883594],
        [-120.19056035, -149.9215132, 36.11586246],
        [-120.22313595, -150.2531153, 37.78288898],
        [-120.25571156, -150.5847193, 39.44991932],
        [-120.28828741, -150.9163214, 41.11694202],
        [-120.32086301, -151.2479254, 42.78397236],
        [-120.35343886, -151.57952941, 44.45099506],
        [-120.38601447, -151.9111315, 46.1180254],
        [-120.41859007, -152.24273551, 47.7850481],
        [-120.45116592, -152.5743376, 49.45207844],
        [-120.48374153, -152.90594161, 51.11910114],
        [-120.51631713, -153.23754561, 52.78613148],
        [-120.54889298, -153.56914962, 54.45315418],
        [-120.58146859, -153.90074981, 56.12018452],
        [-120.61404443, -154.23235381, 57.78721485],
        [-120.64662004, -154.56395781, 59.45423756],
        [-120.67919565, -154.89556182, 61.12126789],
        [-120.71177149, -155.22716582, 62.7882906],
        [-120.7443471, -155.55876601, 64.45532093]
],
      "CsaImage.TimeAfterStart": [16.4, 18.515, 16.55, 18.665, 16.7025, 18.8175, 16.8525, 18.9675, 17.005, 19.12, 17.155, 19.27, 17.305, 19.4225, 17.4575, 19.5725, 17.6075, 19.725, 17.76, 19.875, 17.91, 20.025, 18.0625, 20.1775, 18.2125, 20.3275, 18.365, 16.4, 18.515, 16.55, 18.665, 16.7025, 18.8175, 16.8525, 18.9675, 17.005, 19.12, 17.155, 19.27, 17.305, 19.4225, 17.4575, 19.5725, 17.6075, 19.725, 17.76, 19.875, 17.91, 20.025, 18.0625, 20.1775, 18.2125, 20.3275, 18.365, 16.4, 18.515, 16.55, 18.665, 16.7025, 18.8175, 16.8525, 18.9675, 17.005, 19.12, 17.155, 19.27, 17.305, 19.4225, 17.4575, 19.5725, 17.6075, 19.725, 17.76, 19.875, 17.91, 20.025, 18.0625, 20.1775, 18.2125, 20.3275, 18.365],
      "ImagePositionPatient": [
        [-118.13829148271, -129.03050768619, -68.906819725728],
        [-118.17086720922, -129.36211073642, -67.239793205953],
        [-118.20344293573, -129.69371378666, -65.572766686178],
        [-118.23601866224, -130.02531779056, -63.905740166402],
        [-118.26859426954, -130.35692084079, -62.238713646627],
        [-118.30116999604, -130.68852389103, -60.571687126851],
        [-118.33374572255, -131.02012694126, -58.904660607076],
        [-118.36632144906, -131.35172999149, -57.237632179952],
        [-118.39889705636, -131.6833339954, -55.570605660177],
        [-118.43147278287, -132.01493704563, -53.903579140401],
        [-118.46404850938, -132.34654009586, -52.236552620626],
        [-118.49662411668, -132.67814314609, -50.56952610085],
        [-118.52919984319, -133.00974619632, -48.902499581075],
        [-118.5617755697, -133.34135020023, -47.2354730613],
        [-118.59435129621, -133.67295325046, -45.568446541524],
        [-118.62692690351, -134.00455630069, -43.901420021749],
        [-118.65950263002, -134.33615935093, -42.234391594625],
        [-118.69207835653, -134.66776240116, -40.567366028524],
        [-118.72465408303, -134.99936640506, -38.900338555074],
        [-118.75722969033, -135.3309694553, -37.233312035299],
        [-118.78980541684, -135.66257250553, -35.566285515523],
        [-118.82238102414, -135.99417555576, -33.899258995748],
        [-118.85495686986, -136.32577955967, -32.232231999135],
        [-118.88753247716, -136.65738165622, -30.56520547936],
        [-118.92010808446, -136.98898566013, -28.898178721166],
        [-118.95268393018, -137.32058966404, -27.231151962972],
        [-118.98525953748, -137.65219176059, -25.564125204778],
        [-119.0178353832, -137.9837957645, -23.897098446584],
        [-119.0504109905, -138.31539786106, -22.23007168839],
        [-119.0829865978, -138.64700186496, -20.563044930196],
        [-119.11556244352, -138.97860586887, -18.896018410421],
        [-119.14813805082, -139.31020796543, -17.228991890645],
        [-119.18071365812, -139.64181196934, -15.561964417196],
        [-119.21328950383, -139.97341406589, -13.89493789742],
        [-119.24586511113, -140.3050180698, -12.227911377645],
        [-119.27844095685, -140.63662207371, -10.56088485787],
        [-119.31101656415, -140.96822417026, -8.8938573844198],
        [-119.34359217145, -141.29982817417, -7.2268308646444],
        [-119.37616801717, -141.63143027073, -5.559804344869],
        [-119.40874362447, -141.96303427463, -3.8927778250936],
        [-119.44131923177, -142.29463827854, -2.2257513053183],
        [-119.47389507749, -142.6262403751, -0.5587247855429],
        [-119.50647068479, -142.957844379, 1.1083017342325],
        [-119.53904629209, -143.28944647556, 2.7753282540079],
        [-119.57162213781, -143.62105047947, 4.4423566811319],
        [-119.60419774511, -143.95265448337, 6.1093812935587],
        [-119.63677359082, -144.28425657993, 7.7764078133341],
        [-119.66934919812, -144.61586058384, 9.4434343331095],
        [-119.70192480542, -144.94746268039, 11.110464667582],
        [-119.73450065114, -145.2790666843, 12.777491187358],
        [-119.76707625844, -145.61067068821, 14.444517707133],
        [-119.79965186574, -145.94227278476, 16.111544226908],
        [-119.83222771146, -146.27387678867, 17.778570746684],
        [-119.86480331876, -146.60547888523, 19.445597266459],
        [-119.89737892606, -146.93708288913, 21.112623786234],
        [-119.92995477178, -147.26868689304, 22.77965030601],
        [-119.96253037908, -147.6002889896, 24.446676825785],
        [-119.9951062248, -147.9318929935, 26.113703345561],
        [-120.0276818321, -148.26349509006, 27.780729865336],
        [-120.0602574394, -148.59509909397, 29.447756385111],
        [-120.09283328511, -148.92670309788, 31.114782904887],
        [-120.12540889241, -149.25830519443, 32.781809424662],
        [-120.15798449971, -149.58990919834, 34.448835944438],
        [-120.19056034543, -149.92151320225, 36.115862464213],
        [-120.22313595273, -150.2531152988, 37.782888983988],
        [-120.25571156003, -150.58471930271, 39.449919318461],
        [-120.28828740575, -150.91632139927, 41.116942023539],
        [-120.32086301305, -151.24792540317, 42.783972358012],
        [-120.35343885877, -151.57952940708, 44.45099506309],
        [-120.38601446607, -151.91113150364, 46.118025397563],
        [-120.41859007337, -152.24273550754, 47.785048102641],
        [-120.45116591909, -152.5743376041, 49.452078437113],
        [-120.48374152639, -152.90594160801, 51.119101142192],
        [-120.51631713369, -153.23754561191, 52.786131476664],
        [-120.5488929794, -153.56914961582, 54.453154181742],
        [-120.5814685867, -153.90074980503, 56.120184516215],
        [-120.61404443242, -154.23235380893, 57.787214850688],
        [-120.64662003972, -154.56395781284, 59.454237555766],
        [-120.67919564702, -154.89556181675, 61.121267890238],
        [-120.71177149274, -155.22716582065, 62.788290595317],
        [-120.74434710004, -155.55876600986, 64.455320929789]
],
      "InstanceCreationTime": ["154626.925000", "154627.018000", "154626.932000", "154627.026000", "154626.938000", "154627.033000", "154626.944000", "154627.041000", "154626.950000", "154627.048000", "154626.956000", "154627.054000", "154626.962000", "154627.064000", "154626.972000", "154627.070000", "154626.978000", "154627.078000", "154626.984000", "154627.083000", "154626.990000", "154627.090000", "154626.996000", "154627.096000", "154627.006000", "154627.102000", "154627.012000", "154626.928000", "154627.021000", "154626.934000", "154627.028000", "154626.940000", "154627.035000", "154626.946000", "154627.043000", "154626.952000", "154627.049000", "154626.958000", "154627.059000", "154626.964000", "154627.066000", "154626.974000", "154627.073000", "154626.980000", "154627.080000", "154626.986000", "154627.086000", "154626.992000", "154627.092000", "154626.998000", "154627.098000", "154627.008000", "154627.105000", "154627.014000", "154626.930000", "154627.024000", "154626.936000", "154627.030000", "154626.942000", "154627.039000", "154626.948000", "154627.046000", "154626.954000", "154627.052000", "154626.960000", "154627.061000", "154626.970000", "154627.068000", "154626.976000", "154627.076000", "154626.982000", "154627.082000", "154626.988000", "154627.088000", "154626.994000", "154627.094000", "154627.001000", "154627.100000", "154627.010000", "154627.107000", "154627.016000"],
      "InstanceNumber": [1, 2, 3, 4, 5, 6, 7, 8, 9, 10, 11, 12, 13, 14, 15, 16, 17, 18, 19, 20, 21, 22, 23, 24, 25, 26, 27, 28, 29, 30, 31, 32, 33, 34, 35, 36, 37, 38, 39, 40, 41, 42, 43, 44, 45, 46, 47, 48, 49, 50, 51, 52, 53, 54, 55, 56, 57, 58, 59, 60, 61, 62, 63, 64, 65, 66, 67, 68, 69, 70, 71, 72, 73, 74, 75, 76, 77, 78, 79, 80, 81],
      "LargestImagePixelValue": [22325, 22606, 25731, 26890, 35014, 38012, 24177, 28262, 33444, 30517, 27555, 25106, 27389, 35171, 47246, 51734, 43805, 47033, 51615, 58529, 54540, 55208, 56541, 48534, 41753, 65535, 65535, 65535, 65535, 65535, 65535, 54244, 41919, 30856, 36480, 39752, 28753, 32067, 32564, 36585, 39394, 31897, 39994, 38555, 39336, 49676, 43172, 52002, 52920, 54232, 38569, 49496, 56042, 41479, 41667, 40277, 35426, 38353, 43383, 45887, 45597, 47741, 43514, 41612, 44398, 43424, 52572, 52925, 52112, 60661, 54085, 52038, 44567, 47663, 49832, 60708, 54718, 37516, 11656, 11095, 11386],
      "SliceLocation": [-40.13772786542, -38.437728107033, -36.737728348647, -35.037728404235, -33.337728648133, -31.637728889746, -29.937729131359, -28.237727502619, -26.537727560492, -24.837727802105, -23.137728043719, -21.437728287616, -19.737728529229, -18.037728584818, -16.337728826431, -14.637729070329, -12.937727441588, -11.237728618378, -9.5377277387904, -7.8377279826879, -6.1377282243011, -4.4377284681986, -2.7377280539147, -1.0377284838367, 0.66227169208443, 2.3622718725741, 4.0622716764464, 5.7622718569361, 7.4622716608084, 9.1622718367295, 10.862271783425, 12.562271353503, 14.262272230807, 15.962271805453, 17.66227174758, 19.362271694276, 21.062272199531, 22.762272141658, 24.462271716304, 26.162271658431, 27.862271600558, 29.562271175205, 31.262271117332, 32.96227068741, 34.662272504459, 36.362270576232, 38.062270150879, 39.762270093006, 41.462273403791, 43.162273350487, 44.862273292613, 46.562272862692, 48.262272809387, 49.962272379465, 51.662272321592, 53.362272268287, 55.062271838366, 56.762271785061, 58.462271355139, 60.162271297266, 61.862271243962, 63.56227081404, 65.262270756167, 66.962270702862, 68.66227027294, 70.362273955774, 72.062269789714, 73.762273472548, 75.462269678536, 77.162272989321, 78.862269190741, 80.562272506095, 82.262268707515, 83.962272390349, 85.662268596337, 87.362271535074, 89.062275222476, 90.762271423896, 92.46227510673, 94.162271312718, 95.862274251455],
