{
  "AcquisitionMatrixPE": 82,
  "AcquisitionNumber": 1,
  "AcquisitionTime": "19:51:9.922500",
  "BandwidthPerPixelPhaseEncode": 24.888,
  "BaseResolution": 82,
  "BodyPartExamined": "BRAIN",
  "ConsistencyInfo": "N4_VE11E_LATEST_20181129",
  "ConversionSoftware": "dcm2niix",
  "ConversionSoftwareVersion": "v1.0.20201102",
  "DerivedVendorReportedEchoSpacing": 0.00049,
  "DeviceSerialNumber": "66112",
  "DwellTime": 2e-06,
  "EchoTime": 0.0272,
  "EchoTrainLength": 82,
  "EffectiveEchoSpacing": 0.00049,
  "FlipAngle": 44,
  "ImageComments": "Unaliased MB8/PE3",
  "ImageOrientationPatientDICOM": [0.998972, 0.0310527, 0.0330108, -0.0354086, 0.989402, 0.140819],
  "ImageType": [
    "ORIGINAL",
    "PRIMARY",
    "M",
    "MB",
    "ND",
    "NORM",
    "MOSAIC"
],
  "ImagingFrequency": 123.252,
  "InPlanePhaseEncodingDirectionDICOM": "COL",
  "InstitutionAddress": "Maynard 3,Hanover,NH,US,03755",
  "InstitutionName": "Dartmouth College - PBS",
  "InstitutionalDepartmentName": "Department",
  "MRAcquisitionType": "2D",
  "MagneticFieldStrength": 3,
  "Manufacturer": "Siemens",
  "ManufacturersModelName": "Prisma",
  "Modality": "MR",
  "MultibandAccelerationFactor": 8,
  "PartialFourier": 1,
  "PatientPosition": "HFS",
  "PercentPhaseFOV": 100,
  "PercentSampling": 100,
  "PhaseEncodingDirection": "j-",
  "PhaseEncodingSteps": 82,
  "PhaseResolution": 1,
  "PixelBandwidth": 3050,
  "ProcedureStepDescription": "Wager_Wager^1076_spacetop",
  "ProtocolName": "func_run-02_task-social_acq-ap-mb8",
  "PulseSequenceDetails": "%CustomerSeq%\\cmrr_mbep2d_bold",
  "ReceiveCoilActiveElements": "HEA;HEP",
  "ReceiveCoilName": "Head_32",
  "ReconMatrixPE": 82,
  "RepetitionTime": 0.46,
  "SAR": 0.0878664,
  "ScanOptions": "FS",
  "ScanningSequence": "EP",
  "SequenceName": "epfid2d1_82",
  "SequenceVariant": "SK\\SS",
  "SeriesDescription": "func_run-02_task-social_acq-ap-mb8",
  "SeriesNumber": 14,
  "ShimSetting": [4136, -7866, -7309, 806, -91, -676, 198, 4],
  "SliceThickness": 2.7,
  "SliceTiming": [0, 0.2525, 0.0625, 0.315, 0.1275, 0.3775, 0.19, 0, 0.2525, 0.0625, 0.315, 0.1275, 0.3775, 0.19, 0, 0.2525, 0.0625, 0.315, 0.1275, 0.3775, 0.19, 0, 0.2525, 0.0625, 0.315, 0.1275, 0.3775, 0.19, 0, 0.2525, 0.0625, 0.315, 0.1275, 0.3775, 0.19, 0, 0.2525, 0.0625, 0.315, 0.1275, 0.3775, 0.19, 0, 0.2525, 0.0625, 0.315, 0.1275, 0.3775, 0.19, 0, 0.2525, 0.0625, 0.315, 0.1275, 0.3775, 0.19],
  "SoftwareVersions": "syngo MR E11",
  "SpacingBetweenSlices": 2.7,
  "StationName": "AWP66112",
  "TaskName": "social",
  "TotalReadoutTime": 0.03969,
  "TxRefAmp": 229.066,
  "WipMemBlock": "3991198e-0e7e-44e0-bb51-3a49b7e15e0f||Sequence: R016 ve11e/master r/434b28f1; Aug  7 2019 18:53:46 by eja",
  "dcmmeta_affine": [
    [-2.6801700592041016, -0.0949985608458519, 0.07637805491685867, 117.42262268066406],
    [-0.08331214636564255, 2.6544930934906006, 0.38297709822654724, -105.67506408691406],
    [0.08856566250324249, -0.3778076171875, 2.6716089248657227, -67.68357849121094],
    [0.0, 0.0, 0.0, 1.0]
],
  "dcmmeta_reorient_transform": [
    [0.0, -1.0, 0.0, 81.0],
    [1.0, 0.0, 0.0, 0.0],
    [0.0, 0.0, 1.0, 0.0],
    [0.0, 0.0, 0.0, 1.0]
],
  "dcmmeta_shape": [82, 82, 56, 872],
  "dcmmeta_slice_dim": 2,
  "dcmmeta_version": 0.6,
  "global": {
    "const": {
      "AccessionNumber": "A004150",
      "AcquisitionMatrix": [82, 0, 0, 82],
      "AngioFlag": "N",
      "BitsAllocated": 16,
      "BitsStored": 16,
      "BodyPartExamined": "BRAIN",
      "Columns": 656,
      "EchoNumbers": 1,
      "EchoTime": 27.2,
      "EchoTrainLength": 82,
      "FlipAngle": 44.0,
      "HighBit": 15,
      "ImageOrientationPatient": [0.9989724790043, 0.03105270941562, 0.0330108380679, -0.0354085536412, 0.98940193389413, 0.14081920158699],
      "ImagePositionPatient": [-851.67197728897, -895.08897018012, -232.13512665375],
      "ImageType": [
        "ORIGINAL",
        "PRIMARY",
        "M",
        "MB",
        "ND",
        "NORM",
        "MOSAIC"
],
      "ImagedNucleus": "1H",
      "ImagingFrequency": 123.252235,
      "InPlanePhaseEncodingDirection": "COL",
      "MRAcquisitionType": "2D",
      "MagneticFieldStrength": 3.0,
      "Manufacturer": "SIEMENS",
      "ManufacturerModelName": "Prisma",
      "Modality": "MR",
      "NumberOfAverages": 1.0,
      "NumberOfPhaseEncodingSteps": 82,
      "PercentPhaseFieldOfView": 100.0,
      "PercentSampling": 100.0,
      "PerformedProcedureStepStartTime": "185944.830000",
      "PhotometricInterpretation": "MONOCHROME2",
      "PixelBandwidth": 3050.0,
      "PixelRepresentation": 0,
      "PixelSpacing": [2.6829268932343, 2.6829268932343],
      "ProtocolName": "func_run-02_task-social_acq-ap-mb8",
      "RepetitionTime": 460.0,
      "Rows": 656,
      "SAR": 0.08786637369295,
      "SamplesPerPixel": 1,
      "ScanOptions": "FS",
      "ScanningSequence": "EP",
      "SequenceName": "epfid2d1_82",
      "SequenceVariant": [
        "SK",
        "SS"
],
      "SeriesDescription": "func_run-02_task-social_acq-ap-mb8",
      "SeriesNumber": 14,
      "SeriesTime": "195138.857000",
      "SliceLocation": -78.639507634145,
      "SliceThickness": 2.7000000476837,
      "SmallestImagePixelValue": 0,
      "SoftwareVersions": "syngo MR E11",
      "SpacingBetweenSlices": 2.6999998900696,
      "SpecificCharacterSet": "ISO_IR 100",
      "StudyID": "2",
      "StudyTime": "185944.783000",
      "TransmitCoilName": "Body",
      "VariableFlipAngleFlag": "N",
      "WindowCenterWidthExplanation": "Algo1"
    },
    "slices": {}
  },
  "time": {
    "samples": {
      "AcquisitionNumber": [1, 2, 3, 4, 5, 6, 7, 8, 9, 10, 11, 12, 13, 14, 15, 16, 17, 18, 19, 20, 21, 22, 23, 24, 25, 26, 27, 28, 29, 30, 31, 32, 33, 34, 35, 36, 37, 38, 39, 40, 41, 42, 43, 44, 45, 46, 47, 48, 49, 50, 51, 52, 53, 54, 55, 56, 57, 58, 59, 60, 61, 62, 63, 64, 65, 66, 67, 68, 69, 70, 71, 72, 73, 74, 75, 76, 77, 78, 79, 80, 81, 82, 83, 84, 85, 86, 87, 88, 89, 90, 91, 92, 93, 94, 95, 96, 97, 98, 99, 100, 101, 102, 103, 104, 105, 106, 107, 108, 109, 110, 111, 112, 113, 114, 115, 116, 117, 118, 119, 120, 121, 122, 123, 124, 125, 126, 127, 128, 129, 130, 131, 132, 133, 134, 135, 136, 137, 138, 139, 140, 141, 142, 143, 144, 145, 146, 147, 148, 149, 150, 151, 152, 153, 154, 155, 156, 157, 158, 159, 160, 161, 162, 163, 164, 165, 166, 167, 168, 169, 170, 171, 172, 173, 174, 175, 176, 177, 178, 179, 180, 181, 182, 183, 184, 185, 186, 187, 188, 189, 190, 191, 192, 193, 194, 195, 196, 197, 198, 199, 200, 201, 202, 203, 204, 205, 206, 207, 208, 209, 210, 211, 212, 213, 214, 215, 216, 217, 218, 219, 220, 221, 222, 223, 224, 225, 226, 227, 228, 229, 230, 231, 232, 233, 234, 235, 236, 237, 238, 239, 240, 241, 242, 243, 244, 245, 246, 247, 248, 249, 250, 251, 252, 253, 254, 255, 256, 257, 258, 259, 260, 261, 262, 263, 264, 265, 266, 267, 268, 269, 270, 271, 272, 273, 274, 275, 276, 277, 278, 279, 280, 281, 282, 283, 284, 285, 286, 287, 288, 289, 290, 291, 292, 293, 294, 295, 296, 297, 298, 299, 300, 301, 302, 303, 304, 305, 306, 307, 308, 309, 310, 311, 312, 313, 314, 315, 316, 317, 318, 319, 320, 321, 322, 323, 324, 325, 326, 327, 328, 329, 330, 331, 332, 333, 334, 335, 336, 337, 338, 339, 340, 341, 342, 343, 344, 345, 346, 347, 348, 349, 350, 351, 352, 353, 354, 355, 356, 357, 358, 359, 360, 361, 362, 363, 364, 365, 366, 367, 368, 369, 370, 371, 372, 373, 374, 375, 376, 377, 378, 379, 380, 381, 382, 383, 384, 385, 386, 387, 388, 389, 390, 391, 392, 393, 394, 395, 396, 397, 398, 399, 400, 401, 402, 403, 404, 405, 406, 407, 408, 409, 410, 411, 412, 413, 414, 415, 416, 417, 418, 419, 420, 421, 422, 423, 424, 425, 426, 427, 428, 429, 430, 431, 432, 433, 434, 435, 436, 437, 438, 439, 440, 441, 442, 443, 444, 445, 446, 447, 448, 449, 450, 451, 452, 453, 454, 455, 456, 457, 458, 459, 460, 461, 462, 463, 464, 465, 466, 467, 468, 469, 470, 471, 472, 473, 474, 475, 476, 477, 478, 479, 480, 481, 482, 483, 484, 485, 486, 487, 488, 489, 490, 491, 492, 493, 494, 495, 496, 497, 498, 499, 500, 501, 502, 503, 504, 505, 506, 507, 508, 509, 510, 511, 512, 513, 514, 515, 516, 517, 518, 519, 520, 521, 522, 523, 524, 525, 526, 527, 528, 529, 530, 531, 532, 533, 534, 535, 536, 537, 538, 539, 540, 541, 542, 543, 544, 545, 546, 547, 548, 549, 550, 551, 552, 553, 554, 555, 556, 557, 558, 559, 560, 561, 562, 563, 564, 565, 566, 567, 568, 569, 570, 571, 572, 573, 574, 575, 576, 577, 578, 579, 580, 581, 582, 583, 584, 585, 586, 587, 588, 589, 590, 591, 592, 593, 594, 595, 596, 597, 598, 599, 600, 601, 602, 603, 604, 605, 606, 607, 608, 609, 610, 611, 612, 613, 614, 615, 616, 617, 618, 619, 620, 621, 622, 623, 624, 625, 626, 627, 628, 629, 630, 631, 632, 633, 634, 635, 636, 637, 638, 639, 640, 641, 642, 643, 644, 645, 646, 647, 648, 649, 650, 651, 652, 653, 654, 655, 656, 657, 658, 659, 660, 661, 662, 663, 664, 665, 666, 667, 668, 669, 670, 671, 672, 673, 674, 675, 676, 677, 678, 679, 680, 681, 682, 683, 684, 685, 686, 687, 688, 689, 690, 691, 692, 693, 694, 695, 696, 697, 698, 699, 700, 701, 702, 703, 704, 705, 706, 707, 708, 709, 710, 711, 712, 713, 714, 715, 716, 717, 718, 719, 720, 721, 722, 723, 724, 725, 726, 727, 728, 729, 730, 731, 732, 733, 734, 735, 736, 737, 738, 739, 740, 741, 742, 743, 744, 745, 746, 747, 748, 749, 750, 751, 752, 753, 754, 755, 756, 757, 758, 759, 760, 761, 762, 763, 764, 765, 766, 767, 768, 769, 770, 771, 772, 773, 774, 775, 776, 777, 778, 779, 780, 781, 782, 783, 784, 785, 786, 787, 788, 789, 790, 791, 792, 793, 794, 795, 796, 797, 798, 799, 800, 801, 802, 803, 804, 805, 806, 807, 808, 809, 810, 811, 812, 813, 814, 815, 816, 817, 818, 819, 820, 821, 822, 823, 824, 825, 826, 827, 828, 829, 830, 831, 832, 833, 834, 835, 836, 837, 838, 839, 840, 841, 842, 843, 844, 845, 846, 847, 848, 849, 850, 851, 852, 853, 854, 855, 856, 857, 858, 859, 860, 861, 862, 863, 864, 865, 866, 867, 868, 869, 870, 871, 872],
      "AcquisitionTime": ["195109.922500", "195110.382500", "195110.842500", "195111.302500", "195111.762500", "195112.222500", "195112.682500", "195113.142500", "195113.602500", "195114.062500", "195114.522500", "195114.982500", "195115.442500", "195115.902500", "195116.362500", "195116.822500", "195117.282500", "195117.742500", "195118.202500", "195118.662500", "195119.122500", "195119.582500", "195120.042500", "195120.502500", "195120.962500", "195121.422500", "195121.882500", "195122.342500", "195122.802500", "195123.262500", "195123.722500", "195124.182500", "195124.642500", "195125.102500", "195125.562500", "195126.022500", "195126.482500", "195126.942500", "195127.402500", "195127.862500", "195128.322500", "195128.782500", "195129.242500", "195129.702500", "195130.162500", "195130.622500", "195131.082500", "195131.542500", "195132.002500", "195132.462500", "195132.922500", "195133.382500", "195133.842500", "195134.302500", "195134.762500", "195135.222500", "195135.682500", "195136.142500", "195136.602500", "195137.062500", "195137.522500", "195137.982500", "195138.442500", "195138.902500", "195139.362500", "195139.822500", "195140.282500", "195140.742500", "195141.202500", "195141.662500", "195142.122500", "195142.582500", "195143.042500", "195143.502500", "195143.962500", "195144.422500", "195144.882500", "195145.342500", "195145.802500", "195146.262500", "195146.722500", "195147.182500", "195147.642500", "195148.102500", "195148.562500", "195149.022500", "195149.482500", "195149.942500", "195150.402500", "195150.862500", "195151.322500", "195151.782500", "195152.242500", "195152.702500", "195153.162500", "195153.622500", "195154.082500", "195154.542500", "195155.002500", "195155.462500", "195155.922500", "195156.382500", "195156.842500", "195157.302500", "195157.762500", "195158.222500", "195158.682500", "195159.142500", "195159.602500", "195200.062500", "195200.522500", "195200.982500", "195201.442500", "195201.902500", "195202.362500", "195202.822500", "195203.282500", "195203.742500", "195204.202500", "195204.662500", "195205.122500", "195205.582500", "195206.042500", "195206.502500", "195206.962500", "195207.422500", "195207.882500", "195208.342500", "195208.802500", "195209.262500", "195209.722500", "195210.182500", "195210.642500", "195211.102500", "195211.562500", "195212.022500", "195212.482500", "195212.942500", "195213.402500", "195213.862500", "195214.322500", "195214.782500", "195215.242500", "195215.702500", "195216.162500", "195216.622500", "195217.082500", "195217.542500", "195218.002500", "195218.462500", "195218.922500", "195219.382500", "195219.842500", "195220.302500", "195220.762500", "195221.222500", "195221.682500", "195222.142500", "195222.602500", "195223.062500", "195223.522500", "195223.982500", "195224.442500", "195224.902500", "195225.362500", "195225.822500", "195226.282500", "195226.742500", "195227.202500", "195227.662500", "195228.122500", "195228.582500", "195229.042500", "195229.502500", "195229.962500", "195230.422500", "195230.882500", "195231.342500", "195231.802500", "195232.262500", "195232.722500", "195233.182500", "195233.642500", "195234.102500", "195234.562500", "195235.022500", "195235.482500", "195235.942500", "195236.402500", "195236.862500", "195237.322500", "195237.782500", "195238.242500", "195238.702500", "195239.162500", "195239.622500", "195240.082500", "195240.542500", "195241.002500", "195241.462500", "195241.922500", "195242.382500", "195242.842500", "195243.302500", "195243.762500", "195244.222500", "195244.682500", "195245.142500", "195245.602500", "195246.062500", "195246.522500", "195246.982500", "195247.442500", "195247.902500", "195248.362500", "195248.822500", "195249.282500", "195249.742500", "195250.202500", "195250.662500", "195251.122500", "195251.582500", "195252.042500", "195252.502500", "195252.962500", "195253.422500", "195253.882500", "195254.342500", "195254.802500", "195255.262500", "195255.722500", "195256.182500", "195256.642500", "195257.102500", "195257.562500", "195258.022500", "195258.482500", "195258.942500", "195259.402500", "195259.862500", "195300.322500", "195300.782500", "195301.242500", "195301.702500", "195302.162500", "195302.622500", "195303.082500", "195303.542500", "195304.002500", "195304.462500", "195304.922500", "195305.382500", "195305.842500", "195306.302500", "195306.762500", "195307.222500", "195307.682500", "195308.142500", "195308.602500", "195309.062500", "195309.522500", "195309.982500", "195310.442500", "195310.902500", "195311.362500", "195311.822500", "195312.282500", "195312.742500", "195313.202500", "195313.662500", "195314.122500", "195314.582500", "195315.042500", "195315.502500", "195315.962500", "195316.422500", "195316.882500", "195317.342500", "195317.802500", "195318.262500", "195318.722500", "195319.182500", "195319.642500", "195320.102500", "195320.562500", "195321.022500", "195321.482500", "195321.942500", "195322.402500", "195322.862500", "195323.322500", "195323.782500", "195324.242500", "195324.702500", "195325.162500", "195325.622500", "195326.082500", "195326.542500", "195327.002500", "195327.462500", "195327.922500", "195328.382500", "195328.842500", "195329.302500", "195329.762500", "195330.222500", "195330.682500", "195331.142500", "195331.602500", "195332.062500", "195332.522500", "195332.982500", "195333.442500", "195333.902500", "195334.362500", "195334.822500", "195335.282500", "195335.742500", "195336.202500", "195336.662500", "195337.122500", "195337.582500", "195338.042500", "195338.502500", "195338.962500", "195339.422500", "195339.882500", "195340.342500", "195340.802500", "195341.262500", "195341.722500", "195342.182500", "195342.642500", "195343.102500", "195343.562500", "195344.022500", "195344.482500", "195344.942500", "195345.402500", "195345.862500", "195346.322500", "195346.782500", "195347.242500", "195347.702500", "195348.162500", "195348.622500", "195349.082500", "195349.542500", "195350.002500", "195350.462500", "195350.922500", "195351.382500", "195351.842500", "195352.302500", "195352.762500", "195353.222500", "195353.682500", "195354.142500", "195354.602500", "195355.062500", "195355.522500", "195355.982500", "195356.442500", "195356.902500", "195357.362500", "195357.822500", "195358.282500", "195358.742500", "195359.202500", "195359.662500", "195400.122500", "195400.582500", "195401.042500", "195401.502500", "195401.962500", "195402.422500", "195402.882500", "195403.342500", "195403.802500", "195404.262500", "195404.722500", "195405.182500", "195405.642500", "195406.102500", "195406.562500", "195407.022500", "195407.482500", "195407.942500", "195408.402500", "195408.862500", "195409.322500", "195409.782500", "195410.242500", "195410.702500", "195411.162500", "195411.622500", "195412.082500", "195412.542500", "195413.002500", "195413.462500", "195413.922500", "195414.382500", "195414.842500", "195415.302500", "195415.762500", "195416.222500", "195416.682500", "195417.142500", "195417.602500", "195418.062500", "195418.522500", "195418.982500", "195419.442500", "195419.902500", "195420.362500", "195420.822500", "195421.282500", "195421.742500", "195422.202500", "195422.662500", "195423.122500", "195423.582500", "195424.042500", "195424.502500", "195424.962500", "195425.422500", "195425.882500", "195426.342500", "195426.802500", "195427.262500", "195427.722500", "195428.182500", "195428.642500", "195429.102500", "195429.562500", "195430.022500", "195430.482500", "195430.942500", "195431.402500", "195431.862500", "195432.322500", "195432.782500", "195433.242500", "195433.702500", "195434.162500", "195434.622500", "195435.082500", "195435.542500", "195436.002500", "195436.462500", "195436.922500", "195437.382500", "195437.842500", "195438.302500", "195438.762500", "195439.222500", "195439.682500", "195440.142500", "195440.602500", "195441.062500", "195441.522500", "195441.982500", "195442.442500", "195442.902500", "195443.362500", "195443.822500", "195444.282500", "195444.742500", "195445.202500", "195445.662500", "195446.122500", "195446.582500", "195447.042500", "195447.502500", "195447.962500", "195448.422500", "195448.882500", "195449.342500", "195449.802500", "195450.262500", "195450.722500", "195451.182500", "195451.642500", "195452.102500", "195452.562500", "195453.022500", "195453.482500", "195453.942500", "195454.402500", "195454.862500", "195455.322500", "195455.782500", "195456.242500", "195456.702500", "195457.162500", "195457.622500", "195458.082500", "195458.542500", "195459.002500", "195459.462500", "195459.922500", "195500.382500", "195500.842500", "195501.302500", "195501.762500", "195502.222500", "195502.682500", "195503.142500", "195503.602500", "195504.062500", "195504.522500", "195504.982500", "195505.442500", "195505.902500", "195506.362500", "195506.822500", "195507.282500", "195507.742500", "195508.202500", "195508.662500", "195509.122500", "195509.582500", "195510.042500", "195510.502500", "195510.962500", "195511.422500", "195511.882500", "195512.342500", "195512.802500", "195513.262500", "195513.722500", "195514.182500", "195514.642500", "195515.102500", "195515.562500", "195516.022500", "195516.482500", "195516.942500", "195517.402500", "195517.862500", "195518.322500", "195518.782500", "195519.242500", "195519.702500", "195520.162500", "195520.622500", "195521.082500", "195521.542500", "195522.002500", "195522.462500", "195522.922500", "195523.382500", "195523.842500", "195524.302500", "195524.762500", "195525.222500", "195525.682500", "195526.142500", "195526.602500", "195527.062500", "195527.522500", "195527.982500", "195528.442500", "195528.902500", "195529.362500", "195529.822500", "195530.282500", "195530.742500", "195531.202500", "195531.662500", "195532.122500", "195532.582500", "195533.042500", "195533.502500", "195533.962500", "195534.422500", "195534.882500", "195535.342500", "195535.802500", "195536.262500", "195536.722500", "195537.182500", "195537.642500", "195538.102500", "195538.562500", "195539.022500", "195539.482500", "195539.942500", "195540.402500", "195540.862500", "195541.322500", "195541.782500", "195542.242500", "195542.702500", "195543.162500", "195543.622500", "195544.082500", "195544.542500", "195545.002500", "195545.462500", "195545.922500", "195546.382500", "195546.842500", "195547.302500", "195547.762500", "195548.222500", "195548.682500", "195549.142500", "195549.602500", "195550.062500", "195550.522500", "195550.982500", "195551.442500", "195551.902500", "195552.362500", "195552.822500", "195553.282500", "195553.742500", "195554.202500", "195554.662500", "195555.122500", "195555.582500", "195556.042500", "195556.502500", "195556.962500", "195557.422500", "195557.882500", "195558.342500", "195558.802500", "195559.262500", "195559.722500", "195600.182500", "195600.642500", "195601.102500", "195601.562500", "195602.022500", "195602.482500", "195602.942500", "195603.402500", "195603.862500", "195604.322500", "195604.782500", "195605.242500", "195605.702500", "195606.162500", "195606.622500", "195607.082500", "195607.542500", "195608.002500", "195608.462500", "195608.922500", "195609.382500", "195609.842500", "195610.302500", "195610.762500", "195611.222500", "195611.682500", "195612.142500", "195612.602500", "195613.062500", "195613.522500", "195613.982500", "195614.442500", "195614.902500", "195615.362500", "195615.822500", "195616.282500", "195616.742500", "195617.202500", "195617.662500", "195618.122500", "195618.582500", "195619.042500", "195619.502500", "195619.962500", "195620.422500", "195620.882500", "195621.342500", "195621.802500", "195622.262500", "195622.722500", "195623.182500", "195623.642500", "195624.102500", "195624.562500", "195625.022500", "195625.482500", "195625.942500", "195626.402500", "195626.862500", "195627.322500", "195627.782500", "195628.242500", "195628.702500", "195629.162500", "195629.622500", "195630.082500", "195630.542500", "195631.002500", "195631.462500", "195631.922500", "195632.382500", "195632.842500", "195633.302500", "195633.762500", "195634.222500", "195634.682500", "195635.142500", "195635.602500", "195636.062500", "195636.522500", "195636.982500", "195637.442500", "195637.902500", "195638.362500", "195638.822500", "195639.282500", "195639.742500", "195640.202500", "195640.662500", "195641.122500", "195641.582500", "195642.042500", "195642.502500", "195642.962500", "195643.422500", "195643.882500", "195644.342500", "195644.802500", "195645.262500", "195645.722500", "195646.182500", "195646.642500", "195647.102500", "195647.562500", "195648.022500", "195648.482500", "195648.942500", "195649.402500", "195649.862500", "195650.322500", "195650.782500", "195651.242500", "195651.702500", "195652.162500", "195652.622500", "195653.082500", "195653.542500", "195654.002500", "195654.462500", "195654.922500", "195655.382500", "195655.842500", "195656.302500", "195656.762500", "195657.222500", "195657.682500", "195658.142500", "195658.602500", "195659.062500", "195659.522500", "195659.982500", "195700.442500", "195700.902500", "195701.362500", "195701.822500", "195702.282500", "195702.742500", "195703.202500", "195703.662500", "195704.122500", "195704.582500", "195705.042500", "195705.502500", "195705.962500", "195706.422500", "195706.882500", "195707.342500", "195707.802500", "195708.262500", "195708.722500", "195709.182500", "195709.642500", "195710.102500", "195710.562500", "195711.022500", "195711.482500", "195711.942500", "195712.402500", "195712.862500", "195713.322500", "195713.782500", "195714.242500", "195714.702500", "195715.162500", "195715.622500", "195716.082500", "195716.542500", "195717.002500", "195717.462500", "195717.922500", "195718.382500", "195718.842500", "195719.302500", "195719.762500", "195720.222500", "195720.682500", "195721.142500", "195721.602500", "195722.062500", "195722.522500", "195722.982500", "195723.442500", "195723.902500", "195724.362500", "195724.822500", "195725.282500", "195725.742500", "195726.202500", "195726.662500", "195727.122500", "195727.582500", "195728.042500", "195728.502500", "195728.962500", "195729.422500", "195729.882500", "195730.342500", "195730.802500", "195731.262500", "195731.722500", "195732.182500", "195732.642500", "195733.102500", "195733.562500", "195734.022500", "195734.482500", "195734.942500", "195735.402500", "195735.862500", "195736.322500", "195736.782500", "195737.242500", "195737.702500", "195738.162500", "195738.622500", "195739.082500", "195739.542500", "195740.002500", "195740.462500", "195740.922500", "195741.382500", "195741.842500", "195742.302500", "195742.762500", "195743.222500", "195743.682500", "195744.142500", "195744.602500", "195745.062500", "195745.522500", "195745.982500", "195746.442500", "195746.902500", "195747.362500", "195747.822500", "195748.282500", "195748.742500", "195749.202500", "195749.662500", "195750.122500", "195750.582500"],
