{
  "AcquisitionMatrixPE": 82,
  "AcquisitionNumber": 1,
  "AcquisitionTime": "20:22:3.055000",
  "BandwidthPerPixelPhaseEncode": 24.888,
  "BaseResolution": 82,
  "BodyPartExamined": "BRAIN",
  "ConsistencyInfo": "N4_VE11E_LATEST_20181129",
  "ConversionSoftware": "dcm2niix",
  "ConversionSoftwareVersion": "v1.0.20201102",
  "DerivedVendorReportedEchoSpacing": 0.00049,
  "DeviceSerialNumber": "66112",
  "DwellTime": 2e-06,
  "EchoTime": 0.0272,
  "EchoTrainLength": 82,
  "EffectiveEchoSpacing": 0.00049,
  "FlipAngle": 44,
  "ImageComments": "Unaliased MB8/PE3",
  "ImageOrientationPatientDICOM": [0.998972, 0.0310527, 0.0330108, -0.0354086, 0.989402, 0.140819],
  "ImageType": [
    "ORIGINAL",
    "PRIMARY",
    "M",
    "MB",
    "ND",
    "NORM",
    "MOSAIC"
],
  "ImagingFrequency": 123.252,
  "InPlanePhaseEncodingDirectionDICOM": "COL",
  "InstitutionAddress": "Maynard 3,Hanover,NH,US,03755",
  "InstitutionName": "Dartmouth College - PBS",
  "InstitutionalDepartmentName": "Department",
  "MRAcquisitionType": "2D",
  "MagneticFieldStrength": 3,
  "Manufacturer": "Siemens",
  "ManufacturersModelName": "Prisma",
  "Modality": "MR",
  "MultibandAccelerationFactor": 8,
  "PartialFourier": 1,
  "PatientPosition": "HFS",
  "PercentPhaseFOV": 100,
  "PercentSampling": 100,
  "PhaseEncodingDirection": "j-",
  "PhaseEncodingSteps": 82,
  "PhaseResolution": 1,
  "PixelBandwidth": 3050,
  "ProcedureStepDescription": "Wager_Wager^1076_spacetop",
  "ProtocolName": "func_run-06_task-social_acq-ap-mb8",
  "PulseSequenceDetails": "%CustomerSeq%\\cmrr_mbep2d_bold",
  "ReceiveCoilActiveElements": "HEA;HEP",
  "ReceiveCoilName": "Head_32",
  "ReconMatrixPE": 82,
  "RepetitionTime": 0.46,
  "SAR": 0.0878664,
  "ScanOptions": "FS",
  "ScanningSequence": "EP",
  "SequenceName": "epfid2d1_82",
  "SequenceVariant": "SK\\SS",
  "SeriesDescription": "func_run-06_task-social_acq-ap-mb8",
  "SeriesNumber": 22,
  "ShimSetting": [4136, -7866, -7309, 806, -91, -676, 198, 4],
  "SliceThickness": 2.7,
  "SliceTiming": [0, 0.25, 0.0625, 0.3125, 0.125, 0.3775, 0.1875, 0, 0.25, 0.0625, 0.3125, 0.125, 0.3775, 0.1875, 0, 0.25, 0.0625, 0.3125, 0.125, 0.3775, 0.1875, 0, 0.25, 0.0625, 0.3125, 0.125, 0.3775, 0.1875, 0, 0.25, 0.0625, 0.3125, 0.125, 0.3775, 0.1875, 0, 0.25, 0.0625, 0.3125, 0.125, 0.3775, 0.1875, 0, 0.25, 0.0625, 0.3125, 0.125, 0.3775, 0.1875, 0, 0.25, 0.0625, 0.3125, 0.125, 0.3775, 0.1875],
  "SoftwareVersions": "syngo MR E11",
  "SpacingBetweenSlices": 2.7,
  "StationName": "AWP66112",
  "TaskName": "social",
  "TotalReadoutTime": 0.03969,
  "TxRefAmp": 229.066,
  "WipMemBlock": "6b1455ee-3ca9-435b-a2e4-a287e6549a9b||Sequence: R016 ve11e/master r/434b28f1; Aug  7 2019 18:53:46 by eja",
  "dcmmeta_affine": [
    [-2.6801700592041016, -0.0949985608458519, 0.07637805491685867, 117.42262268066406],
    [-0.08331214636564255, 2.6544930934906006, 0.38297709822654724, -105.67506408691406],
    [0.08856566250324249, -0.3778076171875, 2.6716089248657227, -67.68357849121094],
    [0.0, 0.0, 0.0, 1.0]
],
  "dcmmeta_reorient_transform": [
    [0.0, -1.0, 0.0, 81.0],
    [1.0, 0.0, 0.0, 0.0],
    [0.0, 0.0, 1.0, 0.0],
    [0.0, 0.0, 0.0, 1.0]
],
  "dcmmeta_shape": [82, 82, 56, 872],
  "dcmmeta_slice_dim": 2,
  "dcmmeta_version": 0.6,
  "global": {
    "const": {
      "AccessionNumber": "A004150",
      "AcquisitionMatrix": [82, 0, 0, 82],
      "AngioFlag": "N",
      "BitsAllocated": 16,
      "BitsStored": 16,
      "BodyPartExamined": "BRAIN",
      "Columns": 656,
      "EchoNumbers": 1,
      "EchoTime": 27.2,
      "EchoTrainLength": 82,
      "FlipAngle": 44.0,
      "HighBit": 15,
      "ImageOrientationPatient": [0.9989724790043, 0.03105270941562, 0.0330108380679, -0.0354085536412, 0.98940193389413, 0.14081920158699],
      "ImagePositionPatient": [-851.67197728897, -895.08897018012, -232.13512665375],
      "ImageType": [
        "ORIGINAL",
        "PRIMARY",
        "M",
        "MB",
        "ND",
        "NORM",
        "MOSAIC"
],
      "ImagedNucleus": "1H",
      "ImagingFrequency": 123.252243,
      "InPlanePhaseEncodingDirection": "COL",
      "MRAcquisitionType": "2D",
      "MagneticFieldStrength": 3.0,
      "Manufacturer": "SIEMENS",
      "ManufacturerModelName": "Prisma",
      "Modality": "MR",
      "NumberOfAverages": 1.0,
      "NumberOfPhaseEncodingSteps": 82,
      "PercentPhaseFieldOfView": 100.0,
      "PercentSampling": 100.0,
      "PerformedProcedureStepStartTime": "185944.830000",
      "PhotometricInterpretation": "MONOCHROME2",
      "PixelBandwidth": 3050.0,
      "PixelRepresentation": 0,
      "PixelSpacing": [2.6829268932343, 2.6829268932343],
      "ProtocolName": "func_run-06_task-social_acq-ap-mb8",
      "RepetitionTime": 460.0,
      "Rows": 656,
      "SAR": 0.08786637369295,
      "SamplesPerPixel": 1,
      "ScanOptions": "FS",
      "ScanningSequence": "EP",
      "SequenceName": "epfid2d1_82",
      "SequenceVariant": [
        "SK",
        "SS"
],
      "SeriesDescription": "func_run-06_task-social_acq-ap-mb8",
      "SeriesNumber": 22,
      "SeriesTime": "202218.972000",
      "SliceLocation": -78.639507634145,
      "SliceThickness": 2.7000000476837,
      "SmallestImagePixelValue": 0,
      "SoftwareVersions": "syngo MR E11",
      "SpacingBetweenSlices": 2.6999998900696,
      "SpecificCharacterSet": "ISO_IR 100",
      "StudyID": "2",
      "StudyTime": "185944.783000",
      "TransmitCoilName": "Body",
      "VariableFlipAngleFlag": "N",
      "WindowCenterWidthExplanation": "Algo1"
    },
    "slices": {}
  },
  "time": {
    "samples": {
      "AcquisitionNumber": [1, 2, 3, 4, 5, 6, 7, 8, 9, 10, 11, 12, 13, 14, 15, 16, 17, 18, 19, 20, 21, 22, 23, 24, 25, 26, 27, 28, 29, 30, 31, 32, 33, 34, 35, 36, 37, 38, 39, 40, 41, 42, 43, 44, 45, 46, 47, 48, 49, 50, 51, 52, 53, 54, 55, 56, 57, 58, 59, 60, 61, 62, 63, 64, 65, 66, 67, 68, 69, 70, 71, 72, 73, 74, 75, 76, 77, 78, 79, 80, 81, 82, 83, 84, 85, 86, 87, 88, 89, 90, 91, 92, 93, 94, 95, 96, 97, 98, 99, 100, 101, 102, 103, 104, 105, 106, 107, 108, 109, 110, 111, 112, 113, 114, 115, 116, 117, 118, 119, 120, 121, 122, 123, 124, 125, 126, 127, 128, 129, 130, 131, 132, 133, 134, 135, 136, 137, 138, 139, 140, 141, 142, 143, 144, 145, 146, 147, 148, 149, 150, 151, 152, 153, 154, 155, 156, 157, 158, 159, 160, 161, 162, 163, 164, 165, 166, 167, 168, 169, 170, 171, 172, 173, 174, 175, 176, 177, 178, 179, 180, 181, 182, 183, 184, 185, 186, 187, 188, 189, 190, 191, 192, 193, 194, 195, 196, 197, 198, 199, 200, 201, 202, 203, 204, 205, 206, 207, 208, 209, 210, 211, 212, 213, 214, 215, 216, 217, 218, 219, 220, 221, 222, 223, 224, 225, 226, 227, 228, 229, 230, 231, 232, 233, 234, 235, 236, 237, 238, 239, 240, 241, 242, 243, 244, 245, 246, 247, 248, 249, 250, 251, 252, 253, 254, 255, 256, 257, 258, 259, 260, 261, 262, 263, 264, 265, 266, 267, 268, 269, 270, 271, 272, 273, 274, 275, 276, 277, 278, 279, 280, 281, 282, 283, 284, 285, 286, 287, 288, 289, 290, 291, 292, 293, 294, 295, 296, 297, 298, 299, 300, 301, 302, 303, 304, 305, 306, 307, 308, 309, 310, 311, 312, 313, 314, 315, 316, 317, 318, 319, 320, 321, 322, 323, 324, 325, 326, 327, 328, 329, 330, 331, 332, 333, 334, 335, 336, 337, 338, 339, 340, 341, 342, 343, 344, 345, 346, 347, 348, 349, 350, 351, 352, 353, 354, 355, 356, 357, 358, 359, 360, 361, 362, 363, 364, 365, 366, 367, 368, 369, 370, 371, 372, 373, 374, 375, 376, 377, 378, 379, 380, 381, 382, 383, 384, 385, 386, 387, 388, 389, 390, 391, 392, 393, 394, 395, 396, 397, 398, 399, 400, 401, 402, 403, 404, 405, 406, 407, 408, 409, 410, 411, 412, 413, 414, 415, 416, 417, 418, 419, 420, 421, 422, 423, 424, 425, 426, 427, 428, 429, 430, 431, 432, 433, 434, 435, 436, 437, 438, 439, 440, 441, 442, 443, 444, 445, 446, 447, 448, 449, 450, 451, 452, 453, 454, 455, 456, 457, 458, 459, 460, 461, 462, 463, 464, 465, 466, 467, 468, 469, 470, 471, 472, 473, 474, 475, 476, 477, 478, 479, 480, 481, 482, 483, 484, 485, 486, 487, 488, 489, 490, 491, 492, 493, 494, 495, 496, 497, 498, 499, 500, 501, 502, 503, 504, 505, 506, 507, 508, 509, 510, 511, 512, 513, 514, 515, 516, 517, 518, 519, 520, 521, 522, 523, 524, 525, 526, 527, 528, 529, 530, 531, 532, 533, 534, 535, 536, 537, 538, 539, 540, 541, 542, 543, 544, 545, 546, 547, 548, 549, 550, 551, 552, 553, 554, 555, 556, 557, 558, 559, 560, 561, 562, 563, 564, 565, 566, 567, 568, 569, 570, 571, 572, 573, 574, 575, 576, 577, 578, 579, 580, 581, 582, 583, 584, 585, 586, 587, 588, 589, 590, 591, 592, 593, 594, 595, 596, 597, 598, 599, 600, 601, 602, 603, 604, 605, 606, 607, 608, 609, 610, 611, 612, 613, 614, 615, 616, 617, 618, 619, 620, 621, 622, 623, 624, 625, 626, 627, 628, 629, 630, 631, 632, 633, 634, 635, 636, 637, 638, 639, 640, 641, 642, 643, 644, 645, 646, 647, 648, 649, 650, 651, 652, 653, 654, 655, 656, 657, 658, 659, 660, 661, 662, 663, 664, 665, 666, 667, 668, 669, 670, 671, 672, 673, 674, 675, 676, 677, 678, 679, 680, 681, 682, 683, 684, 685, 686, 687, 688, 689, 690, 691, 692, 693, 694, 695, 696, 697, 698, 699, 700, 701, 702, 703, 704, 705, 706, 707, 708, 709, 710, 711, 712, 713, 714, 715, 716, 717, 718, 719, 720, 721, 722, 723, 724, 725, 726, 727, 728, 729, 730, 731, 732, 733, 734, 735, 736, 737, 738, 739, 740, 741, 742, 743, 744, 745, 746, 747, 748, 749, 750, 751, 752, 753, 754, 755, 756, 757, 758, 759, 760, 761, 762, 763, 764, 765, 766, 767, 768, 769, 770, 771, 772, 773, 774, 775, 776, 777, 778, 779, 780, 781, 782, 783, 784, 785, 786, 787, 788, 789, 790, 791, 792, 793, 794, 795, 796, 797, 798, 799, 800, 801, 802, 803, 804, 805, 806, 807, 808, 809, 810, 811, 812, 813, 814, 815, 816, 817, 818, 819, 820, 821, 822, 823, 824, 825, 826, 827, 828, 829, 830, 831, 832, 833, 834, 835, 836, 837, 838, 839, 840, 841, 842, 843, 844, 845, 846, 847, 848, 849, 850, 851, 852, 853, 854, 855, 856, 857, 858, 859, 860, 861, 862, 863, 864, 865, 866, 867, 868, 869, 870, 871, 872],
      "AcquisitionTime": ["202203.055000", "202203.515000", "202203.975000", "202204.435000", "202204.895000", "202205.355000", "202205.815000", "202206.275000", "202206.735000", "202207.195000", "202207.655000", "202208.115000", "202208.575000", "202209.035000", "202209.495000", "202209.955000", "202210.415000", "202210.875000", "202211.335000", "202211.795000", "202212.255000", "202212.715000", "202213.175000", "202213.635000", "202214.095000", "202214.555000", "202215.015000", "202215.475000", "202215.935000", "202216.395000", "202216.855000", "202217.315000", "202217.775000", "202218.235000", "202218.695000", "202219.155000", "202219.615000", "202220.075000", "202220.535000", "202220.995000", "202221.455000", "202221.915000", "202222.375000", "202222.835000", "202223.295000", "202223.755000", "202224.215000", "202224.675000", "202225.135000", "202225.595000", "202226.055000", "202226.515000", "202226.975000", "202227.435000", "202227.895000", "202228.355000", "202228.815000", "202229.275000", "202229.735000", "202230.195000", "202230.655000", "202231.115000", "202231.575000", "202232.035000", "202232.495000", "202232.955000", "202233.415000", "202233.875000", "202234.335000", "202234.795000", "202235.255000", "202235.715000", "202236.175000", "202236.635000", "202237.095000", "202237.555000", "202238.015000", "202238.475000", "202238.935000", "202239.395000", "202239.855000", "202240.315000", "202240.775000", "202241.235000", "202241.695000", "202242.155000", "202242.615000", "202243.075000", "202243.535000", "202243.995000", "202244.455000", "202244.915000", "202245.375000", "202245.835000", "202246.295000", "202246.755000", "202247.215000", "202247.675000", "202248.135000", "202248.595000", "202249.055000", "202249.515000", "202249.975000", "202250.435000", "202250.895000", "202251.355000", "202251.815000", "202252.275000", "202252.735000", "202253.195000", "202253.655000", "202254.115000", "202254.575000", "202255.035000", "202255.495000", "202255.955000", "202256.415000", "202256.875000", "202257.335000", "202257.795000", "202258.255000", "202258.715000", "202259.175000", "202259.635000", "202300.095000", "202300.555000", "202301.015000", "202301.475000", "202301.935000", "202302.395000", "202302.855000", "202303.315000", "202303.775000", "202304.235000", "202304.695000", "202305.155000", "202305.615000", "202306.075000", "202306.535000", "202306.995000", "202307.455000", "202307.915000", "202308.375000", "202308.835000", "202309.295000", "202309.755000", "202310.215000", "202310.675000", "202311.135000", "202311.595000", "202312.055000", "202312.515000", "202312.975000", "202313.435000", "202313.895000", "202314.355000", "202314.815000", "202315.275000", "202315.735000", "202316.195000", "202316.655000", "202317.115000", "202317.575000", "202318.035000", "202318.495000", "202318.955000", "202319.415000", "202319.875000", "202320.335000", "202320.795000", "202321.255000", "202321.715000", "202322.175000", "202322.635000", "202323.095000", "202323.555000", "202324.015000", "202324.475000", "202324.935000", "202325.395000", "202325.855000", "202326.315000", "202326.775000", "202327.235000", "202327.695000", "202328.155000", "202328.615000", "202329.075000", "202329.535000", "202329.995000", "202330.455000", "202330.915000", "202331.375000", "202331.835000", "202332.295000", "202332.755000", "202333.215000", "202333.675000", "202334.135000", "202334.595000", "202335.055000", "202335.515000", "202335.975000", "202336.435000", "202336.895000", "202337.355000", "202337.815000", "202338.275000", "202338.735000", "202339.195000", "202339.655000", "202340.115000", "202340.575000", "202341.035000", "202341.495000", "202341.955000", "202342.415000", "202342.875000", "202343.335000", "202343.795000", "202344.255000", "202344.715000", "202345.175000", "202345.635000", "202346.095000", "202346.555000", "202347.015000", "202347.475000", "202347.935000", "202348.395000", "202348.855000", "202349.315000", "202349.775000", "202350.235000", "202350.695000", "202351.155000", "202351.615000", "202352.075000", "202352.535000", "202352.995000", "202353.455000", "202353.915000", "202354.375000", "202354.835000", "202355.295000", "202355.755000", "202356.215000", "202356.675000", "202357.135000", "202357.595000", "202358.055000", "202358.515000", "202358.975000", "202359.435000", "202359.895000", "202400.355000", "202400.815000", "202401.275000", "202401.735000", "202402.195000", "202402.655000", "202403.115000", "202403.575000", "202404.035000", "202404.495000", "202404.955000", "202405.415000", "202405.875000", "202406.335000", "202406.795000", "202407.255000", "202407.715000", "202408.175000", "202408.635000", "202409.095000", "202409.555000", "202410.015000", "202410.475000", "202410.935000", "202411.395000", "202411.855000", "202412.315000", "202412.775000", "202413.235000", "202413.695000", "202414.155000", "202414.615000", "202415.075000", "202415.535000", "202415.995000", "202416.455000", "202416.915000", "202417.375000", "202417.835000", "202418.295000", "202418.755000", "202419.215000", "202419.675000", "202420.135000", "202420.595000", "202421.055000", "202421.515000", "202421.975000", "202422.435000", "202422.895000", "202423.355000", "202423.815000", "202424.275000", "202424.735000", "202425.195000", "202425.655000", "202426.115000", "202426.575000", "202427.035000", "202427.495000", "202427.955000", "202428.415000", "202428.875000", "202429.335000", "202429.795000", "202430.255000", "202430.715000", "202431.175000", "202431.635000", "202432.095000", "202432.555000", "202433.015000", "202433.475000", "202433.935000", "202434.395000", "202434.855000", "202435.315000", "202435.775000", "202436.235000", "202436.695000", "202437.155000", "202437.615000", "202438.075000", "202438.535000", "202438.995000", "202439.455000", "202439.915000", "202440.375000", "202440.835000", "202441.295000", "202441.755000", "202442.215000", "202442.675000", "202443.135000", "202443.595000", "202444.055000", "202444.515000", "202444.975000", "202445.435000", "202445.895000", "202446.355000", "202446.815000", "202447.275000", "202447.735000", "202448.195000", "202448.655000", "202449.115000", "202449.575000", "202450.035000", "202450.495000", "202450.955000", "202451.415000", "202451.875000", "202452.335000", "202452.795000", "202453.255000", "202453.715000", "202454.175000", "202454.635000", "202455.095000", "202455.555000", "202456.015000", "202456.475000", "202456.935000", "202457.395000", "202457.855000", "202458.315000", "202458.775000", "202459.235000", "202459.695000", "202500.155000", "202500.615000", "202501.075000", "202501.535000", "202501.995000", "202502.455000", "202502.915000", "202503.375000", "202503.835000", "202504.295000", "202504.755000", "202505.215000", "202505.675000", "202506.135000", "202506.595000", "202507.055000", "202507.515000", "202507.975000", "202508.435000", "202508.895000", "202509.355000", "202509.815000", "202510.275000", "202510.735000", "202511.195000", "202511.655000", "202512.115000", "202512.575000", "202513.035000", "202513.495000", "202513.955000", "202514.415000", "202514.875000", "202515.335000", "202515.795000", "202516.255000", "202516.715000", "202517.175000", "202517.635000", "202518.095000", "202518.555000", "202519.015000", "202519.475000", "202519.935000", "202520.395000", "202520.855000", "202521.315000", "202521.775000", "202522.235000", "202522.695000", "202523.155000", "202523.615000", "202524.075000", "202524.535000", "202524.995000", "202525.455000", "202525.915000", "202526.375000", "202526.835000", "202527.295000", "202527.755000", "202528.215000", "202528.675000", "202529.135000", "202529.595000", "202530.055000", "202530.515000", "202530.975000", "202531.435000", "202531.895000", "202532.355000", "202532.815000", "202533.275000", "202533.735000", "202534.195000", "202534.655000", "202535.115000", "202535.575000", "202536.035000", "202536.495000", "202536.955000", "202537.415000", "202537.875000", "202538.335000", "202538.795000", "202539.255000", "202539.715000", "202540.175000", "202540.635000", "202541.095000", "202541.555000", "202542.015000", "202542.475000", "202542.935000", "202543.395000", "202543.855000", "202544.315000", "202544.775000", "202545.235000", "202545.695000", "202546.155000", "202546.615000", "202547.075000", "202547.535000", "202547.995000", "202548.455000", "202548.915000", "202549.375000", "202549.835000", "202550.295000", "202550.755000", "202551.215000", "202551.675000", "202552.135000", "202552.595000", "202553.055000", "202553.515000", "202553.975000", "202554.435000", "202554.895000", "202555.355000", "202555.815000", "202556.275000", "202556.735000", "202557.195000", "202557.655000", "202558.115000", "202558.575000", "202559.035000", "202559.495000", "202559.955000", "202600.415000", "202600.875000", "202601.335000", "202601.795000", "202602.255000", "202602.715000", "202603.175000", "202603.635000", "202604.095000", "202604.555000", "202605.015000", "202605.475000", "202605.935000", "202606.395000", "202606.855000", "202607.315000", "202607.775000", "202608.235000", "202608.695000", "202609.155000", "202609.615000", "202610.075000", "202610.535000", "202610.995000", "202611.455000", "202611.915000", "202612.375000", "202612.835000", "202613.295000", "202613.755000", "202614.215000", "202614.675000", "202615.135000", "202615.595000", "202616.055000", "202616.515000", "202616.975000", "202617.435000", "202617.895000", "202618.355000", "202618.815000", "202619.275000", "202619.735000", "202620.195000", "202620.655000", "202621.115000", "202621.575000", "202622.035000", "202622.495000", "202622.955000", "202623.415000", "202623.875000", "202624.335000", "202624.795000", "202625.255000", "202625.715000", "202626.175000", "202626.635000", "202627.095000", "202627.555000", "202628.015000", "202628.475000", "202628.935000", "202629.395000", "202629.855000", "202630.315000", "202630.775000", "202631.235000", "202631.695000", "202632.155000", "202632.615000", "202633.075000", "202633.535000", "202633.995000", "202634.455000", "202634.915000", "202635.375000", "202635.835000", "202636.295000", "202636.755000", "202637.215000", "202637.675000", "202638.135000", "202638.595000", "202639.055000", "202639.515000", "202639.975000", "202640.435000", "202640.895000", "202641.355000", "202641.815000", "202642.275000", "202642.735000", "202643.195000", "202643.655000", "202644.115000", "202644.575000", "202645.035000", "202645.495000", "202645.955000", "202646.415000", "202646.875000", "202647.335000", "202647.795000", "202648.255000", "202648.715000", "202649.175000", "202649.635000", "202650.095000", "202650.555000", "202651.015000", "202651.475000", "202651.935000", "202652.395000", "202652.855000", "202653.315000", "202653.775000", "202654.235000", "202654.695000", "202655.155000", "202655.615000", "202656.075000", "202656.535000", "202656.995000", "202657.455000", "202657.915000", "202658.375000", "202658.835000", "202659.295000", "202659.755000", "202700.215000", "202700.675000", "202701.135000", "202701.595000", "202702.055000", "202702.515000", "202702.975000", "202703.435000", "202703.895000", "202704.355000", "202704.815000", "202705.275000", "202705.735000", "202706.195000", "202706.655000", "202707.115000", "202707.575000", "202708.035000", "202708.495000", "202708.955000", "202709.415000", "202709.875000", "202710.335000", "202710.795000", "202711.255000", "202711.715000", "202712.175000", "202712.635000", "202713.095000", "202713.555000", "202714.015000", "202714.475000", "202714.935000", "202715.395000", "202715.855000", "202716.315000", "202716.775000", "202717.235000", "202717.695000", "202718.155000", "202718.615000", "202719.075000", "202719.535000", "202719.995000", "202720.455000", "202720.915000", "202721.375000", "202721.835000", "202722.295000", "202722.755000", "202723.215000", "202723.675000", "202724.135000", "202724.595000", "202725.055000", "202725.515000", "202725.975000", "202726.435000", "202726.895000", "202727.355000", "202727.815000", "202728.275000", "202728.735000", "202729.195000", "202729.655000", "202730.115000", "202730.575000", "202731.035000", "202731.495000", "202731.955000", "202732.415000", "202732.875000", "202733.335000", "202733.795000", "202734.255000", "202734.715000", "202735.175000", "202735.635000", "202736.095000", "202736.555000", "202737.015000", "202737.475000", "202737.935000", "202738.395000", "202738.855000", "202739.315000", "202739.775000", "202740.235000", "202740.695000", "202741.155000", "202741.615000", "202742.075000", "202742.535000", "202742.995000", "202743.455000", "202743.915000", "202744.375000", "202744.835000", "202745.295000", "202745.755000", "202746.215000", "202746.675000", "202747.135000", "202747.595000", "202748.055000", "202748.515000", "202748.975000", "202749.435000", "202749.895000", "202750.355000", "202750.815000", "202751.275000", "202751.735000", "202752.195000", "202752.655000", "202753.115000", "202753.575000", "202754.035000", "202754.495000", "202754.955000", "202755.415000", "202755.875000", "202756.335000", "202756.795000", "202757.255000", "202757.715000", "202758.175000", "202758.635000", "202759.095000", "202759.555000", "202800.015000", "202800.475000", "202800.935000", "202801.395000", "202801.855000", "202802.315000", "202802.775000", "202803.235000", "202803.695000", "202804.155000", "202804.615000", "202805.075000", "202805.535000", "202805.995000", "202806.455000", "202806.915000", "202807.375000", "202807.835000", "202808.295000", "202808.755000", "202809.215000", "202809.675000", "202810.135000", "202810.595000", "202811.055000", "202811.515000", "202811.975000", "202812.435000", "202812.895000", "202813.355000", "202813.815000", "202814.275000", "202814.735000", "202815.195000", "202815.655000", "202816.115000", "202816.575000", "202817.035000", "202817.495000", "202817.955000", "202818.415000", "202818.875000", "202819.335000", "202819.795000", "202820.255000", "202820.715000", "202821.175000", "202821.635000", "202822.095000", "202822.555000", "202823.015000", "202823.475000", "202823.935000", "202824.395000", "202824.855000", "202825.315000", "202825.775000", "202826.235000", "202826.695000", "202827.155000", "202827.615000", "202828.075000", "202828.535000", "202828.995000", "202829.455000", "202829.915000", "202830.375000", "202830.835000", "202831.295000", "202831.755000", "202832.215000", "202832.675000", "202833.135000", "202833.595000", "202834.055000", "202834.515000", "202834.975000", "202835.435000", "202835.895000", "202836.355000", "202836.815000", "202837.275000", "202837.735000", "202838.195000", "202838.655000", "202839.115000", "202839.575000", "202840.035000", "202840.495000", "202840.955000", "202841.415000", "202841.875000", "202842.335000", "202842.795000", "202843.255000", "202843.715000"],
