{
  "AcquisitionMatrixPE": 82,
  "AcquisitionNumber": 1,
  "AcquisitionTime": "19:44:7.485000",
  "BandwidthPerPixelPhaseEncode": 24.888,
  "BaseResolution": 82,
  "BodyPartExamined": "BRAIN",
  "ConsistencyInfo": "N4_VE11E_LATEST_20181129",
  "ConversionSoftware": "dcm2niix",
  "ConversionSoftwareVersion": "v1.0.20201102",
  "DerivedVendorReportedEchoSpacing": 0.00049,
  "DeviceSerialNumber": "66112",
  "DwellTime": 2e-06,
  "EchoTime": 0.0272,
  "EchoTrainLength": 82,
  "EffectiveEchoSpacing": 0.00049,
  "FlipAngle": 44,
  "ImageComments": "Unaliased MB8/PE3",
  "ImageOrientationPatientDICOM": [0.998972, 0.0310527, 0.0330108, -0.0354086, 0.989402, 0.140819],
  "ImageType": [
    "ORIGINAL",
    "PRIMARY",
    "M",
    "MB",
    "ND",
    "NORM",
    "MOSAIC"
],
  "ImagingFrequency": 123.252,
  "InPlanePhaseEncodingDirectionDICOM": "COL",
  "InstitutionAddress": "Maynard 3,Hanover,NH,US,03755",
  "InstitutionName": "Dartmouth College - PBS",
  "InstitutionalDepartmentName": "Department",
  "MRAcquisitionType": "2D",
  "MagneticFieldStrength": 3,
  "Manufacturer": "Siemens",
  "ManufacturersModelName": "Prisma",
  "Modality": "MR",
  "MultibandAccelerationFactor": 8,
  "PartialFourier": 1,
  "PatientPosition": "HFS",
  "PercentPhaseFOV": 100,
  "PercentSampling": 100,
  "PhaseEncodingDirection": "j-",
  "PhaseEncodingSteps": 82,
  "PhaseResolution": 1,
  "PixelBandwidth": 3050,
  "ProcedureStepDescription": "Wager_Wager^1076_spacetop",
  "ProtocolName": "func_run-01_task-social_acq-ap-mb8",
  "PulseSequenceDetails": "%CustomerSeq%\\cmrr_mbep2d_bold",
  "ReceiveCoilActiveElements": "HEA;HEP",
  "ReceiveCoilName": "Head_32",
  "ReconMatrixPE": 82,
  "RepetitionTime": 0.46,
  "SAR": 0.0878664,
  "ScanOptions": "FS",
  "ScanningSequence": "EP",
  "SequenceName": "epfid2d1_82",
  "SequenceVariant": "SK\\SS",
  "SeriesDescription": "func_run-01_task-social_acq-ap-mb8",
  "SeriesNumber": 12,
  "ShimSetting": [4136, -7866, -7309, 806, -91, -676, 198, 4],
  "SliceThickness": 2.7,
  "SliceTiming": [0, 0.25, 0.0625, 0.3125, 0.125, 0.3775, 0.1875, 0, 0.25, 0.0625, 0.3125, 0.125, 0.3775, 0.1875, 0, 0.25, 0.0625, 0.3125, 0.125, 0.3775, 0.1875, 0, 0.25, 0.0625, 0.3125, 0.125, 0.3775, 0.1875, 0, 0.25, 0.0625, 0.3125, 0.125, 0.3775, 0.1875, 0, 0.25, 0.0625, 0.3125, 0.125, 0.3775, 0.1875, 0, 0.25, 0.0625, 0.3125, 0.125, 0.3775, 0.1875, 0, 0.25, 0.0625, 0.3125, 0.125, 0.3775, 0.1875],
  "SoftwareVersions": "syngo MR E11",
  "SpacingBetweenSlices": 2.7,
  "StationName": "AWP66112",
  "TaskName": "social",
  "TotalReadoutTime": 0.03969,
  "TxRefAmp": 229.066,
  "WipMemBlock": "46270c23-4d27-4902-a2c1-103a37b97f96||Sequence: R016 ve11e/master r/434b28f1; Aug  7 2019 18:53:46 by eja",
  "dcmmeta_affine": [
    [-2.6801700592041016, -0.0949985608458519, 0.07637805491685867, 117.42262268066406],
    [-0.08331214636564255, 2.6544930934906006, 0.38297709822654724, -105.67506408691406],
    [0.08856566250324249, -0.3778076171875, 2.6716089248657227, -67.68357849121094],
    [0.0, 0.0, 0.0, 1.0]
],
  "dcmmeta_reorient_transform": [
    [0.0, -1.0, 0.0, 81.0],
    [1.0, 0.0, 0.0, 0.0],
    [0.0, 0.0, 1.0, 0.0],
    [0.0, 0.0, 0.0, 1.0]
],
  "dcmmeta_shape": [82, 82, 56, 872],
  "dcmmeta_slice_dim": 2,
  "dcmmeta_version": 0.6,
  "global": {
    "const": {
      "AccessionNumber": "A004150",
      "AcquisitionMatrix": [82, 0, 0, 82],
      "AngioFlag": "N",
      "BitsAllocated": 16,
      "BitsStored": 16,
      "BodyPartExamined": "BRAIN",
      "Columns": 656,
      "EchoNumbers": 1,
      "EchoTime": 27.2,
      "EchoTrainLength": 82,
      "FlipAngle": 44.0,
      "HighBit": 15,
      "ImageOrientationPatient": [0.9989724790043, 0.03105270941562, 0.0330108380679, -0.0354085536412, 0.98940193389413, 0.14081920158699],
      "ImagePositionPatient": [-851.67197728897, -895.08897018012, -232.13512665375],
      "ImageType": [
        "ORIGINAL",
        "PRIMARY",
        "M",
        "MB",
        "ND",
        "NORM",
        "MOSAIC"
],
      "ImagedNucleus": "1H",
      "ImagingFrequency": 123.252233,
      "InPlanePhaseEncodingDirection": "COL",
      "MRAcquisitionType": "2D",
      "MagneticFieldStrength": 3.0,
      "Manufacturer": "SIEMENS",
      "ManufacturerModelName": "Prisma",
      "Modality": "MR",
      "NumberOfAverages": 1.0,
      "NumberOfPhaseEncodingSteps": 82,
      "PercentPhaseFieldOfView": 100.0,
      "PercentSampling": 100.0,
      "PerformedProcedureStepStartTime": "185944.830000",
      "PhotometricInterpretation": "MONOCHROME2",
      "PixelBandwidth": 3050.0,
      "PixelRepresentation": 0,
      "PixelSpacing": [2.6829268932343, 2.6829268932343],
      "ProtocolName": "func_run-01_task-social_acq-ap-mb8",
      "RepetitionTime": 460.0,
      "Rows": 656,
      "SAR": 0.08786637369295,
      "SamplesPerPixel": 1,
      "ScanOptions": "FS",
      "ScanningSequence": "EP",
      "SequenceName": "epfid2d1_82",
      "SequenceVariant": [
        "SK",
        "SS"
],
      "SeriesDescription": "func_run-01_task-social_acq-ap-mb8",
      "SeriesNumber": 12,
      "SeriesTime": "194419.045000",
      "SliceLocation": -78.639507634145,
      "SliceThickness": 2.7000000476837,
      "SmallestImagePixelValue": 0,
      "SoftwareVersions": "syngo MR E11",
      "SpacingBetweenSlices": 2.6999998900696,
      "SpecificCharacterSet": "ISO_IR 100",
      "StudyID": "2",
      "StudyTime": "185944.783000",
      "TransmitCoilName": "Body",
      "VariableFlipAngleFlag": "N",
      "WindowCenterWidthExplanation": "Algo1"
    },
    "slices": {}
  },
  "time": {
    "samples": {
      "AcquisitionNumber": [1, 2, 3, 4, 5, 6, 7, 8, 9, 10, 11, 12, 13, 14, 15, 16, 17, 18, 19, 20, 21, 22, 23, 24, 25, 26, 27, 28, 29, 30, 31, 32, 33, 34, 35, 36, 37, 38, 39, 40, 41, 42, 43, 44, 45, 46, 47, 48, 49, 50, 51, 52, 53, 54, 55, 56, 57, 58, 59, 60, 61, 62, 63, 64, 65, 66, 67, 68, 69, 70, 71, 72, 73, 74, 75, 76, 77, 78, 79, 80, 81, 82, 83, 84, 85, 86, 87, 88, 89, 90, 91, 92, 93, 94, 95, 96, 97, 98, 99, 100, 101, 102, 103, 104, 105, 106, 107, 108, 109, 110, 111, 112, 113, 114, 115, 116, 117, 118, 119, 120, 121, 122, 123, 124, 125, 126, 127, 128, 129, 130, 131, 132, 133, 134, 135, 136, 137, 138, 139, 140, 141, 142, 143, 144, 145, 146, 147, 148, 149, 150, 151, 152, 153, 154, 155, 156, 157, 158, 159, 160, 161, 162, 163, 164, 165, 166, 167, 168, 169, 170, 171, 172, 173, 174, 175, 176, 177, 178, 179, 180, 181, 182, 183, 184, 185, 186, 187, 188, 189, 190, 191, 192, 193, 194, 195, 196, 197, 198, 199, 200, 201, 202, 203, 204, 205, 206, 207, 208, 209, 210, 211, 212, 213, 214, 215, 216, 217, 218, 219, 220, 221, 222, 223, 224, 225, 226, 227, 228, 229, 230, 231, 232, 233, 234, 235, 236, 237, 238, 239, 240, 241, 242, 243, 244, 245, 246, 247, 248, 249, 250, 251, 252, 253, 254, 255, 256, 257, 258, 259, 260, 261, 262, 263, 264, 265, 266, 267, 268, 269, 270, 271, 272, 273, 274, 275, 276, 277, 278, 279, 280, 281, 282, 283, 284, 285, 286, 287, 288, 289, 290, 291, 292, 293, 294, 295, 296, 297, 298, 299, 300, 301, 302, 303, 304, 305, 306, 307, 308, 309, 310, 311, 312, 313, 314, 315, 316, 317, 318, 319, 320, 321, 322, 323, 324, 325, 326, 327, 328, 329, 330, 331, 332, 333, 334, 335, 336, 337, 338, 339, 340, 341, 342, 343, 344, 345, 346, 347, 348, 349, 350, 351, 352, 353, 354, 355, 356, 357, 358, 359, 360, 361, 362, 363, 364, 365, 366, 367, 368, 369, 370, 371, 372, 373, 374, 375, 376, 377, 378, 379, 380, 381, 382, 383, 384, 385, 386, 387, 388, 389, 390, 391, 392, 393, 394, 395, 396, 397, 398, 399, 400, 401, 402, 403, 404, 405, 406, 407, 408, 409, 410, 411, 412, 413, 414, 415, 416, 417, 418, 419, 420, 421, 422, 423, 424, 425, 426, 427, 428, 429, 430, 431, 432, 433, 434, 435, 436, 437, 438, 439, 440, 441, 442, 443, 444, 445, 446, 447, 448, 449, 450, 451, 452, 453, 454, 455, 456, 457, 458, 459, 460, 461, 462, 463, 464, 465, 466, 467, 468, 469, 470, 471, 472, 473, 474, 475, 476, 477, 478, 479, 480, 481, 482, 483, 484, 485, 486, 487, 488, 489, 490, 491, 492, 493, 494, 495, 496, 497, 498, 499, 500, 501, 502, 503, 504, 505, 506, 507, 508, 509, 510, 511, 512, 513, 514, 515, 516, 517, 518, 519, 520, 521, 522, 523, 524, 525, 526, 527, 528, 529, 530, 531, 532, 533, 534, 535, 536, 537, 538, 539, 540, 541, 542, 543, 544, 545, 546, 547, 548, 549, 550, 551, 552, 553, 554, 555, 556, 557, 558, 559, 560, 561, 562, 563, 564, 565, 566, 567, 568, 569, 570, 571, 572, 573, 574, 575, 576, 577, 578, 579, 580, 581, 582, 583, 584, 585, 586, 587, 588, 589, 590, 591, 592, 593, 594, 595, 596, 597, 598, 599, 600, 601, 602, 603, 604, 605, 606, 607, 608, 609, 610, 611, 612, 613, 614, 615, 616, 617, 618, 619, 620, 621, 622, 623, 624, 625, 626, 627, 628, 629, 630, 631, 632, 633, 634, 635, 636, 637, 638, 639, 640, 641, 642, 643, 644, 645, 646, 647, 648, 649, 650, 651, 652, 653, 654, 655, 656, 657, 658, 659, 660, 661, 662, 663, 664, 665, 666, 667, 668, 669, 670, 671, 672, 673, 674, 675, 676, 677, 678, 679, 680, 681, 682, 683, 684, 685, 686, 687, 688, 689, 690, 691, 692, 693, 694, 695, 696, 697, 698, 699, 700, 701, 702, 703, 704, 705, 706, 707, 708, 709, 710, 711, 712, 713, 714, 715, 716, 717, 718, 719, 720, 721, 722, 723, 724, 725, 726, 727, 728, 729, 730, 731, 732, 733, 734, 735, 736, 737, 738, 739, 740, 741, 742, 743, 744, 745, 746, 747, 748, 749, 750, 751, 752, 753, 754, 755, 756, 757, 758, 759, 760, 761, 762, 763, 764, 765, 766, 767, 768, 769, 770, 771, 772, 773, 774, 775, 776, 777, 778, 779, 780, 781, 782, 783, 784, 785, 786, 787, 788, 789, 790, 791, 792, 793, 794, 795, 796, 797, 798, 799, 800, 801, 802, 803, 804, 805, 806, 807, 808, 809, 810, 811, 812, 813, 814, 815, 816, 817, 818, 819, 820, 821, 822, 823, 824, 825, 826, 827, 828, 829, 830, 831, 832, 833, 834, 835, 836, 837, 838, 839, 840, 841, 842, 843, 844, 845, 846, 847, 848, 849, 850, 851, 852, 853, 854, 855, 856, 857, 858, 859, 860, 861, 862, 863, 864, 865, 866, 867, 868, 869, 870, 871, 872],
      "AcquisitionTime": ["194407.485000", "194407.945000", "194408.405000", "194408.865000", "194409.325000", "194409.785000", "194410.245000", "194410.705000", "194411.165000", "194411.625000", "194412.085000", "194412.545000", "194413.005000", "194413.465000", "194413.925000", "194414.385000", "194414.845000", "194415.305000", "194415.765000", "194416.225000", "194416.685000", "194417.145000", "194417.605000", "194418.065000", "194418.525000", "194418.985000", "194419.445000", "194419.905000", "194420.365000", "194420.825000", "194421.285000", "194421.745000", "194422.205000", "194422.665000", "194423.125000", "194423.585000", "194424.045000", "194424.505000", "194424.965000", "194425.425000", "194425.885000", "194426.345000", "194426.805000", "194427.265000", "194427.725000", "194428.185000", "194428.645000", "194429.105000", "194429.565000", "194430.025000", "194430.485000", "194430.945000", "194431.405000", "194431.865000", "194432.325000", "194432.785000", "194433.245000", "194433.705000", "194434.165000", "194434.625000", "194435.085000", "194435.545000", "194436.005000", "194436.465000", "194436.925000", "194437.385000", "194437.845000", "194438.305000", "194438.765000", "194439.225000", "194439.685000", "194440.145000", "194440.605000", "194441.065000", "194441.525000", "194441.985000", "194442.445000", "194442.905000", "194443.365000", "194443.825000", "194444.285000", "194444.745000", "194445.205000", "194445.665000", "194446.125000", "194446.585000", "194447.045000", "194447.505000", "194447.965000", "194448.425000", "194448.885000", "194449.345000", "194449.805000", "194450.265000", "194450.725000", "194451.185000", "194451.645000", "194452.105000", "194452.565000", "194453.025000", "194453.485000", "194453.945000", "194454.405000", "194454.865000", "194455.325000", "194455.785000", "194456.245000", "194456.705000", "194457.165000", "194457.625000", "194458.085000", "194458.545000", "194459.005000", "194459.465000", "194459.925000", "194500.385000", "194500.845000", "194501.305000", "194501.765000", "194502.225000", "194502.685000", "194503.145000", "194503.605000", "194504.065000", "194504.525000", "194504.985000", "194505.445000", "194505.905000", "194506.365000", "194506.825000", "194507.285000", "194507.745000", "194508.205000", "194508.665000", "194509.125000", "194509.585000", "194510.045000", "194510.505000", "194510.965000", "194511.425000", "194511.885000", "194512.345000", "194512.805000", "194513.265000", "194513.725000", "194514.185000", "194514.645000", "194515.105000", "194515.565000", "194516.025000", "194516.485000", "194516.945000", "194517.405000", "194517.865000", "194518.325000", "194518.785000", "194519.245000", "194519.705000", "194520.165000", "194520.625000", "194521.085000", "194521.545000", "194522.005000", "194522.465000", "194522.925000", "194523.385000", "194523.845000", "194524.305000", "194524.765000", "194525.225000", "194525.685000", "194526.145000", "194526.605000", "194527.065000", "194527.525000", "194527.985000", "194528.445000", "194528.905000", "194529.365000", "194529.825000", "194530.285000", "194530.745000", "194531.205000", "194531.665000", "194532.125000", "194532.585000", "194533.045000", "194533.505000", "194533.965000", "194534.425000", "194534.885000", "194535.345000", "194535.805000", "194536.265000", "194536.725000", "194537.185000", "194537.645000", "194538.105000", "194538.565000", "194539.025000", "194539.485000", "194539.945000", "194540.405000", "194540.865000", "194541.325000", "194541.785000", "194542.245000", "194542.705000", "194543.165000", "194543.625000", "194544.085000", "194544.545000", "194545.005000", "194545.465000", "194545.925000", "194546.385000", "194546.845000", "194547.305000", "194547.765000", "194548.225000", "194548.685000", "194549.145000", "194549.605000", "194550.065000", "194550.525000", "194550.985000", "194551.445000", "194551.905000", "194552.365000", "194552.825000", "194553.285000", "194553.745000", "194554.205000", "194554.665000", "194555.125000", "194555.585000", "194556.045000", "194556.505000", "194556.965000", "194557.425000", "194557.885000", "194558.345000", "194558.805000", "194559.265000", "194559.725000", "194600.185000", "194600.645000", "194601.105000", "194601.565000", "194602.025000", "194602.485000", "194602.945000", "194603.405000", "194603.865000", "194604.325000", "194604.785000", "194605.245000", "194605.705000", "194606.165000", "194606.625000", "194607.085000", "194607.545000", "194608.005000", "194608.465000", "194608.925000", "194609.385000", "194609.845000", "194610.305000", "194610.765000", "194611.225000", "194611.685000", "194612.145000", "194612.605000", "194613.065000", "194613.525000", "194613.985000", "194614.445000", "194614.905000", "194615.365000", "194615.825000", "194616.285000", "194616.745000", "194617.205000", "194617.665000", "194618.125000", "194618.585000", "194619.045000", "194619.505000", "194619.965000", "194620.425000", "194620.885000", "194621.345000", "194621.805000", "194622.265000", "194622.725000", "194623.185000", "194623.645000", "194624.105000", "194624.565000", "194625.025000", "194625.485000", "194625.945000", "194626.405000", "194626.865000", "194627.325000", "194627.785000", "194628.245000", "194628.705000", "194629.165000", "194629.625000", "194630.085000", "194630.545000", "194631.005000", "194631.465000", "194631.925000", "194632.385000", "194632.845000", "194633.305000", "194633.765000", "194634.225000", "194634.685000", "194635.145000", "194635.605000", "194636.065000", "194636.525000", "194636.985000", "194637.445000", "194637.905000", "194638.365000", "194638.825000", "194639.285000", "194639.745000", "194640.205000", "194640.665000", "194641.125000", "194641.585000", "194642.045000", "194642.505000", "194642.965000", "194643.425000", "194643.885000", "194644.345000", "194644.805000", "194645.265000", "194645.725000", "194646.185000", "194646.645000", "194647.105000", "194647.565000", "194648.025000", "194648.485000", "194648.945000", "194649.405000", "194649.865000", "194650.325000", "194650.785000", "194651.245000", "194651.705000", "194652.165000", "194652.625000", "194653.085000", "194653.545000", "194654.005000", "194654.465000", "194654.925000", "194655.385000", "194655.845000", "194656.305000", "194656.765000", "194657.225000", "194657.685000", "194658.145000", "194658.605000", "194659.065000", "194659.525000", "194659.985000", "194700.445000", "194700.905000", "194701.365000", "194701.825000", "194702.285000", "194702.745000", "194703.205000", "194703.665000", "194704.125000", "194704.585000", "194705.045000", "194705.505000", "194705.965000", "194706.425000", "194706.885000", "194707.345000", "194707.805000", "194708.265000", "194708.725000", "194709.185000", "194709.645000", "194710.105000", "194710.565000", "194711.025000", "194711.485000", "194711.945000", "194712.405000", "194712.865000", "194713.325000", "194713.785000", "194714.245000", "194714.705000", "194715.165000", "194715.625000", "194716.085000", "194716.545000", "194717.005000", "194717.465000", "194717.925000", "194718.385000", "194718.845000", "194719.305000", "194719.765000", "194720.225000", "194720.685000", "194721.145000", "194721.605000", "194722.065000", "194722.525000", "194722.985000", "194723.445000", "194723.905000", "194724.365000", "194724.825000", "194725.285000", "194725.745000", "194726.205000", "194726.665000", "194727.125000", "194727.585000", "194728.045000", "194728.505000", "194728.965000", "194729.425000", "194729.885000", "194730.345000", "194730.805000", "194731.265000", "194731.725000", "194732.185000", "194732.645000", "194733.105000", "194733.565000", "194734.025000", "194734.485000", "194734.945000", "194735.405000", "194735.865000", "194736.325000", "194736.785000", "194737.245000", "194737.705000", "194738.165000", "194738.625000", "194739.085000", "194739.545000", "194740.005000", "194740.465000", "194740.925000", "194741.385000", "194741.845000", "194742.305000", "194742.765000", "194743.225000", "194743.685000", "194744.145000", "194744.605000", "194745.065000", "194745.525000", "194745.985000", "194746.445000", "194746.905000", "194747.365000", "194747.825000", "194748.285000", "194748.745000", "194749.205000", "194749.665000", "194750.125000", "194750.585000", "194751.045000", "194751.505000", "194751.965000", "194752.425000", "194752.885000", "194753.345000", "194753.805000", "194754.265000", "194754.725000", "194755.185000", "194755.645000", "194756.105000", "194756.565000", "194757.025000", "194757.485000", "194757.945000", "194758.405000", "194758.865000", "194759.325000", "194759.785000", "194800.245000", "194800.705000", "194801.165000", "194801.625000", "194802.085000", "194802.545000", "194803.005000", "194803.465000", "194803.925000", "194804.385000", "194804.845000", "194805.305000", "194805.765000", "194806.225000", "194806.685000", "194807.145000", "194807.605000", "194808.065000", "194808.525000", "194808.985000", "194809.445000", "194809.905000", "194810.365000", "194810.825000", "194811.285000", "194811.745000", "194812.205000", "194812.665000", "194813.125000", "194813.585000", "194814.045000", "194814.505000", "194814.965000", "194815.425000", "194815.885000", "194816.345000", "194816.805000", "194817.265000", "194817.725000", "194818.185000", "194818.645000", "194819.105000", "194819.565000", "194820.025000", "194820.485000", "194820.945000", "194821.405000", "194821.865000", "194822.325000", "194822.785000", "194823.245000", "194823.705000", "194824.165000", "194824.625000", "194825.085000", "194825.545000", "194826.005000", "194826.465000", "194826.925000", "194827.385000", "194827.845000", "194828.305000", "194828.765000", "194829.225000", "194829.685000", "194830.145000", "194830.605000", "194831.065000", "194831.525000", "194831.985000", "194832.445000", "194832.905000", "194833.365000", "194833.825000", "194834.285000", "194834.745000", "194835.205000", "194835.665000", "194836.125000", "194836.585000", "194837.045000", "194837.505000", "194837.965000", "194838.425000", "194838.885000", "194839.345000", "194839.805000", "194840.265000", "194840.725000", "194841.185000", "194841.645000", "194842.105000", "194842.565000", "194843.025000", "194843.485000", "194843.945000", "194844.405000", "194844.865000", "194845.325000", "194845.785000", "194846.245000", "194846.705000", "194847.165000", "194847.625000", "194848.085000", "194848.545000", "194849.005000", "194849.465000", "194849.925000", "194850.385000", "194850.845000", "194851.305000", "194851.765000", "194852.225000", "194852.685000", "194853.145000", "194853.605000", "194854.065000", "194854.525000", "194854.985000", "194855.445000", "194855.905000", "194856.365000", "194856.825000", "194857.285000", "194857.745000", "194858.205000", "194858.665000", "194859.125000", "194859.585000", "194900.045000", "194900.505000", "194900.965000", "194901.425000", "194901.885000", "194902.345000", "194902.805000", "194903.265000", "194903.725000", "194904.185000", "194904.645000", "194905.105000", "194905.565000", "194906.025000", "194906.485000", "194906.945000", "194907.405000", "194907.865000", "194908.325000", "194908.785000", "194909.245000", "194909.705000", "194910.165000", "194910.625000", "194911.085000", "194911.545000", "194912.005000", "194912.465000", "194912.925000", "194913.385000", "194913.845000", "194914.305000", "194914.765000", "194915.225000", "194915.685000", "194916.145000", "194916.605000", "194917.065000", "194917.525000", "194917.985000", "194918.445000", "194918.905000", "194919.365000", "194919.825000", "194920.285000", "194920.745000", "194921.205000", "194921.665000", "194922.125000", "194922.585000", "194923.045000", "194923.505000", "194923.965000", "194924.425000", "194924.885000", "194925.345000", "194925.805000", "194926.265000", "194926.725000", "194927.185000", "194927.645000", "194928.105000", "194928.565000", "194929.025000", "194929.485000", "194929.945000", "194930.405000", "194930.865000", "194931.325000", "194931.785000", "194932.245000", "194932.705000", "194933.165000", "194933.625000", "194934.085000", "194934.545000", "194935.005000", "194935.465000", "194935.925000", "194936.385000", "194936.845000", "194937.305000", "194937.765000", "194938.225000", "194938.685000", "194939.145000", "194939.605000", "194940.065000", "194940.525000", "194940.985000", "194941.445000", "194941.905000", "194942.365000", "194942.825000", "194943.285000", "194943.745000", "194944.205000", "194944.665000", "194945.125000", "194945.585000", "194946.045000", "194946.505000", "194946.965000", "194947.425000", "194947.885000", "194948.345000", "194948.805000", "194949.265000", "194949.725000", "194950.185000", "194950.645000", "194951.105000", "194951.565000", "194952.025000", "194952.485000", "194952.945000", "194953.405000", "194953.865000", "194954.325000", "194954.785000", "194955.245000", "194955.705000", "194956.165000", "194956.625000", "194957.085000", "194957.545000", "194958.005000", "194958.465000", "194958.925000", "194959.385000", "194959.845000", "195000.305000", "195000.765000", "195001.225000", "195001.685000", "195002.145000", "195002.605000", "195003.065000", "195003.525000", "195003.985000", "195004.445000", "195004.905000", "195005.365000", "195005.825000", "195006.285000", "195006.745000", "195007.205000", "195007.665000", "195008.125000", "195008.585000", "195009.045000", "195009.505000", "195009.965000", "195010.425000", "195010.885000", "195011.345000", "195011.805000", "195012.265000", "195012.725000", "195013.185000", "195013.645000", "195014.105000", "195014.565000", "195015.025000", "195015.485000", "195015.945000", "195016.405000", "195016.865000", "195017.325000", "195017.785000", "195018.245000", "195018.705000", "195019.165000", "195019.625000", "195020.085000", "195020.545000", "195021.005000", "195021.465000", "195021.925000", "195022.385000", "195022.845000", "195023.305000", "195023.765000", "195024.225000", "195024.685000", "195025.145000", "195025.605000", "195026.065000", "195026.525000", "195026.985000", "195027.445000", "195027.905000", "195028.365000", "195028.825000", "195029.285000", "195029.745000", "195030.205000", "195030.665000", "195031.125000", "195031.585000", "195032.045000", "195032.505000", "195032.965000", "195033.425000", "195033.885000", "195034.345000", "195034.805000", "195035.265000", "195035.725000", "195036.185000", "195036.645000", "195037.105000", "195037.565000", "195038.025000", "195038.485000", "195038.945000", "195039.405000", "195039.865000", "195040.325000", "195040.785000", "195041.245000", "195041.705000", "195042.165000", "195042.625000", "195043.085000", "195043.545000", "195044.005000", "195044.465000", "195044.925000", "195045.385000", "195045.845000", "195046.305000", "195046.765000", "195047.225000", "195047.685000", "195048.145000"],
