{
  "AcquisitionMatrixPE": 82,
  "AcquisitionNumber": 1,
  "AcquisitionTime": "20:00:3.902500",
  "BandwidthPerPixelPhaseEncode": 24.888,
  "BaseResolution": 82,
  "BodyPartExamined": "BRAIN",
  "ConsistencyInfo": "N4_VE11E_LATEST_20181129",
  "ConversionSoftware": "dcm2niix",
  "ConversionSoftwareVersion": "v1.0.20201102",
  "DerivedVendorReportedEchoSpacing": 0.00049,
  "DeviceSerialNumber": "66112",
  "DwellTime": 2e-06,
  "EchoTime": 0.0272,
  "EchoTrainLength": 82,
  "EffectiveEchoSpacing": 0.00049,
  "FlipAngle": 44,
  "ImageComments": "Unaliased MB8/PE3",
  "ImageOrientationPatientDICOM": [0.998972, 0.0310527, 0.0330108, -0.0354086, 0.989402, 0.140819],
  "ImageType": [
    "ORIGINAL",
    "PRIMARY",
    "M",
    "MB",
    "ND",
    "NORM",
    "MOSAIC"
],
  "ImagingFrequency": 123.252,
  "InPlanePhaseEncodingDirectionDICOM": "COL",
  "InstitutionAddress": "Maynard 3,Hanover,NH,US,03755",
  "InstitutionName": "Dartmouth College - PBS",
  "InstitutionalDepartmentName": "Department",
  "MRAcquisitionType": "2D",
  "MagneticFieldStrength": 3,
  "Manufacturer": "Siemens",
  "ManufacturersModelName": "Prisma",
  "Modality": "MR",
  "MultibandAccelerationFactor": 8,
  "PartialFourier": 1,
  "PatientPosition": "HFS",
  "PercentPhaseFOV": 100,
  "PercentSampling": 100,
  "PhaseEncodingDirection": "j-",
  "PhaseEncodingSteps": 82,
  "PhaseResolution": 1,
  "PixelBandwidth": 3050,
  "ProcedureStepDescription": "Wager_Wager^1076_spacetop",
  "ProtocolName": "func_run-03_task-social_acq-ap-mb8",
  "PulseSequenceDetails": "%CustomerSeq%\\cmrr_mbep2d_bold",
  "ReceiveCoilActiveElements": "HEA;HEP",
  "ReceiveCoilName": "Head_32",
  "ReconMatrixPE": 82,
  "RepetitionTime": 0.46,
  "SAR": 0.0878664,
  "ScanOptions": "FS",
  "ScanningSequence": "EP",
  "SequenceName": "epfid2d1_82",
  "SequenceVariant": "SK\\SS",
  "SeriesDescription": "func_run-03_task-social_acq-ap-mb8",
  "SeriesNumber": 16,
  "ShimSetting": [4136, -7866, -7309, 806, -91, -676, 198, 4],
  "SliceThickness": 2.7,
  "SliceTiming": [0, 0.2525, 0.065, 0.315, 0.1275, 0.3775, 0.19, 0, 0.2525, 0.065, 0.315, 0.1275, 0.3775, 0.19, 0, 0.2525, 0.065, 0.315, 0.1275, 0.3775, 0.19, 0, 0.2525, 0.065, 0.315, 0.1275, 0.3775, 0.19, 0, 0.2525, 0.065, 0.315, 0.1275, 0.3775, 0.19, 0, 0.2525, 0.065, 0.315, 0.1275, 0.3775, 0.19, 0, 0.2525, 0.065, 0.315, 0.1275, 0.3775, 0.19, 0, 0.2525, 0.065, 0.315, 0.1275, 0.3775, 0.19],
  "SoftwareVersions": "syngo MR E11",
  "SpacingBetweenSlices": 2.7,
  "StationName": "AWP66112",
  "TaskName": "social",
  "TotalReadoutTime": 0.03969,
  "TxRefAmp": 229.066,
  "WipMemBlock": "d97684f3-f70f-427e-b973-156d3441e107||Sequence: R016 ve11e/master r/434b28f1; Aug  7 2019 18:53:46 by eja",
  "dcmmeta_affine": [
    [-2.6801700592041016, -0.0949985608458519, 0.07637805491685867, 117.42262268066406],
    [-0.08331214636564255, 2.6544930934906006, 0.38297709822654724, -105.67506408691406],
    [0.08856566250324249, -0.3778076171875, 2.6716089248657227, -67.68357849121094],
    [0.0, 0.0, 0.0, 1.0]
],
  "dcmmeta_reorient_transform": [
    [0.0, -1.0, 0.0, 81.0],
    [1.0, 0.0, 0.0, 0.0],
    [0.0, 0.0, 1.0, 0.0],
    [0.0, 0.0, 0.0, 1.0]
],
  "dcmmeta_shape": [82, 82, 56, 872],
  "dcmmeta_slice_dim": 2,
  "dcmmeta_version": 0.6,
  "global": {
    "const": {
      "AccessionNumber": "A004150",
      "AcquisitionMatrix": [82, 0, 0, 82],
      "AngioFlag": "N",
      "BitsAllocated": 16,
      "BitsStored": 16,
      "BodyPartExamined": "BRAIN",
      "Columns": 656,
      "EchoNumbers": 1,
      "EchoTime": 27.2,
      "EchoTrainLength": 82,
      "FlipAngle": 44.0,
      "HighBit": 15,
      "ImageOrientationPatient": [0.9989724790043, 0.03105270941562, 0.0330108380679, -0.0354085536412, 0.98940193389413, 0.14081920158699],
      "ImagePositionPatient": [-851.67197728897, -895.08897018012, -232.13512665375],
      "ImageType": [
        "ORIGINAL",
        "PRIMARY",
        "M",
        "MB",
        "ND",
        "NORM",
        "MOSAIC"
],
      "ImagedNucleus": "1H",
      "ImagingFrequency": 123.252238,
      "InPlanePhaseEncodingDirection": "COL",
      "MRAcquisitionType": "2D",
      "MagneticFieldStrength": 3.0,
      "Manufacturer": "SIEMENS",
      "ManufacturerModelName": "Prisma",
      "Modality": "MR",
      "NumberOfAverages": 1.0,
      "NumberOfPhaseEncodingSteps": 82,
      "PercentPhaseFieldOfView": 100.0,
      "PercentSampling": 100.0,
      "PerformedProcedureStepStartTime": "185944.830000",
      "PhotometricInterpretation": "MONOCHROME2",
      "PixelBandwidth": 3050.0,
      "PixelRepresentation": 0,
      "PixelSpacing": [2.6829268932343, 2.6829268932343],
      "ProtocolName": "func_run-03_task-social_acq-ap-mb8",
      "RepetitionTime": 460.0,
      "Rows": 656,
      "SAR": 0.08786637369295,
      "SamplesPerPixel": 1,
      "ScanOptions": "FS",
      "ScanningSequence": "EP",
      "SequenceName": "epfid2d1_82",
      "SequenceVariant": [
        "SK",
        "SS"
],
      "SeriesDescription": "func_run-03_task-social_acq-ap-mb8",
      "SeriesNumber": 16,
      "SeriesTime": "200018.962000",
      "SliceLocation": -78.639507634145,
      "SliceThickness": 2.7000000476837,
      "SmallestImagePixelValue": 0,
      "SoftwareVersions": "syngo MR E11",
      "SpacingBetweenSlices": 2.6999998900696,
      "SpecificCharacterSet": "ISO_IR 100",
      "StudyID": "2",
      "StudyTime": "185944.783000",
      "TransmitCoilName": "Body",
      "VariableFlipAngleFlag": "N",
      "WindowCenterWidthExplanation": "Algo1"
    },
    "slices": {}
  },
  "time": {
    "samples": {
      "AcquisitionNumber": [1, 2, 3, 4, 5, 6, 7, 8, 9, 10, 11, 12, 13, 14, 15, 16, 17, 18, 19, 20, 21, 22, 23, 24, 25, 26, 27, 28, 29, 30, 31, 32, 33, 34, 35, 36, 37, 38, 39, 40, 41, 42, 43, 44, 45, 46, 47, 48, 49, 50, 51, 52, 53, 54, 55, 56, 57, 58, 59, 60, 61, 62, 63, 64, 65, 66, 67, 68, 69, 70, 71, 72, 73, 74, 75, 76, 77, 78, 79, 80, 81, 82, 83, 84, 85, 86, 87, 88, 89, 90, 91, 92, 93, 94, 95, 96, 97, 98, 99, 100, 101, 102, 103, 104, 105, 106, 107, 108, 109, 110, 111, 112, 113, 114, 115, 116, 117, 118, 119, 120, 121, 122, 123, 124, 125, 126, 127, 128, 129, 130, 131, 132, 133, 134, 135, 136, 137, 138, 139, 140, 141, 142, 143, 144, 145, 146, 147, 148, 149, 150, 151, 152, 153, 154, 155, 156, 157, 158, 159, 160, 161, 162, 163, 164, 165, 166, 167, 168, 169, 170, 171, 172, 173, 174, 175, 176, 177, 178, 179, 180, 181, 182, 183, 184, 185, 186, 187, 188, 189, 190, 191, 192, 193, 194, 195, 196, 197, 198, 199, 200, 201, 202, 203, 204, 205, 206, 207, 208, 209, 210, 211, 212, 213, 214, 215, 216, 217, 218, 219, 220, 221, 222, 223, 224, 225, 226, 227, 228, 229, 230, 231, 232, 233, 234, 235, 236, 237, 238, 239, 240, 241, 242, 243, 244, 245, 246, 247, 248, 249, 250, 251, 252, 253, 254, 255, 256, 257, 258, 259, 260, 261, 262, 263, 264, 265, 266, 267, 268, 269, 270, 271, 272, 273, 274, 275, 276, 277, 278, 279, 280, 281, 282, 283, 284, 285, 286, 287, 288, 289, 290, 291, 292, 293, 294, 295, 296, 297, 298, 299, 300, 301, 302, 303, 304, 305, 306, 307, 308, 309, 310, 311, 312, 313, 314, 315, 316, 317, 318, 319, 320, 321, 322, 323, 324, 325, 326, 327, 328, 329, 330, 331, 332, 333, 334, 335, 336, 337, 338, 339, 340, 341, 342, 343, 344, 345, 346, 347, 348, 349, 350, 351, 352, 353, 354, 355, 356, 357, 358, 359, 360, 361, 362, 363, 364, 365, 366, 367, 368, 369, 370, 371, 372, 373, 374, 375, 376, 377, 378, 379, 380, 381, 382, 383, 384, 385, 386, 387, 388, 389, 390, 391, 392, 393, 394, 395, 396, 397, 398, 399, 400, 401, 402, 403, 404, 405, 406, 407, 408, 409, 410, 411, 412, 413, 414, 415, 416, 417, 418, 419, 420, 421, 422, 423, 424, 425, 426, 427, 428, 429, 430, 431, 432, 433, 434, 435, 436, 437, 438, 439, 440, 441, 442, 443, 444, 445, 446, 447, 448, 449, 450, 451, 452, 453, 454, 455, 456, 457, 458, 459, 460, 461, 462, 463, 464, 465, 466, 467, 468, 469, 470, 471, 472, 473, 474, 475, 476, 477, 478, 479, 480, 481, 482, 483, 484, 485, 486, 487, 488, 489, 490, 491, 492, 493, 494, 495, 496, 497, 498, 499, 500, 501, 502, 503, 504, 505, 506, 507, 508, 509, 510, 511, 512, 513, 514, 515, 516, 517, 518, 519, 520, 521, 522, 523, 524, 525, 526, 527, 528, 529, 530, 531, 532, 533, 534, 535, 536, 537, 538, 539, 540, 541, 542, 543, 544, 545, 546, 547, 548, 549, 550, 551, 552, 553, 554, 555, 556, 557, 558, 559, 560, 561, 562, 563, 564, 565, 566, 567, 568, 569, 570, 571, 572, 573, 574, 575, 576, 577, 578, 579, 580, 581, 582, 583, 584, 585, 586, 587, 588, 589, 590, 591, 592, 593, 594, 595, 596, 597, 598, 599, 600, 601, 602, 603, 604, 605, 606, 607, 608, 609, 610, 611, 612, 613, 614, 615, 616, 617, 618, 619, 620, 621, 622, 623, 624, 625, 626, 627, 628, 629, 630, 631, 632, 633, 634, 635, 636, 637, 638, 639, 640, 641, 642, 643, 644, 645, 646, 647, 648, 649, 650, 651, 652, 653, 654, 655, 656, 657, 658, 659, 660, 661, 662, 663, 664, 665, 666, 667, 668, 669, 670, 671, 672, 673, 674, 675, 676, 677, 678, 679, 680, 681, 682, 683, 684, 685, 686, 687, 688, 689, 690, 691, 692, 693, 694, 695, 696, 697, 698, 699, 700, 701, 702, 703, 704, 705, 706, 707, 708, 709, 710, 711, 712, 713, 714, 715, 716, 717, 718, 719, 720, 721, 722, 723, 724, 725, 726, 727, 728, 729, 730, 731, 732, 733, 734, 735, 736, 737, 738, 739, 740, 741, 742, 743, 744, 745, 746, 747, 748, 749, 750, 751, 752, 753, 754, 755, 756, 757, 758, 759, 760, 761, 762, 763, 764, 765, 766, 767, 768, 769, 770, 771, 772, 773, 774, 775, 776, 777, 778, 779, 780, 781, 782, 783, 784, 785, 786, 787, 788, 789, 790, 791, 792, 793, 794, 795, 796, 797, 798, 799, 800, 801, 802, 803, 804, 805, 806, 807, 808, 809, 810, 811, 812, 813, 814, 815, 816, 817, 818, 819, 820, 821, 822, 823, 824, 825, 826, 827, 828, 829, 830, 831, 832, 833, 834, 835, 836, 837, 838, 839, 840, 841, 842, 843, 844, 845, 846, 847, 848, 849, 850, 851, 852, 853, 854, 855, 856, 857, 858, 859, 860, 861, 862, 863, 864, 865, 866, 867, 868, 869, 870, 871, 872],
      "AcquisitionTime": ["200003.902500", "200004.362500", "200004.822500", "200005.282500", "200005.742500", "200006.202500", "200006.662500", "200007.122500", "200007.582500", "200008.042500", "200008.502500", "200008.962500", "200009.422500", "200009.882500", "200010.342500", "200010.802500", "200011.262500", "200011.722500", "200012.182500", "200012.642500", "200013.102500", "200013.562500", "200014.022500", "200014.482500", "200014.942500", "200015.402500", "200015.862500", "200016.322500", "200016.782500", "200017.242500", "200017.702500", "200018.162500", "200018.622500", "200019.082500", "200019.542500", "200020.002500", "200020.462500", "200020.922500", "200021.382500", "200021.842500", "200022.302500", "200022.762500", "200023.222500", "200023.682500", "200024.142500", "200024.602500", "200025.062500", "200025.522500", "200025.982500", "200026.442500", "200026.902500", "200027.362500", "200027.822500", "200028.282500", "200028.742500", "200029.202500", "200029.662500", "200030.122500", "200030.582500", "200031.042500", "200031.502500", "200031.962500", "200032.422500", "200032.882500", "200033.342500", "200033.802500", "200034.262500", "200034.722500", "200035.182500", "200035.642500", "200036.102500", "200036.562500", "200037.022500", "200037.482500", "200037.942500", "200038.402500", "200038.862500", "200039.322500", "200039.782500", "200040.242500", "200040.702500", "200041.162500", "200041.622500", "200042.082500", "200042.542500", "200043.002500", "200043.462500", "200043.922500", "200044.382500", "200044.842500", "200045.302500", "200045.762500", "200046.222500", "200046.682500", "200047.142500", "200047.602500", "200048.062500", "200048.522500", "200048.982500", "200049.442500", "200049.902500", "200050.362500", "200050.822500", "200051.282500", "200051.742500", "200052.202500", "200052.662500", "200053.122500", "200053.582500", "200054.042500", "200054.502500", "200054.962500", "200055.422500", "200055.882500", "200056.342500", "200056.802500", "200057.262500", "200057.722500", "200058.182500", "200058.642500", "200059.102500", "200059.562500", "200100.022500", "200100.482500", "200100.942500", "200101.402500", "200101.862500", "200102.322500", "200102.782500", "200103.242500", "200103.702500", "200104.162500", "200104.622500", "200105.082500", "200105.542500", "200106.002500", "200106.462500", "200106.922500", "200107.382500", "200107.842500", "200108.302500", "200108.762500", "200109.222500", "200109.682500", "200110.142500", "200110.602500", "200111.062500", "200111.522500", "200111.982500", "200112.442500", "200112.902500", "200113.362500", "200113.822500", "200114.282500", "200114.742500", "200115.202500", "200115.662500", "200116.122500", "200116.582500", "200117.042500", "200117.502500", "200117.962500", "200118.422500", "200118.882500", "200119.342500", "200119.802500", "200120.262500", "200120.722500", "200121.182500", "200121.642500", "200122.102500", "200122.562500", "200123.022500", "200123.482500", "200123.942500", "200124.402500", "200124.862500", "200125.322500", "200125.782500", "200126.242500", "200126.702500", "200127.162500", "200127.622500", "200128.082500", "200128.542500", "200129.002500", "200129.462500", "200129.922500", "200130.382500", "200130.842500", "200131.302500", "200131.762500", "200132.222500", "200132.682500", "200133.142500", "200133.602500", "200134.062500", "200134.522500", "200134.982500", "200135.442500", "200135.902500", "200136.362500", "200136.822500", "200137.282500", "200137.742500", "200138.202500", "200138.662500", "200139.122500", "200139.582500", "200140.042500", "200140.502500", "200140.962500", "200141.422500", "200141.882500", "200142.342500", "200142.802500", "200143.262500", "200143.722500", "200144.182500", "200144.642500", "200145.102500", "200145.562500", "200146.022500", "200146.482500", "200146.942500", "200147.402500", "200147.862500", "200148.322500", "200148.782500", "200149.242500", "200149.702500", "200150.162500", "200150.622500", "200151.082500", "200151.542500", "200152.002500", "200152.462500", "200152.922500", "200153.382500", "200153.842500", "200154.302500", "200154.762500", "200155.222500", "200155.682500", "200156.142500", "200156.602500", "200157.062500", "200157.522500", "200157.982500", "200158.442500", "200158.902500", "200159.362500", "200159.822500", "200200.282500", "200200.742500", "200201.202500", "200201.662500", "200202.122500", "200202.582500", "200203.042500", "200203.502500", "200203.962500", "200204.422500", "200204.882500", "200205.342500", "200205.802500", "200206.262500", "200206.722500", "200207.182500", "200207.642500", "200208.102500", "200208.562500", "200209.022500", "200209.482500", "200209.942500", "200210.402500", "200210.862500", "200211.322500", "200211.782500", "200212.242500", "200212.702500", "200213.162500", "200213.622500", "200214.082500", "200214.542500", "200215.002500", "200215.462500", "200215.922500", "200216.382500", "200216.842500", "200217.302500", "200217.762500", "200218.222500", "200218.682500", "200219.142500", "200219.602500", "200220.062500", "200220.522500", "200220.982500", "200221.442500", "200221.902500", "200222.362500", "200222.822500", "200223.282500", "200223.742500", "200224.202500", "200224.662500", "200225.122500", "200225.582500", "200226.042500", "200226.502500", "200226.962500", "200227.422500", "200227.882500", "200228.342500", "200228.802500", "200229.262500", "200229.722500", "200230.182500", "200230.642500", "200231.102500", "200231.562500", "200232.022500", "200232.482500", "200232.942500", "200233.402500", "200233.862500", "200234.322500", "200234.782500", "200235.242500", "200235.702500", "200236.162500", "200236.622500", "200237.082500", "200237.542500", "200238.002500", "200238.462500", "200238.922500", "200239.382500", "200239.842500", "200240.302500", "200240.762500", "200241.222500", "200241.682500", "200242.142500", "200242.602500", "200243.062500", "200243.522500", "200243.982500", "200244.442500", "200244.902500", "200245.362500", "200245.822500", "200246.282500", "200246.742500", "200247.202500", "200247.662500", "200248.122500", "200248.582500", "200249.042500", "200249.502500", "200249.962500", "200250.422500", "200250.882500", "200251.342500", "200251.802500", "200252.262500", "200252.722500", "200253.182500", "200253.642500", "200254.102500", "200254.562500", "200255.022500", "200255.482500", "200255.942500", "200256.402500", "200256.862500", "200257.322500", "200257.782500", "200258.242500", "200258.702500", "200259.162500", "200259.622500", "200300.082500", "200300.542500", "200301.002500", "200301.462500", "200301.922500", "200302.382500", "200302.842500", "200303.302500", "200303.762500", "200304.222500", "200304.682500", "200305.142500", "200305.602500", "200306.062500", "200306.522500", "200306.982500", "200307.442500", "200307.902500", "200308.362500", "200308.822500", "200309.282500", "200309.742500", "200310.202500", "200310.662500", "200311.122500", "200311.582500", "200312.042500", "200312.502500", "200312.962500", "200313.422500", "200313.882500", "200314.342500", "200314.802500", "200315.262500", "200315.722500", "200316.182500", "200316.642500", "200317.102500", "200317.562500", "200318.022500", "200318.482500", "200318.942500", "200319.402500", "200319.862500", "200320.322500", "200320.782500", "200321.242500", "200321.702500", "200322.162500", "200322.622500", "200323.082500", "200323.542500", "200324.002500", "200324.462500", "200324.922500", "200325.382500", "200325.842500", "200326.302500", "200326.762500", "200327.222500", "200327.682500", "200328.142500", "200328.602500", "200329.062500", "200329.522500", "200329.982500", "200330.442500", "200330.902500", "200331.362500", "200331.822500", "200332.282500", "200332.742500", "200333.202500", "200333.662500", "200334.122500", "200334.582500", "200335.042500", "200335.502500", "200335.962500", "200336.422500", "200336.882500", "200337.342500", "200337.802500", "200338.262500", "200338.722500", "200339.182500", "200339.642500", "200340.102500", "200340.562500", "200341.022500", "200341.482500", "200341.942500", "200342.402500", "200342.862500", "200343.322500", "200343.782500", "200344.242500", "200344.702500", "200345.162500", "200345.622500", "200346.082500", "200346.542500", "200347.002500", "200347.462500", "200347.922500", "200348.382500", "200348.842500", "200349.302500", "200349.762500", "200350.222500", "200350.682500", "200351.142500", "200351.602500", "200352.062500", "200352.522500", "200352.982500", "200353.442500", "200353.902500", "200354.362500", "200354.822500", "200355.282500", "200355.742500", "200356.202500", "200356.662500", "200357.122500", "200357.582500", "200358.042500", "200358.502500", "200358.962500", "200359.422500", "200359.882500", "200400.342500", "200400.802500", "200401.262500", "200401.722500", "200402.182500", "200402.642500", "200403.102500", "200403.562500", "200404.022500", "200404.482500", "200404.942500", "200405.402500", "200405.862500", "200406.322500", "200406.782500", "200407.242500", "200407.702500", "200408.162500", "200408.622500", "200409.082500", "200409.542500", "200410.002500", "200410.462500", "200410.922500", "200411.382500", "200411.842500", "200412.302500", "200412.762500", "200413.222500", "200413.682500", "200414.142500", "200414.602500", "200415.062500", "200415.522500", "200415.982500", "200416.442500", "200416.902500", "200417.362500", "200417.822500", "200418.282500", "200418.742500", "200419.202500", "200419.662500", "200420.122500", "200420.582500", "200421.042500", "200421.502500", "200421.962500", "200422.422500", "200422.882500", "200423.342500", "200423.802500", "200424.262500", "200424.722500", "200425.182500", "200425.642500", "200426.102500", "200426.562500", "200427.022500", "200427.482500", "200427.942500", "200428.402500", "200428.862500", "200429.322500", "200429.782500", "200430.242500", "200430.702500", "200431.162500", "200431.622500", "200432.082500", "200432.542500", "200433.002500", "200433.462500", "200433.922500", "200434.382500", "200434.842500", "200435.302500", "200435.762500", "200436.222500", "200436.682500", "200437.142500", "200437.602500", "200438.062500", "200438.522500", "200438.982500", "200439.442500", "200439.902500", "200440.362500", "200440.822500", "200441.282500", "200441.742500", "200442.202500", "200442.662500", "200443.122500", "200443.582500", "200444.042500", "200444.502500", "200444.962500", "200445.422500", "200445.882500", "200446.342500", "200446.802500", "200447.262500", "200447.722500", "200448.182500", "200448.642500", "200449.102500", "200449.562500", "200450.022500", "200450.482500", "200450.942500", "200451.402500", "200451.862500", "200452.322500", "200452.782500", "200453.242500", "200453.702500", "200454.162500", "200454.622500", "200455.082500", "200455.542500", "200456.002500", "200456.462500", "200456.922500", "200457.382500", "200457.842500", "200458.302500", "200458.762500", "200459.222500", "200459.682500", "200500.142500", "200500.602500", "200501.062500", "200501.522500", "200501.982500", "200502.442500", "200502.902500", "200503.362500", "200503.822500", "200504.282500", "200504.742500", "200505.202500", "200505.662500", "200506.122500", "200506.582500", "200507.042500", "200507.502500", "200507.962500", "200508.422500", "200508.882500", "200509.342500", "200509.802500", "200510.262500", "200510.722500", "200511.182500", "200511.642500", "200512.102500", "200512.562500", "200513.022500", "200513.482500", "200513.942500", "200514.402500", "200514.862500", "200515.322500", "200515.782500", "200516.242500", "200516.702500", "200517.162500", "200517.622500", "200518.082500", "200518.542500", "200519.002500", "200519.462500", "200519.922500", "200520.382500", "200520.842500", "200521.302500", "200521.762500", "200522.222500", "200522.682500", "200523.142500", "200523.602500", "200524.062500", "200524.522500", "200524.982500", "200525.442500", "200525.902500", "200526.362500", "200526.822500", "200527.282500", "200527.742500", "200528.202500", "200528.662500", "200529.122500", "200529.582500", "200530.042500", "200530.502500", "200530.962500", "200531.422500", "200531.882500", "200532.342500", "200532.802500", "200533.262500", "200533.722500", "200534.182500", "200534.642500", "200535.102500", "200535.562500", "200536.022500", "200536.482500", "200536.942500", "200537.402500", "200537.862500", "200538.322500", "200538.782500", "200539.242500", "200539.702500", "200540.162500", "200540.622500", "200541.082500", "200541.542500", "200542.002500", "200542.462500", "200542.922500", "200543.382500", "200543.842500", "200544.302500", "200544.762500", "200545.222500", "200545.682500", "200546.142500", "200546.602500", "200547.062500", "200547.522500", "200547.982500", "200548.442500", "200548.902500", "200549.362500", "200549.822500", "200550.282500", "200550.742500", "200551.202500", "200551.662500", "200552.122500", "200552.582500", "200553.042500", "200553.502500", "200553.962500", "200554.422500", "200554.882500", "200555.342500", "200555.802500", "200556.262500", "200556.722500", "200557.182500", "200557.642500", "200558.102500", "200558.562500", "200559.022500", "200559.482500", "200559.942500", "200600.402500", "200600.862500", "200601.322500", "200601.782500", "200602.242500", "200602.702500", "200603.162500", "200603.622500", "200604.082500", "200604.542500", "200605.002500", "200605.462500", "200605.922500", "200606.382500", "200606.842500", "200607.302500", "200607.762500", "200608.222500", "200608.682500", "200609.142500", "200609.602500", "200610.062500", "200610.522500", "200610.982500", "200611.442500", "200611.902500", "200612.362500", "200612.822500", "200613.282500", "200613.742500", "200614.202500", "200614.662500", "200615.122500", "200615.582500", "200616.042500", "200616.502500", "200616.962500", "200617.422500", "200617.882500", "200618.342500", "200618.802500", "200619.262500", "200619.722500", "200620.182500", "200620.642500", "200621.102500", "200621.562500", "200622.022500", "200622.482500", "200622.942500", "200623.402500", "200623.862500", "200624.322500", "200624.782500", "200625.242500", "200625.702500", "200626.162500", "200626.622500", "200627.082500", "200627.542500", "200628.002500", "200628.462500", "200628.922500", "200629.382500", "200629.842500", "200630.302500", "200630.762500", "200631.222500", "200631.682500", "200632.142500", "200632.602500", "200633.062500", "200633.522500", "200633.982500", "200634.442500", "200634.902500", "200635.362500", "200635.822500", "200636.282500", "200636.742500", "200637.202500", "200637.662500", "200638.122500", "200638.582500", "200639.042500", "200639.502500", "200639.962500", "200640.422500", "200640.882500", "200641.342500", "200641.802500", "200642.262500", "200642.722500", "200643.182500", "200643.642500", "200644.102500", "200644.562500"],
