{
  "AcquisitionMatrixPE": 82,
  "AcquisitionNumber": 1,
  "AcquisitionTime": "20:41:1.447500",
  "BandwidthPerPixelPhaseEncode": 24.888,
  "BaseResolution": 82,
  "BodyPartExamined": "BRAIN",
  "ConsistencyInfo": "N4_VE11E_LATEST_20181129",
  "ConversionSoftware": "dcm2niix",
  "ConversionSoftwareVersion": "v1.0.20201102",
  "DerivedVendorReportedEchoSpacing": 0.00049,
  "DeviceSerialNumber": "66112",
  "DwellTime": 2e-06,
  "EchoTime": 0.0272,
  "EchoTrainLength": 82,
  "EffectiveEchoSpacing": 0.00049,
  "FlipAngle": 44,
  "ImageComments": "Unaliased MB8/PE3",
  "ImageOrientationPatientDICOM": [0.998398, 0.0466708, 0.0319831, -0.0509261, 0.987583, 0.148616],
  "ImageType": [
    "ORIGINAL",
    "PRIMARY",
    "M",
    "MB",
    "ND",
    "NORM",
    "MOSAIC"
],
  "ImagingFrequency": 123.252,
  "InPlanePhaseEncodingDirectionDICOM": "COL",
  "InstitutionAddress": "Maynard 3,Hanover,NH,US,03755",
  "InstitutionName": "Dartmouth College - PBS",
  "InstitutionalDepartmentName": "Department",
  "MRAcquisitionType": "2D",
  "MagneticFieldStrength": 3,
  "Manufacturer": "Siemens",
  "ManufacturersModelName": "Prisma",
  "Modality": "MR",
  "MultibandAccelerationFactor": 8,
  "PartialFourier": 1,
  "PatientPosition": "HFS",
  "PercentPhaseFOV": 100,
  "PercentSampling": 100,
  "PhaseEncodingDirection": "j-",
  "PhaseEncodingSteps": 82,
  "PhaseResolution": 1,
  "PixelBandwidth": 3050,
  "ProcedureStepDescription": "Wager_Wager^1076_spacetop",
  "ProtocolName": "func_run-02_task-alignvideo_acq-ap-mb8",
  "PulseSequenceDetails": "%CustomerSeq%\\cmrr_mbep2d_bold",
  "ReceiveCoilActiveElements": "HEA;HEP",
  "ReceiveCoilName": "Head_32",
  "ReconMatrixPE": 82,
  "RepetitionTime": 0.46,
  "SAR": 0.0878982,
  "ScanOptions": "FS",
  "ScanningSequence": "EP",
  "SequenceName": "epfid2d1_82",
  "SequenceVariant": "SK\\SS",
  "SeriesDescription": "func_run-02_task-alignvideo_acq-ap-mb8",
  "SeriesNumber": 32,
  "ShimSetting": [4136, -7865, -7309, 815, -91, -677, 195, 4],
  "SliceThickness": 2.7,
  "SliceTiming": [0, 0.2525, 0.0625, 0.315, 0.125, 0.3775, 0.19, 0, 0.2525, 0.0625, 0.315, 0.125, 0.3775, 0.19, 0, 0.2525, 0.0625, 0.315, 0.125, 0.3775, 0.19, 0, 0.2525, 0.0625, 0.315, 0.125, 0.3775, 0.19, 0, 0.2525, 0.0625, 0.315, 0.125, 0.3775, 0.19, 0, 0.2525, 0.0625, 0.315, 0.125, 0.3775, 0.19, 0, 0.2525, 0.0625, 0.315, 0.125, 0.3775, 0.19, 0, 0.2525, 0.0625, 0.315, 0.125, 0.3775, 0.19],
  "SoftwareVersions": "syngo MR E11",
  "SpacingBetweenSlices": 2.7,
  "StationName": "AWP66112",
  "TaskName": "alignvideo",
  "TotalReadoutTime": 0.03969,
  "TxRefAmp": 229.066,
  "WipMemBlock": "96d548bc-87cc-440f-a36c-61ae1c5a2297||Sequence: R016 ve11e/master r/434b28f1; Aug  7 2019 18:53:46 by eja",
  "dcmmeta_affine": [
    [-2.6786293983459473, -0.13663087785243988, 0.06655483692884445, 118.46162414550781],
    [-0.1252143383026123, 2.6496124267578125, 0.4050178825855255, -104.0384521484375],
    [0.08580832928419113, -0.39872562885284424, 2.6686196327209473, -69.95868682861328],
    [0.0, 0.0, 0.0, 1.0]
],
  "dcmmeta_reorient_transform": [
    [0.0, -1.0, 0.0, 81.0],
    [1.0, 0.0, 0.0, 0.0],
    [0.0, 0.0, 1.0, 0.0],
    [0.0, 0.0, 0.0, 1.0]
],
  "dcmmeta_shape": [82, 82, 56, 926],
  "dcmmeta_slice_dim": 2,
  "dcmmeta_version": 0.6,
  "global": {
    "const": {
      "AccessionNumber": "A004150",
      "AcquisitionMatrix": [82, 0, 0, 82],
      "AngioFlag": "N",
      "BitsAllocated": 16,
      "BitsStored": 16,
      "BodyPartExamined": "BRAIN",
      "Columns": 656,
      "EchoNumbers": 1,
      "EchoTime": 27.2,
      "EchoTrainLength": 82,
      "FlipAngle": 44.0,
      "HighBit": 15,
      "ImageOrientationPatient": [0.998398175908, 0.04667079885827, 0.03198310300018, -0.050926052292, 0.98758283068464, 0.14861591346442],
      "ImagePositionPatient": [-836.94807939338, -906.95547417924, -241.31671042152],
      "ImageType": [
        "ORIGINAL",
        "PRIMARY",
        "M",
        "MB",
        "ND",
        "NORM",
        "MOSAIC"
],
      "ImagedNucleus": "1H",
      "ImagingFrequency": 123.25225,
      "InPlanePhaseEncodingDirection": "COL",
      "MRAcquisitionType": "2D",
      "MagneticFieldStrength": 3.0,
      "Manufacturer": "SIEMENS",
      "ManufacturerModelName": "Prisma",
      "Modality": "MR",
      "NumberOfAverages": 1.0,
      "NumberOfPhaseEncodingSteps": 82,
      "PercentPhaseFieldOfView": 100.0,
      "PercentSampling": 100.0,
      "PerformedProcedureStepStartTime": "185944.830000",
      "PhotometricInterpretation": "MONOCHROME2",
      "PixelBandwidth": 3050.0,
      "PixelRepresentation": 0,
      "PixelSpacing": [2.6829268932343, 2.6829268932343],
      "ProtocolName": "func_run-02_task-alignvideo_acq-ap-mb8",
      "RepetitionTime": 460.0,
      "Rows": 656,
      "SAR": 0.08789820418296,
      "SamplesPerPixel": 1,
      "ScanOptions": "FS",
      "ScanningSequence": "EP",
      "SequenceName": "epfid2d1_82",
      "SequenceVariant": [
        "SK",
        "SS"
],
      "SeriesDescription": "func_run-02_task-alignvideo_acq-ap-mb8",
      "SeriesNumber": 32,
      "SeriesTime": "204118.857000",
      "SliceLocation": -81.831990406787,
      "SliceThickness": 2.7000000476837,
      "SmallestImagePixelValue": 0,
      "SoftwareVersions": "syngo MR E11",
      "SpacingBetweenSlices": 2.6999999314221,
      "SpecificCharacterSet": "ISO_IR 100",
      "StudyID": "2",
      "StudyTime": "185944.783000",
      "TransmitCoilName": "Body",
      "VariableFlipAngleFlag": "N",
      "WindowCenterWidthExplanation": "Algo1"
    },
    "slices": {}
  },
  "time": {
    "samples": {
      "AcquisitionNumber": [1, 2, 3, 4, 5, 6, 7, 8, 9, 10, 11, 12, 13, 14, 15, 16, 17, 18, 19, 20, 21, 22, 23, 24, 25, 26, 27, 28, 29, 30, 31, 32, 33, 34, 35, 36, 37, 38, 39, 40, 41, 42, 43, 44, 45, 46, 47, 48, 49, 50, 51, 52, 53, 54, 55, 56, 57, 58, 59, 60, 61, 62, 63, 64, 65, 66, 67, 68, 69, 70, 71, 72, 73, 74, 75, 76, 77, 78, 79, 80, 81, 82, 83, 84, 85, 86, 87, 88, 89, 90, 91, 92, 93, 94, 95, 96, 97, 98, 99, 100, 101, 102, 103, 104, 105, 106, 107, 108, 109, 110, 111, 112, 113, 114, 115, 116, 117, 118, 119, 120, 121, 122, 123, 124, 125, 126, 127, 128, 129, 130, 131, 132, 133, 134, 135, 136, 137, 138, 139, 140, 141, 142, 143, 144, 145, 146, 147, 148, 149, 150, 151, 152, 153, 154, 155, 156, 157, 158, 159, 160, 161, 162, 163, 164, 165, 166, 167, 168, 169, 170, 171, 172, 173, 174, 175, 176, 177, 178, 179, 180, 181, 182, 183, 184, 185, 186, 187, 188, 189, 190, 191, 192, 193, 194, 195, 196, 197, 198, 199, 200, 201, 202, 203, 204, 205, 206, 207, 208, 209, 210, 211, 212, 213, 214, 215, 216, 217, 218, 219, 220, 221, 222, 223, 224, 225, 226, 227, 228, 229, 230, 231, 232, 233, 234, 235, 236, 237, 238, 239, 240, 241, 242, 243, 244, 245, 246, 247, 248, 249, 250, 251, 252, 253, 254, 255, 256, 257, 258, 259, 260, 261, 262, 263, 264, 265, 266, 267, 268, 269, 270, 271, 272, 273, 274, 275, 276, 277, 278, 279, 280, 281, 282, 283, 284, 285, 286, 287, 288, 289, 290, 291, 292, 293, 294, 295, 296, 297, 298, 299, 300, 301, 302, 303, 304, 305, 306, 307, 308, 309, 310, 311, 312, 313, 314, 315, 316, 317, 318, 319, 320, 321, 322, 323, 324, 325, 326, 327, 328, 329, 330, 331, 332, 333, 334, 335, 336, 337, 338, 339, 340, 341, 342, 343, 344, 345, 346, 347, 348, 349, 350, 351, 352, 353, 354, 355, 356, 357, 358, 359, 360, 361, 362, 363, 364, 365, 366, 367, 368, 369, 370, 371, 372, 373, 374, 375, 376, 377, 378, 379, 380, 381, 382, 383, 384, 385, 386, 387, 388, 389, 390, 391, 392, 393, 394, 395, 396, 397, 398, 399, 400, 401, 402, 403, 404, 405, 406, 407, 408, 409, 410, 411, 412, 413, 414, 415, 416, 417, 418, 419, 420, 421, 422, 423, 424, 425, 426, 427, 428, 429, 430, 431, 432, 433, 434, 435, 436, 437, 438, 439, 440, 441, 442, 443, 444, 445, 446, 447, 448, 449, 450, 451, 452, 453, 454, 455, 456, 457, 458, 459, 460, 461, 462, 463, 464, 465, 466, 467, 468, 469, 470, 471, 472, 473, 474, 475, 476, 477, 478, 479, 480, 481, 482, 483, 484, 485, 486, 487, 488, 489, 490, 491, 492, 493, 494, 495, 496, 497, 498, 499, 500, 501, 502, 503, 504, 505, 506, 507, 508, 509, 510, 511, 512, 513, 514, 515, 516, 517, 518, 519, 520, 521, 522, 523, 524, 525, 526, 527, 528, 529, 530, 531, 532, 533, 534, 535, 536, 537, 538, 539, 540, 541, 542, 543, 544, 545, 546, 547, 548, 549, 550, 551, 552, 553, 554, 555, 556, 557, 558, 559, 560, 561, 562, 563, 564, 565, 566, 567, 568, 569, 570, 571, 572, 573, 574, 575, 576, 577, 578, 579, 580, 581, 582, 583, 584, 585, 586, 587, 588, 589, 590, 591, 592, 593, 594, 595, 596, 597, 598, 599, 600, 601, 602, 603, 604, 605, 606, 607, 608, 609, 610, 611, 612, 613, 614, 615, 616, 617, 618, 619, 620, 621, 622, 623, 624, 625, 626, 627, 628, 629, 630, 631, 632, 633, 634, 635, 636, 637, 638, 639, 640, 641, 642, 643, 644, 645, 646, 647, 648, 649, 650, 651, 652, 653, 654, 655, 656, 657, 658, 659, 660, 661, 662, 663, 664, 665, 666, 667, 668, 669, 670, 671, 672, 673, 674, 675, 676, 677, 678, 679, 680, 681, 682, 683, 684, 685, 686, 687, 688, 689, 690, 691, 692, 693, 694, 695, 696, 697, 698, 699, 700, 701, 702, 703, 704, 705, 706, 707, 708, 709, 710, 711, 712, 713, 714, 715, 716, 717, 718, 719, 720, 721, 722, 723, 724, 725, 726, 727, 728, 729, 730, 731, 732, 733, 734, 735, 736, 737, 738, 739, 740, 741, 742, 743, 744, 745, 746, 747, 748, 749, 750, 751, 752, 753, 754, 755, 756, 757, 758, 759, 760, 761, 762, 763, 764, 765, 766, 767, 768, 769, 770, 771, 772, 773, 774, 775, 776, 777, 778, 779, 780, 781, 782, 783, 784, 785, 786, 787, 788, 789, 790, 791, 792, 793, 794, 795, 796, 797, 798, 799, 800, 801, 802, 803, 804, 805, 806, 807, 808, 809, 810, 811, 812, 813, 814, 815, 816, 817, 818, 819, 820, 821, 822, 823, 824, 825, 826, 827, 828, 829, 830, 831, 832, 833, 834, 835, 836, 837, 838, 839, 840, 841, 842, 843, 844, 845, 846, 847, 848, 849, 850, 851, 852, 853, 854, 855, 856, 857, 858, 859, 860, 861, 862, 863, 864, 865, 866, 867, 868, 869, 870, 871, 872, 873, 874, 875, 876, 877, 878, 879, 880, 881, 882, 883, 884, 885, 886, 887, 888, 889, 890, 891, 892, 893, 894, 895, 896, 897, 898, 899, 900, 901, 902, 903, 904, 905, 906, 907, 908, 909, 910, 911, 912, 913, 914, 915, 916, 917, 918, 919, 920, 921, 922, 923, 924, 925, 926],
      "AcquisitionTime": ["204101.447500", "204101.907500", "204102.367500", "204102.827500", "204103.287500", "204103.747500", "204104.207500", "204104.667500", "204105.127500", "204105.587500", "204106.047500", "204106.507500", "204106.967500", "204107.427500", "204107.887500", "204108.347500", "204108.807500", "204109.267500", "204109.727500", "204110.187500", "204110.647500", "204111.107500", "204111.567500", "204112.027500", "204112.487500", "204112.947500", "204113.407500", "204113.867500", "204114.327500", "204114.787500", "204115.247500", "204115.707500", "204116.167500", "204116.627500", "204117.087500", "204117.547500", "204118.007500", "204118.467500", "204118.927500", "204119.387500", "204119.847500", "204120.307500", "204120.767500", "204121.227500", "204121.687500", "204122.147500", "204122.607500", "204123.067500", "204123.527500", "204123.987500", "204124.447500", "204124.907500", "204125.367500", "204125.827500", "204126.287500", "204126.747500", "204127.207500", "204127.667500", "204128.127500", "204128.587500", "204129.047500", "204129.507500", "204129.967500", "204130.427500", "204130.887500", "204131.347500", "204131.807500", "204132.267500", "204132.727500", "204133.187500", "204133.647500", "204134.107500", "204134.567500", "204135.027500", "204135.487500", "204135.947500", "204136.407500", "204136.867500", "204137.327500", "204137.787500", "204138.247500", "204138.707500", "204139.167500", "204139.627500", "204140.087500", "204140.547500", "204141.007500", "204141.467500", "204141.927500", "204142.387500", "204142.847500", "204143.307500", "204143.767500", "204144.227500", "204144.687500", "204145.147500", "204145.607500", "204146.067500", "204146.527500", "204146.987500", "204147.447500", "204147.907500", "204148.367500", "204148.827500", "204149.287500", "204149.747500", "204150.207500", "204150.667500", "204151.127500", "204151.587500", "204152.047500", "204152.507500", "204152.967500", "204153.427500", "204153.887500", "204154.347500", "204154.807500", "204155.267500", "204155.727500", "204156.187500", "204156.647500", "204157.107500", "204157.567500", "204158.027500", "204158.487500", "204158.947500", "204159.407500", "204159.867500", "204200.327500", "204200.787500", "204201.247500", "204201.707500", "204202.167500", "204202.627500", "204203.087500", "204203.547500", "204204.007500", "204204.467500", "204204.927500", "204205.387500", "204205.847500", "204206.307500", "204206.767500", "204207.227500", "204207.687500", "204208.147500", "204208.607500", "204209.067500", "204209.527500", "204209.987500", "204210.447500", "204210.907500", "204211.367500", "204211.827500", "204212.287500", "204212.747500", "204213.207500", "204213.667500", "204214.127500", "204214.587500", "204215.047500", "204215.507500", "204215.967500", "204216.427500", "204216.887500", "204217.347500", "204217.807500", "204218.267500", "204218.727500", "204219.187500", "204219.647500", "204220.107500", "204220.567500", "204221.027500", "204221.487500", "204221.947500", "204222.407500", "204222.867500", "204223.327500", "204223.787500", "204224.247500", "204224.707500", "204225.167500", "204225.627500", "204226.087500", "204226.547500", "204227.007500", "204227.467500", "204227.927500", "204228.387500", "204228.847500", "204229.307500", "204229.767500", "204230.227500", "204230.687500", "204231.147500", "204231.607500", "204232.067500", "204232.527500", "204232.987500", "204233.447500", "204233.907500", "204234.367500", "204234.827500", "204235.287500", "204235.747500", "204236.207500", "204236.667500", "204237.127500", "204237.587500", "204238.047500", "204238.507500", "204238.967500", "204239.427500", "204239.887500", "204240.347500", "204240.807500", "204241.267500", "204241.727500", "204242.187500", "204242.647500", "204243.107500", "204243.567500", "204244.027500", "204244.487500", "204244.947500", "204245.407500", "204245.867500", "204246.327500", "204246.787500", "204247.247500", "204247.707500", "204248.167500", "204248.627500", "204249.087500", "204249.547500", "204250.007500", "204250.467500", "204250.927500", "204251.387500", "204251.847500", "204252.307500", "204252.767500", "204253.227500", "204253.687500", "204254.147500", "204254.607500", "204255.067500", "204255.527500", "204255.987500", "204256.447500", "204256.907500", "204257.367500", "204257.827500", "204258.287500", "204258.747500", "204259.207500", "204259.667500", "204300.127500", "204300.587500", "204301.047500", "204301.507500", "204301.967500", "204302.427500", "204302.887500", "204303.347500", "204303.807500", "204304.267500", "204304.727500", "204305.187500", "204305.647500", "204306.107500", "204306.567500", "204307.027500", "204307.487500", "204307.947500", "204308.407500", "204308.867500", "204309.327500", "204309.787500", "204310.247500", "204310.707500", "204311.167500", "204311.627500", "204312.087500", "204312.547500", "204313.007500", "204313.467500", "204313.927500", "204314.387500", "204314.847500", "204315.307500", "204315.767500", "204316.227500", "204316.687500", "204317.147500", "204317.607500", "204318.067500", "204318.527500", "204318.987500", "204319.447500", "204319.907500", "204320.367500", "204320.827500", "204321.287500", "204321.747500", "204322.207500", "204322.667500", "204323.127500", "204323.587500", "204324.047500", "204324.507500", "204324.967500", "204325.427500", "204325.887500", "204326.347500", "204326.807500", "204327.267500", "204327.727500", "204328.187500", "204328.647500", "204329.107500", "204329.567500", "204330.027500", "204330.487500", "204330.947500", "204331.407500", "204331.867500", "204332.327500", "204332.787500", "204333.247500", "204333.707500", "204334.167500", "204334.627500", "204335.087500", "204335.547500", "204336.007500", "204336.467500", "204336.927500", "204337.387500", "204337.847500", "204338.307500", "204338.767500", "204339.227500", "204339.687500", "204340.147500", "204340.607500", "204341.067500", "204341.527500", "204341.987500", "204342.447500", "204342.907500", "204343.367500", "204343.827500", "204344.287500", "204344.747500", "204345.207500", "204345.667500", "204346.127500", "204346.587500", "204347.047500", "204347.507500", "204347.967500", "204348.427500", "204348.887500", "204349.347500", "204349.807500", "204350.267500", "204350.727500", "204351.187500", "204351.647500", "204352.107500", "204352.567500", "204353.027500", "204353.487500", "204353.947500", "204354.407500", "204354.867500", "204355.327500", "204355.787500", "204356.247500", "204356.707500", "204357.167500", "204357.627500", "204358.087500", "204358.547500", "204359.007500", "204359.467500", "204359.927500", "204400.387500", "204400.847500", "204401.307500", "204401.767500", "204402.227500", "204402.687500", "204403.147500", "204403.607500", "204404.067500", "204404.527500", "204404.987500", "204405.447500", "204405.907500", "204406.367500", "204406.827500", "204407.287500", "204407.747500", "204408.207500", "204408.667500", "204409.127500", "204409.587500", "204410.047500", "204410.507500", "204410.967500", "204411.427500", "204411.887500", "204412.347500", "204412.807500", "204413.267500", "204413.727500", "204414.187500", "204414.647500", "204415.107500", "204415.567500", "204416.027500", "204416.487500", "204416.947500", "204417.407500", "204417.867500", "204418.327500", "204418.787500", "204419.247500", "204419.707500", "204420.167500", "204420.627500", "204421.087500", "204421.547500", "204422.007500", "204422.467500", "204422.927500", "204423.387500", "204423.847500", "204424.307500", "204424.767500", "204425.227500", "204425.687500", "204426.147500", "204426.607500", "204427.067500", "204427.527500", "204427.987500", "204428.447500", "204428.907500", "204429.367500", "204429.827500", "204430.287500", "204430.747500", "204431.207500", "204431.667500", "204432.127500", "204432.587500", "204433.047500", "204433.507500", "204433.967500", "204434.427500", "204434.887500", "204435.347500", "204435.807500", "204436.267500", "204436.727500", "204437.187500", "204437.647500", "204438.107500", "204438.567500", "204439.027500", "204439.487500", "204439.947500", "204440.407500", "204440.867500", "204441.327500", "204441.787500", "204442.247500", "204442.707500", "204443.167500", "204443.627500", "204444.087500", "204444.547500", "204445.007500", "204445.467500", "204445.927500", "204446.387500", "204446.847500", "204447.307500", "204447.767500", "204448.227500", "204448.687500", "204449.147500", "204449.607500", "204450.067500", "204450.527500", "204450.987500", "204451.447500", "204451.907500", "204452.367500", "204452.827500", "204453.287500", "204453.747500", "204454.207500", "204454.667500", "204455.127500", "204455.587500", "204456.047500", "204456.507500", "204456.967500", "204457.427500", "204457.887500", "204458.347500", "204458.807500", "204459.267500", "204459.727500", "204500.187500", "204500.647500", "204501.107500", "204501.567500", "204502.027500", "204502.487500", "204502.947500", "204503.407500", "204503.867500", "204504.327500", "204504.787500", "204505.247500", "204505.707500", "204506.167500", "204506.627500", "204507.087500", "204507.547500", "204508.007500", "204508.467500", "204508.927500", "204509.387500", "204509.847500", "204510.307500", "204510.767500", "204511.227500", "204511.687500", "204512.147500", "204512.607500", "204513.067500", "204513.527500", "204513.987500", "204514.447500", "204514.907500", "204515.367500", "204515.827500", "204516.287500", "204516.747500", "204517.207500", "204517.667500", "204518.127500", "204518.587500", "204519.047500", "204519.507500", "204519.967500", "204520.427500", "204520.887500", "204521.347500", "204521.807500", "204522.267500", "204522.727500", "204523.187500", "204523.647500", "204524.107500", "204524.567500", "204525.027500", "204525.487500", "204525.947500", "204526.407500", "204526.867500", "204527.327500", "204527.787500", "204528.247500", "204528.707500", "204529.167500", "204529.627500", "204530.087500", "204530.547500", "204531.007500", "204531.467500", "204531.927500", "204532.387500", "204532.847500", "204533.307500", "204533.767500", "204534.227500", "204534.687500", "204535.147500", "204535.607500", "204536.067500", "204536.527500", "204536.987500", "204537.447500", "204537.907500", "204538.367500", "204538.827500", "204539.287500", "204539.747500", "204540.207500", "204540.667500", "204541.127500", "204541.587500", "204542.047500", "204542.507500", "204542.967500", "204543.427500", "204543.887500", "204544.347500", "204544.807500", "204545.267500", "204545.727500", "204546.187500", "204546.647500", "204547.107500", "204547.567500", "204548.027500", "204548.487500", "204548.947500", "204549.407500", "204549.867500", "204550.327500", "204550.787500", "204551.247500", "204551.707500", "204552.167500", "204552.627500", "204553.087500", "204553.547500", "204554.007500", "204554.467500", "204554.927500", "204555.387500", "204555.847500", "204556.307500", "204556.767500", "204557.227500", "204557.687500", "204558.147500", "204558.607500", "204559.067500", "204559.527500", "204559.987500", "204600.447500", "204600.907500", "204601.367500", "204601.827500", "204602.287500", "204602.747500", "204603.207500", "204603.667500", "204604.127500", "204604.587500", "204605.047500", "204605.507500", "204605.967500", "204606.427500", "204606.887500", "204607.347500", "204607.807500", "204608.267500", "204608.727500", "204609.187500", "204609.647500", "204610.107500", "204610.567500", "204611.027500", "204611.487500", "204611.947500", "204612.407500", "204612.867500", "204613.327500", "204613.787500", "204614.247500", "204614.707500", "204615.167500", "204615.627500", "204616.087500", "204616.547500", "204617.007500", "204617.467500", "204617.927500", "204618.387500", "204618.847500", "204619.307500", "204619.767500", "204620.227500", "204620.687500", "204621.147500", "204621.607500", "204622.067500", "204622.527500", "204622.987500", "204623.447500", "204623.907500", "204624.367500", "204624.827500", "204625.287500", "204625.747500", "204626.207500", "204626.667500", "204627.127500", "204627.587500", "204628.047500", "204628.507500", "204628.967500", "204629.427500", "204629.887500", "204630.347500", "204630.807500", "204631.267500", "204631.727500", "204632.187500", "204632.647500", "204633.107500", "204633.567500", "204634.027500", "204634.487500", "204634.947500", "204635.407500", "204635.867500", "204636.327500", "204636.787500", "204637.247500", "204637.707500", "204638.167500", "204638.627500", "204639.087500", "204639.547500", "204640.007500", "204640.467500", "204640.927500", "204641.387500", "204641.847500", "204642.307500", "204642.767500", "204643.227500", "204643.687500", "204644.147500", "204644.607500", "204645.067500", "204645.527500", "204645.987500", "204646.447500", "204646.907500", "204647.367500", "204647.827500", "204648.287500", "204648.747500", "204649.207500", "204649.667500", "204650.127500", "204650.587500", "204651.047500", "204651.507500", "204651.967500", "204652.427500", "204652.887500", "204653.347500", "204653.807500", "204654.267500", "204654.727500", "204655.187500", "204655.647500", "204656.107500", "204656.567500", "204657.027500", "204657.487500", "204657.947500", "204658.407500", "204658.867500", "204659.327500", "204659.787500", "204700.247500", "204700.707500", "204701.167500", "204701.627500", "204702.087500", "204702.547500", "204703.007500", "204703.467500", "204703.927500", "204704.387500", "204704.847500", "204705.307500", "204705.767500", "204706.227500", "204706.687500", "204707.147500", "204707.607500", "204708.067500", "204708.527500", "204708.987500", "204709.447500", "204709.907500", "204710.367500", "204710.827500", "204711.287500", "204711.747500", "204712.207500", "204712.667500", "204713.127500", "204713.587500", "204714.047500", "204714.507500", "204714.967500", "204715.427500", "204715.887500", "204716.347500", "204716.807500", "204717.267500", "204717.727500", "204718.187500", "204718.647500", "204719.107500", "204719.567500", "204720.027500", "204720.487500", "204720.947500", "204721.407500", "204721.867500", "204722.327500", "204722.787500", "204723.247500", "204723.707500", "204724.167500", "204724.627500", "204725.087500", "204725.547500", "204726.007500", "204726.467500", "204726.927500", "204727.387500", "204727.847500", "204728.307500", "204728.767500", "204729.227500", "204729.687500", "204730.147500", "204730.607500", "204731.067500", "204731.527500", "204731.987500", "204732.447500", "204732.907500", "204733.367500", "204733.827500", "204734.287500", "204734.747500", "204735.207500", "204735.667500", "204736.127500", "204736.587500", "204737.047500", "204737.507500", "204737.967500", "204738.427500", "204738.887500", "204739.347500", "204739.807500", "204740.267500", "204740.727500", "204741.187500", "204741.647500", "204742.107500", "204742.567500", "204743.027500", "204743.487500", "204743.947500", "204744.407500", "204744.867500", "204745.327500", "204745.787500", "204746.247500", "204746.707500", "204747.167500", "204747.627500", "204748.087500", "204748.547500", "204749.007500", "204749.467500", "204749.927500", "204750.387500", "204750.847500", "204751.307500", "204751.767500", "204752.227500", "204752.687500", "204753.147500", "204753.607500", "204754.067500", "204754.527500", "204754.987500", "204755.447500", "204755.907500", "204756.367500", "204756.827500", "204757.287500", "204757.747500", "204758.207500", "204758.667500", "204759.127500", "204759.587500", "204800.047500", "204800.507500", "204800.967500", "204801.427500", "204801.887500", "204802.347500", "204802.807500", "204803.267500", "204803.727500", "204804.187500", "204804.647500", "204805.107500", "204805.567500", "204806.027500", "204806.487500", "204806.947500"],
