{
  "AcquisitionMatrixPE": 82,
  "AcquisitionNumber": 1,
  "AcquisitionTime": "09:58:37.420000",
  "BandwidthPerPixelPhaseEncode": 24.888,
  "BaseResolution": 82,
  "BodyPartExamined": "BRAIN",
  "ConsistencyInfo": "N4_VE11E_LATEST_20181129",
  "ConversionSoftware": "dcm2niix",
  "ConversionSoftwareVersion": "v1.0.20201102",
  "DerivedVendorReportedEchoSpacing": 0.00049,
  "DeviceSerialNumber": "66112",
  "DwellTime": 2e-06,
  "EchoTime": 0.0272,
  "EchoTrainLength": 82,
  "EffectiveEchoSpacing": 0.00049,
  "FlipAngle": 44,
  "ImageComments": "Unaliased MB8/PE3",
  "ImageOrientationPatientDICOM": [0.999458, 0.0178634, -0.0276564, -0.0170966, 0.99947, 0.0277193],
  "ImageType": [
    "ORIGINAL",
    "PRIMARY",
    "M",
    "MB",
    "ND",
    "NORM",
    "MOSAIC"
],
  "ImagingFrequency": 123.259,
  "InPlanePhaseEncodingDirectionDICOM": "COL",
  "InstitutionAddress": "Maynard 3,Hanover,NH,US,03755",
  "InstitutionName": "Dartmouth College - PBS",
  "InstitutionalDepartmentName": "Department",
  "MRAcquisitionType": "2D",
  "MagneticFieldStrength": 3,
  "Manufacturer": "Siemens",
  "ManufacturersModelName": "Prisma",
  "Modality": "MR",
  "MultibandAccelerationFactor": 8,
  "PartialFourier": 1,
  "PatientPosition": "HFS",
  "PercentPhaseFOV": 100,
  "PercentSampling": 100,
  "PhaseEncodingDirection": "j-",
  "PhaseEncodingSteps": 82,
  "PhaseResolution": 1,
  "PixelBandwidth": 3050,
  "ProcedureStepDescription": "Wager_Wager^1076_spacetop",
  "ProtocolName": "func_run-02_task-narratives_acq-ap-mb8",
  "PulseSequenceDetails": "%CustomerSeq%\\cmrr_mbep2d_bold",
  "ReceiveCoilActiveElements": "HEA;HEP",
  "ReceiveCoilName": "Head_32",
  "ReconMatrixPE": 82,
  "RepetitionTime": 0.46,
  "SAR": 0.114932,
  "ScanOptions": "FS",
  "ScanningSequence": "EP",
  "SequenceName": "epfid2d1_82",
  "SequenceVariant": "SK\\SS",
  "SeriesDescription": "func_run-02_task-narratives_acq-ap-mb8",
  "SeriesNumber": 10,
  "ShimSetting": [4223, -7742, -7238, 101, -120, -25, 48, 113],
  "SliceThickness": 2.7,
  "SliceTiming": [0, 0.2525, 0.0625, 0.315, 0.1275, 0.3775, 0.19, 0, 0.2525, 0.0625, 0.315, 0.1275, 0.3775, 0.19, 0, 0.2525, 0.0625, 0.315, 0.1275, 0.3775, 0.19, 0, 0.2525, 0.0625, 0.315, 0.1275, 0.3775, 0.19, 0, 0.2525, 0.0625, 0.315, 0.1275, 0.3775, 0.19, 0, 0.2525, 0.0625, 0.315, 0.1275, 0.3775, 0.19, 0, 0.2525, 0.0625, 0.315, 0.1275, 0.3775, 0.19, 0, 0.2525, 0.0625, 0.315, 0.1275, 0.3775, 0.19],
  "SoftwareVersions": "syngo MR E11",
  "SpacingBetweenSlices": 2.7,
  "StationName": "AWP66112",
  "TaskName": "narratives",
  "TotalReadoutTime": 0.03969,
  "TxRefAmp": 250.264,
  "WipMemBlock": "10095c84-2c41-49ea-8717-d82a15577c32||Sequence: R016 ve11e/master r/434b28f1; Aug  7 2019 18:53:46 by eja",
  "dcmmeta_affine": [
    [-2.6814723014831543, -0.045868922024965286, -0.0759696513414383, 114.55833435058594],
    [-0.04792625457048416, 2.6815037727355957, 0.07352492213249207, -78.0088882446289],
    [-0.07420013844966888, -0.07436887919902802, 2.6979293823242188, -67.23978424072266],
    [0.0, 0.0, 0.0, 1.0]
],
  "dcmmeta_reorient_transform": [
    [0.0, -1.0, 0.0, 81.0],
    [1.0, 0.0, 0.0, 0.0],
    [0.0, 0.0, 1.0, 0.0],
    [0.0, 0.0, 0.0, 1.0]
],
  "dcmmeta_shape": [82, 82, 56, 1098],
  "dcmmeta_slice_dim": 2,
  "dcmmeta_version": 0.6,
  "global": {
    "const": {
      "AccessionNumber": "A004825",
      "AcquisitionMatrix": [82, 0, 0, 82],
      "AngioFlag": "N",
      "BitsAllocated": 16,
      "BitsStored": 16,
      "BodyPartExamined": "BRAIN",
      "Columns": 656,
      "EchoNumbers": 1,
      "EchoTime": 27.2,
      "EchoTrainLength": 82,
      "FlipAngle": 44.0,
      "HighBit": 15,
      "ImageOrientationPatient": [0.99945786347106, 0.0178634214095, -0.0276564155563, -0.0170965973701, 0.99946953240104, 0.02771931024396],
      "ImagePositionPatient": [-867.26114815656, -922.53930419081, -73.312091711251],
      "ImageType": [
        "ORIGINAL",
        "PRIMARY",
        "M",
        "MB",
        "ND",
        "NORM",
        "MOSAIC"
],
      "ImagedNucleus": "1H",
      "ImagingFrequency": 123.259256,
      "InPlanePhaseEncodingDirection": "COL",
      "MRAcquisitionType": "2D",
      "MagneticFieldStrength": 3.0,
      "Manufacturer": "SIEMENS",
      "ManufacturerModelName": "Prisma",
      "Modality": "MR",
      "NumberOfAverages": 1.0,
      "NumberOfPhaseEncodingSteps": 82,
      "PercentPhaseFieldOfView": 100.0,
      "PercentSampling": 100.0,
      "PerformedProcedureStepStartTime": "093651.344000",
      "PhotometricInterpretation": "MONOCHROME2",
      "PixelBandwidth": 3050.0,
      "PixelRepresentation": 0,
      "PixelSpacing": [2.6829268932343, 2.6829268932343],
      "ProtocolName": "func_run-02_task-narratives_acq-ap-mb8",
      "RepetitionTime": 460.0,
      "Rows": 656,
      "SAR": 0.11493193771673,
      "SamplesPerPixel": 1,
      "ScanOptions": "FS",
      "ScanningSequence": "EP",
      "SequenceName": "epfid2d1_82",
      "SequenceVariant": [
        "SK",
        "SS"
],
      "SeriesDescription": "func_run-02_task-narratives_acq-ap-mb8",
      "SeriesNumber": 10,
      "SeriesTime": "095850.813000",
      "SliceLocation": -72.535828743877,
      "SliceThickness": 2.7000000476837,
      "SmallestImagePixelValue": 0,
      "SoftwareVersions": "syngo MR E11",
      "SpacingBetweenSlices": 2.7000000470764,
      "SpecificCharacterSet": "ISO_IR 100",
      "StudyID": "2",
      "StudyTime": "093651.267000",
      "TransmitCoilName": "Body",
      "VariableFlipAngleFlag": "N",
      "WindowCenterWidthExplanation": "Algo1"
    },
    "slices": {}
  },
  "time": {
    "samples": {
      "AcquisitionNumber": [1, 2, 3, 4, 5, 6, 7, 8, 9, 10, 11, 12, 13, 14, 15, 16, 17, 18, 19, 20, 21, 22, 23, 24, 25, 26, 27, 28, 29, 30, 31, 32, 33, 34, 35, 36, 37, 38, 39, 40, 41, 42, 43, 44, 45, 46, 47, 48, 49, 50, 51, 52, 53, 54, 55, 56, 57, 58, 59, 60, 61, 62, 63, 64, 65, 66, 67, 68, 69, 70, 71, 72, 73, 74, 75, 76, 77, 78, 79, 80, 81, 82, 83, 84, 85, 86, 87, 88, 89, 90, 91, 92, 93, 94, 95, 96, 97, 98, 99, 100, 101, 102, 103, 104, 105, 106, 107, 108, 109, 110, 111, 112, 113, 114, 115, 116, 117, 118, 119, 120, 121, 122, 123, 124, 125, 126, 127, 128, 129, 130, 131, 132, 133, 134, 135, 136, 137, 138, 139, 140, 141, 142, 143, 144, 145, 146, 147, 148, 149, 150, 151, 152, 153, 154, 155, 156, 157, 158, 159, 160, 161, 162, 163, 164, 165, 166, 167, 168, 169, 170, 171, 172, 173, 174, 175, 176, 177, 178, 179, 180, 181, 182, 183, 184, 185, 186, 187, 188, 189, 190, 191, 192, 193, 194, 195, 196, 197, 198, 199, 200, 201, 202, 203, 204, 205, 206, 207, 208, 209, 210, 211, 212, 213, 214, 215, 216, 217, 218, 219, 220, 221, 222, 223, 224, 225, 226, 227, 228, 229, 230, 231, 232, 233, 234, 235, 236, 237, 238, 239, 240, 241, 242, 243, 244, 245, 246, 247, 248, 249, 250, 251, 252, 253, 254, 255, 256, 257, 258, 259, 260, 261, 262, 263, 264, 265, 266, 267, 268, 269, 270, 271, 272, 273, 274, 275, 276, 277, 278, 279, 280, 281, 282, 283, 284, 285, 286, 287, 288, 289, 290, 291, 292, 293, 294, 295, 296, 297, 298, 299, 300, 301, 302, 303, 304, 305, 306, 307, 308, 309, 310, 311, 312, 313, 314, 315, 316, 317, 318, 319, 320, 321, 322, 323, 324, 325, 326, 327, 328, 329, 330, 331, 332, 333, 334, 335, 336, 337, 338, 339, 340, 341, 342, 343, 344, 345, 346, 347, 348, 349, 350, 351, 352, 353, 354, 355, 356, 357, 358, 359, 360, 361, 362, 363, 364, 365, 366, 367, 368, 369, 370, 371, 372, 373, 374, 375, 376, 377, 378, 379, 380, 381, 382, 383, 384, 385, 386, 387, 388, 389, 390, 391, 392, 393, 394, 395, 396, 397, 398, 399, 400, 401, 402, 403, 404, 405, 406, 407, 408, 409, 410, 411, 412, 413, 414, 415, 416, 417, 418, 419, 420, 421, 422, 423, 424, 425, 426, 427, 428, 429, 430, 431, 432, 433, 434, 435, 436, 437, 438, 439, 440, 441, 442, 443, 444, 445, 446, 447, 448, 449, 450, 451, 452, 453, 454, 455, 456, 457, 458, 459, 460, 461, 462, 463, 464, 465, 466, 467, 468, 469, 470, 471, 472, 473, 474, 475, 476, 477, 478, 479, 480, 481, 482, 483, 484, 485, 486, 487, 488, 489, 490, 491, 492, 493, 494, 495, 496, 497, 498, 499, 500, 501, 502, 503, 504, 505, 506, 507, 508, 509, 510, 511, 512, 513, 514, 515, 516, 517, 518, 519, 520, 521, 522, 523, 524, 525, 526, 527, 528, 529, 530, 531, 532, 533, 534, 535, 536, 537, 538, 539, 540, 541, 542, 543, 544, 545, 546, 547, 548, 549, 550, 551, 552, 553, 554, 555, 556, 557, 558, 559, 560, 561, 562, 563, 564, 565, 566, 567, 568, 569, 570, 571, 572, 573, 574, 575, 576, 577, 578, 579, 580, 581, 582, 583, 584, 585, 586, 587, 588, 589, 590, 591, 592, 593, 594, 595, 596, 597, 598, 599, 600, 601, 602, 603, 604, 605, 606, 607, 608, 609, 610, 611, 612, 613, 614, 615, 616, 617, 618, 619, 620, 621, 622, 623, 624, 625, 626, 627, 628, 629, 630, 631, 632, 633, 634, 635, 636, 637, 638, 639, 640, 641, 642, 643, 644, 645, 646, 647, 648, 649, 650, 651, 652, 653, 654, 655, 656, 657, 658, 659, 660, 661, 662, 663, 664, 665, 666, 667, 668, 669, 670, 671, 672, 673, 674, 675, 676, 677, 678, 679, 680, 681, 682, 683, 684, 685, 686, 687, 688, 689, 690, 691, 692, 693, 694, 695, 696, 697, 698, 699, 700, 701, 702, 703, 704, 705, 706, 707, 708, 709, 710, 711, 712, 713, 714, 715, 716, 717, 718, 719, 720, 721, 722, 723, 724, 725, 726, 727, 728, 729, 730, 731, 732, 733, 734, 735, 736, 737, 738, 739, 740, 741, 742, 743, 744, 745, 746, 747, 748, 749, 750, 751, 752, 753, 754, 755, 756, 757, 758, 759, 760, 761, 762, 763, 764, 765, 766, 767, 768, 769, 770, 771, 772, 773, 774, 775, 776, 777, 778, 779, 780, 781, 782, 783, 784, 785, 786, 787, 788, 789, 790, 791, 792, 793, 794, 795, 796, 797, 798, 799, 800, 801, 802, 803, 804, 805, 806, 807, 808, 809, 810, 811, 812, 813, 814, 815, 816, 817, 818, 819, 820, 821, 822, 823, 824, 825, 826, 827, 828, 829, 830, 831, 832, 833, 834, 835, 836, 837, 838, 839, 840, 841, 842, 843, 844, 845, 846, 847, 848, 849, 850, 851, 852, 853, 854, 855, 856, 857, 858, 859, 860, 861, 862, 863, 864, 865, 866, 867, 868, 869, 870, 871, 872, 873, 874, 875, 876, 877, 878, 879, 880, 881, 882, 883, 884, 885, 886, 887, 888, 889, 890, 891, 892, 893, 894, 895, 896, 897, 898, 899, 900, 901, 902, 903, 904, 905, 906, 907, 908, 909, 910, 911, 912, 913, 914, 915, 916, 917, 918, 919, 920, 921, 922, 923, 924, 925, 926, 927, 928, 929, 930, 931, 932, 933, 934, 935, 936, 937, 938, 939, 940, 941, 942, 943, 944, 945, 946, 947, 948, 949, 950, 951, 952, 953, 954, 955, 956, 957, 958, 959, 960, 961, 962, 963, 964, 965, 966, 967, 968, 969, 970, 971, 972, 973, 974, 975, 976, 977, 978, 979, 980, 981, 982, 983, 984, 985, 986, 987, 988, 989, 990, 991, 992, 993, 994, 995, 996, 997, 998, 999, 1000, 1001, 1002, 1003, 1004, 1005, 1006, 1007, 1008, 1009, 1010, 1011, 1012, 1013, 1014, 1015, 1016, 1017, 1018, 1019, 1020, 1021, 1022, 1023, 1024, 1025, 1026, 1027, 1028, 1029, 1030, 1031, 1032, 1033, 1034, 1035, 1036, 1037, 1038, 1039, 1040, 1041, 1042, 1043, 1044, 1045, 1046, 1047, 1048, 1049, 1050, 1051, 1052, 1053, 1054, 1055, 1056, 1057, 1058, 1059, 1060, 1061, 1062, 1063, 1064, 1065, 1066, 1067, 1068, 1069, 1070, 1071, 1072, 1073, 1074, 1075, 1076, 1077, 1078, 1079, 1080, 1081, 1082, 1083, 1084, 1085, 1086, 1087, 1088, 1089, 1090, 1091, 1092, 1093, 1094, 1095, 1096, 1097, 1098],
      "AcquisitionTime": ["095837.420000", "095837.880000", "095838.340000", "095838.800000", "095839.260000", "095839.720000", "095840.180000", "095840.640000", "095841.100000", "095841.560000", "095842.020000", "095842.480000", "095842.940000", "095843.400000", "095843.860000", "095844.320000", "095844.780000", "095845.240000", "095845.700000", "095846.160000", "095846.620000", "095847.080000", "095847.540000", "095848.000000", "095848.460000", "095848.920000", "095849.380000", "095849.840000", "095850.300000", "095850.760000", "095851.220000", "095851.680000", "095852.140000", "095852.600000", "095853.060000", "095853.520000", "095853.980000", "095854.440000", "095854.900000", "095855.360000", "095855.820000", "095856.280000", "095856.740000", "095857.200000", "095857.660000", "095858.120000", "095858.580000", "095859.040000", "095859.500000", "095859.960000", "095900.420000", "095900.880000", "095901.340000", "095901.800000", "095902.260000", "095902.720000", "095903.180000", "095903.640000", "095904.100000", "095904.560000", "095905.020000", "095905.480000", "095905.940000", "095906.400000", "095906.860000", "095907.320000", "095907.780000", "095908.240000", "095908.700000", "095909.160000", "095909.620000", "095910.080000", "095910.540000", "095911.000000", "095911.460000", "095911.920000", "095912.380000", "095912.840000", "095913.300000", "095913.760000", "095914.220000", "095914.680000", "095915.140000", "095915.600000", "095916.060000", "095916.520000", "095916.980000", "095917.440000", "095917.900000", "095918.360000", "095918.820000", "095919.280000", "095919.740000", "095920.200000", "095920.660000", "095921.120000", "095921.580000", "095922.040000", "095922.500000", "095922.960000", "095923.420000", "095923.880000", "095924.340000", "095924.800000", "095925.260000", "095925.720000", "095926.180000", "095926.640000", "095927.100000", "095927.560000", "095928.020000", "095928.480000", "095928.940000", "095929.400000", "095929.860000", "095930.320000", "095930.780000", "095931.240000", "095931.700000", "095932.160000", "095932.620000", "095933.080000", "095933.540000", "095934.000000", "095934.460000", "095934.920000", "095935.380000", "095935.840000", "095936.300000", "095936.760000", "095937.220000", "095937.680000", "095938.140000", "095938.600000", "095939.060000", "095939.520000", "095939.980000", "095940.440000", "095940.900000", "095941.360000", "095941.820000", "095942.280000", "095942.740000", "095943.200000", "095943.660000", "095944.120000", "095944.580000", "095945.040000", "095945.500000", "095945.960000", "095946.420000", "095946.880000", "095947.340000", "095947.800000", "095948.260000", "095948.720000", "095949.180000", "095949.640000", "095950.100000", "095950.560000", "095951.020000", "095951.480000", "095951.940000", "095952.400000", "095952.860000", "095953.320000", "095953.780000", "095954.240000", "095954.700000", "095955.160000", "095955.620000", "095956.080000", "095956.540000", "095957.000000", "095957.460000", "095957.920000", "095958.380000", "095958.840000", "095959.300000", "095959.760000", "100000.220000", "100000.680000", "100001.140000", "100001.600000", "100002.060000", "100002.520000", "100002.980000", "100003.440000", "100003.900000", "100004.360000", "100004.820000", "100005.280000", "100005.740000", "100006.200000", "100006.660000", "100007.120000", "100007.580000", "100008.040000", "100008.500000", "100008.960000", "100009.420000", "100009.880000", "100010.340000", "100010.800000", "100011.260000", "100011.720000", "100012.180000", "100012.640000", "100013.100000", "100013.560000", "100014.020000", "100014.480000", "100014.940000", "100015.400000", "100015.860000", "100016.320000", "100016.780000", "100017.240000", "100017.700000", "100018.160000", "100018.620000", "100019.080000", "100019.540000", "100020.000000", "100020.460000", "100020.920000", "100021.380000", "100021.840000", "100022.300000", "100022.760000", "100023.220000", "100023.680000", "100024.140000", "100024.600000", "100025.060000", "100025.520000", "100025.980000", "100026.440000", "100026.900000", "100027.360000", "100027.820000", "100028.280000", "100028.740000", "100029.200000", "100029.660000", "100030.120000", "100030.580000", "100031.040000", "100031.500000", "100031.960000", "100032.420000", "100032.880000", "100033.340000", "100033.800000", "100034.260000", "100034.720000", "100035.180000", "100035.640000", "100036.100000", "100036.560000", "100037.020000", "100037.480000", "100037.940000", "100038.400000", "100038.860000", "100039.320000", "100039.780000", "100040.240000", "100040.700000", "100041.160000", "100041.620000", "100042.080000", "100042.540000", "100043.000000", "100043.460000", "100043.920000", "100044.380000", "100044.840000", "100045.300000", "100045.760000", "100046.220000", "100046.680000", "100047.140000", "100047.600000", "100048.060000", "100048.520000", "100048.980000", "100049.440000", "100049.900000", "100050.360000", "100050.820000", "100051.280000", "100051.740000", "100052.200000", "100052.660000", "100053.120000", "100053.580000", "100054.040000", "100054.500000", "100054.960000", "100055.420000", "100055.880000", "100056.340000", "100056.800000", "100057.260000", "100057.720000", "100058.180000", "100058.640000", "100059.100000", "100059.560000", "100100.020000", "100100.480000", "100100.940000", "100101.400000", "100101.860000", "100102.320000", "100102.780000", "100103.240000", "100103.700000", "100104.160000", "100104.620000", "100105.080000", "100105.540000", "100106.000000", "100106.460000", "100106.920000", "100107.380000", "100107.840000", "100108.300000", "100108.760000", "100109.220000", "100109.680000", "100110.140000", "100110.600000", "100111.060000", "100111.520000", "100111.980000", "100112.440000", "100112.900000", "100113.360000", "100113.820000", "100114.280000", "100114.740000", "100115.200000", "100115.660000", "100116.120000", "100116.580000", "100117.040000", "100117.500000", "100117.960000", "100118.420000", "100118.880000", "100119.340000", "100119.800000", "100120.260000", "100120.720000", "100121.180000", "100121.640000", "100122.100000", "100122.560000", "100123.020000", "100123.480000", "100123.940000", "100124.400000", "100124.860000", "100125.320000", "100125.780000", "100126.240000", "100126.700000", "100127.160000", "100127.620000", "100128.080000", "100128.540000", "100129.000000", "100129.460000", "100129.920000", "100130.380000", "100130.840000", "100131.300000", "100131.760000", "100132.220000", "100132.680000", "100133.140000", "100133.600000", "100134.060000", "100134.520000", "100134.980000", "100135.440000", "100135.900000", "100136.360000", "100136.820000", "100137.280000", "100137.740000", "100138.200000", "100138.660000", "100139.120000", "100139.580000", "100140.040000", "100140.500000", "100140.960000", "100141.420000", "100141.880000", "100142.340000", "100142.800000", "100143.260000", "100143.720000", "100144.180000", "100144.640000", "100145.100000", "100145.560000", "100146.020000", "100146.480000", "100146.940000", "100147.400000", "100147.860000", "100148.320000", "100148.780000", "100149.240000", "100149.700000", "100150.160000", "100150.620000", "100151.080000", "100151.540000", "100152.000000", "100152.460000", "100152.920000", "100153.380000", "100153.840000", "100154.300000", "100154.760000", "100155.220000", "100155.680000", "100156.140000", "100156.600000", "100157.060000", "100157.520000", "100157.980000", "100158.440000", "100158.900000", "100159.360000", "100159.820000", "100200.280000", "100200.740000", "100201.200000", "100201.660000", "100202.120000", "100202.580000", "100203.040000", "100203.500000", "100203.960000", "100204.420000", "100204.880000", "100205.340000", "100205.800000", "100206.260000", "100206.720000", "100207.180000", "100207.640000", "100208.100000", "100208.560000", "100209.020000", "100209.480000", "100209.940000", "100210.400000", "100210.860000", "100211.320000", "100211.780000", "100212.240000", "100212.700000", "100213.160000", "100213.620000", "100214.080000", "100214.540000", "100215.000000", "100215.460000", "100215.920000", "100216.380000", "100216.840000", "100217.300000", "100217.760000", "100218.220000", "100218.680000", "100219.140000", "100219.600000", "100220.060000", "100220.520000", "100220.980000", "100221.440000", "100221.900000", "100222.360000", "100222.820000", "100223.280000", "100223.740000", "100224.200000", "100224.660000", "100225.120000", "100225.580000", "100226.040000", "100226.500000", "100226.960000", "100227.420000", "100227.880000", "100228.340000", "100228.800000", "100229.260000", "100229.720000", "100230.180000", "100230.640000", "100231.100000", "100231.560000", "100232.020000", "100232.480000", "100232.940000", "100233.400000", "100233.860000", "100234.320000", "100234.780000", "100235.240000", "100235.700000", "100236.160000", "100236.620000", "100237.080000", "100237.540000", "100238.000000", "100238.460000", "100238.920000", "100239.380000", "100239.840000", "100240.300000", "100240.760000", "100241.220000", "100241.680000", "100242.140000", "100242.600000", "100243.060000", "100243.520000", "100243.980000", "100244.440000", "100244.900000", "100245.360000", "100245.820000", "100246.280000", "100246.740000", "100247.200000", "100247.660000", "100248.120000", "100248.580000", "100249.040000", "100249.500000", "100249.960000", "100250.420000", "100250.880000", "100251.340000", "100251.800000", "100252.260000", "100252.720000", "100253.180000", "100253.640000", "100254.100000", "100254.560000", "100255.020000", "100255.480000", "100255.940000", "100256.400000", "100256.860000", "100257.320000", "100257.780000", "100258.240000", "100258.700000", "100259.160000", "100259.620000", "100300.080000", "100300.540000", "100301.000000", "100301.460000", "100301.920000", "100302.380000", "100302.840000", "100303.300000", "100303.760000", "100304.220000", "100304.680000", "100305.140000", "100305.600000", "100306.060000", "100306.520000", "100306.980000", "100307.440000", "100307.900000", "100308.360000", "100308.820000", "100309.280000", "100309.740000", "100310.200000", "100310.660000", "100311.120000", "100311.580000", "100312.040000", "100312.500000", "100312.960000", "100313.420000", "100313.880000", "100314.340000", "100314.800000", "100315.260000", "100315.720000", "100316.180000", "100316.640000", "100317.100000", "100317.560000", "100318.020000", "100318.480000", "100318.940000", "100319.400000", "100319.860000", "100320.320000", "100320.780000", "100321.240000", "100321.700000", "100322.160000", "100322.620000", "100323.080000", "100323.540000", "100324.000000", "100324.460000", "100324.920000", "100325.380000", "100325.840000", "100326.300000", "100326.760000", "100327.220000", "100327.680000", "100328.140000", "100328.600000", "100329.060000", "100329.520000", "100329.980000", "100330.440000", "100330.900000", "100331.360000", "100331.820000", "100332.280000", "100332.740000", "100333.200000", "100333.660000", "100334.120000", "100334.580000", "100335.040000", "100335.500000", "100335.960000", "100336.420000", "100336.880000", "100337.340000", "100337.800000", "100338.260000", "100338.720000", "100339.180000", "100339.640000", "100340.100000", "100340.560000", "100341.020000", "100341.480000", "100341.940000", "100342.400000", "100342.860000", "100343.320000", "100343.780000", "100344.240000", "100344.700000", "100345.160000", "100345.620000", "100346.080000", "100346.540000", "100347.000000", "100347.460000", "100347.920000", "100348.380000", "100348.840000", "100349.300000", "100349.760000", "100350.220000", "100350.680000", "100351.140000", "100351.600000", "100352.060000", "100352.520000", "100352.980000", "100353.440000", "100353.900000", "100354.360000", "100354.820000", "100355.280000", "100355.740000", "100356.200000", "100356.660000", "100357.120000", "100357.580000", "100358.040000", "100358.500000", "100358.960000", "100359.420000", "100359.880000", "100400.340000", "100400.800000", "100401.260000", "100401.720000", "100402.180000", "100402.640000", "100403.100000", "100403.560000", "100404.020000", "100404.480000", "100404.940000", "100405.400000", "100405.860000", "100406.320000", "100406.780000", "100407.240000", "100407.700000", "100408.160000", "100408.620000", "100409.080000", "100409.540000", "100410.000000", "100410.460000", "100410.920000", "100411.380000", "100411.840000", "100412.300000", "100412.760000", "100413.220000", "100413.680000", "100414.140000", "100414.600000", "100415.060000", "100415.520000", "100415.980000", "100416.440000", "100416.900000", "100417.360000", "100417.820000", "100418.280000", "100418.740000", "100419.200000", "100419.660000", "100420.120000", "100420.580000", "100421.040000", "100421.500000", "100421.960000", "100422.420000", "100422.880000", "100423.340000", "100423.800000", "100424.260000", "100424.720000", "100425.180000", "100425.640000", "100426.100000", "100426.560000", "100427.020000", "100427.480000", "100427.940000", "100428.400000", "100428.860000", "100429.320000", "100429.780000", "100430.240000", "100430.700000", "100431.160000", "100431.620000", "100432.080000", "100432.540000", "100433.000000", "100433.460000", "100433.920000", "100434.380000", "100434.840000", "100435.300000", "100435.760000", "100436.220000", "100436.680000", "100437.140000", "100437.600000", "100438.060000", "100438.520000", "100438.980000", "100439.440000", "100439.900000", "100440.360000", "100440.820000", "100441.280000", "100441.740000", "100442.200000", "100442.660000", "100443.120000", "100443.580000", "100444.040000", "100444.500000", "100444.960000", "100445.420000", "100445.880000", "100446.340000", "100446.800000", "100447.260000", "100447.720000", "100448.180000", "100448.640000", "100449.100000", "100449.560000", "100450.020000", "100450.480000", "100450.940000", "100451.400000", "100451.860000", "100452.320000", "100452.780000", "100453.240000", "100453.700000", "100454.160000", "100454.620000", "100455.080000", "100455.540000", "100456.000000", "100456.460000", "100456.920000", "100457.380000", "100457.840000", "100458.300000", "100458.760000", "100459.220000", "100459.680000", "100500.140000", "100500.600000", "100501.060000", "100501.520000", "100501.980000", "100502.440000", "100502.900000", "100503.360000", "100503.820000", "100504.280000", "100504.740000", "100505.200000", "100505.660000", "100506.120000", "100506.580000", "100507.040000", "100507.500000", "100507.960000", "100508.420000", "100508.880000", "100509.340000", "100509.800000", "100510.260000", "100510.720000", "100511.180000", "100511.640000", "100512.100000", "100512.560000", "100513.020000", "100513.480000", "100513.940000", "100514.400000", "100514.860000", "100515.320000", "100515.780000", "100516.240000", "100516.700000", "100517.160000", "100517.620000", "100518.080000", "100518.540000", "100519.000000", "100519.460000", "100519.920000", "100520.380000", "100520.840000", "100521.300000", "100521.760000", "100522.220000", "100522.680000", "100523.140000", "100523.600000", "100524.060000", "100524.520000", "100524.980000", "100525.440000", "100525.900000", "100526.360000", "100526.820000", "100527.280000", "100527.740000", "100528.200000", "100528.660000", "100529.120000", "100529.580000", "100530.040000", "100530.500000", "100530.960000", "100531.420000", "100531.880000", "100532.340000", "100532.800000", "100533.260000", "100533.720000", "100534.180000", "100534.640000", "100535.100000", "100535.560000", "100536.020000", "100536.480000", "100536.940000", "100537.400000", "100537.860000", "100538.320000", "100538.780000", "100539.240000", "100539.700000", "100540.160000", "100540.620000", "100541.080000", "100541.540000", "100542.000000", "100542.460000", "100542.920000", "100543.380000", "100543.840000", "100544.300000", "100544.760000", "100545.220000", "100545.680000", "100546.140000", "100546.600000", "100547.060000", "100547.520000", "100547.980000", "100548.440000", "100548.900000", "100549.360000", "100549.820000", "100550.280000", "100550.740000", "100551.200000", "100551.660000", "100552.120000", "100552.580000", "100553.040000", "100553.500000", "100553.960000", "100554.420000", "100554.880000", "100555.340000", "100555.800000", "100556.260000", "100556.720000", "100557.180000", "100557.640000", "100558.100000", "100558.560000", "100559.020000", "100559.480000", "100559.940000", "100600.400000", "100600.860000", "100601.320000", "100601.780000", "100602.240000", "100602.700000", "100603.160000", "100603.620000", "100604.080000", "100604.540000", "100605.000000", "100605.460000", "100605.920000", "100606.380000", "100606.840000", "100607.300000", "100607.760000", "100608.220000", "100608.680000", "100609.140000", "100609.600000", "100610.060000", "100610.520000", "100610.980000", "100611.440000", "100611.900000", "100612.360000", "100612.820000", "100613.280000", "100613.740000", "100614.200000", "100614.660000", "100615.120000", "100615.580000", "100616.040000", "100616.500000", "100616.960000", "100617.420000", "100617.880000", "100618.340000", "100618.800000", "100619.260000", "100619.720000", "100620.180000", "100620.640000", "100621.100000", "100621.560000", "100622.020000", "100622.480000", "100622.940000", "100623.400000", "100623.860000", "100624.320000", "100624.780000", "100625.240000", "100625.700000", "100626.160000", "100626.620000", "100627.080000", "100627.540000", "100628.000000", "100628.460000", "100628.920000", "100629.380000", "100629.840000", "100630.300000", "100630.760000", "100631.220000", "100631.680000", "100632.140000", "100632.600000", "100633.060000", "100633.520000", "100633.980000", "100634.440000", "100634.900000", "100635.360000", "100635.820000", "100636.280000", "100636.740000", "100637.200000", "100637.660000", "100638.120000", "100638.580000", "100639.040000", "100639.500000", "100639.960000", "100640.420000", "100640.880000", "100641.340000", "100641.800000", "100642.260000", "100642.720000", "100643.180000", "100643.640000", "100644.100000", "100644.560000", "100645.020000", "100645.480000", "100645.940000", "100646.400000", "100646.860000", "100647.320000", "100647.780000", "100648.240000", "100648.700000", "100649.160000", "100649.620000", "100650.080000", "100650.540000", "100651.000000", "100651.460000", "100651.920000", "100652.380000", "100652.840000", "100653.300000", "100653.760000", "100654.220000", "100654.680000", "100655.140000", "100655.600000", "100656.060000", "100656.520000", "100656.980000", "100657.440000", "100657.900000", "100658.360000", "100658.820000", "100659.280000", "100659.740000", "100700.200000", "100700.660000", "100701.120000", "100701.580000", "100702.040000"],
