{
  "AcquisitionMatrixPE": 82,
  "AcquisitionNumber": 1,
  "AcquisitionTime": "10:29:19.625000",
  "BandwidthPerPixelPhaseEncode": 24.888,
  "BaseResolution": 82,
  "BodyPartExamined": "BRAIN",
  "ConsistencyInfo": "N4_VE11E_LATEST_20181129",
  "ConversionSoftware": "dcm2niix",
  "ConversionSoftwareVersion": "v1.0.20201102",
  "DerivedVendorReportedEchoSpacing": 0.00049,
  "DeviceSerialNumber": "66112",
  "DwellTime": 2e-06,
  "EchoTime": 0.0272,
  "EchoTrainLength": 82,
  "EffectiveEchoSpacing": 0.00049,
  "FlipAngle": 44,
  "ImageComments": "Unaliased MB8/PE3",
  "ImageOrientationPatientDICOM": [0.999458, 0.0178634, -0.0276564, -0.0170966, 0.99947, 0.0277193],
  "ImageType": [
    "ORIGINAL",
    "PRIMARY",
    "M",
    "MB",
    "ND",
    "NORM",
    "MOSAIC"
],
  "ImagingFrequency": 123.259,
  "InPlanePhaseEncodingDirectionDICOM": "COL",
  "InstitutionAddress": "Maynard 3,Hanover,NH,US,03755",
  "InstitutionName": "Dartmouth College - PBS",
  "InstitutionalDepartmentName": "Department",
  "MRAcquisitionType": "2D",
  "MagneticFieldStrength": 3,
  "Manufacturer": "Siemens",
  "ManufacturersModelName": "Prisma",
  "Modality": "MR",
  "MultibandAccelerationFactor": 8,
  "PartialFourier": 1,
  "PatientPosition": "HFS",
  "PercentPhaseFOV": 100,
  "PercentSampling": 100,
  "PhaseEncodingDirection": "j-",
  "PhaseEncodingSteps": 82,
  "PhaseResolution": 1,
  "PixelBandwidth": 3050,
  "ProcedureStepDescription": "Wager_Wager^1076_spacetop",
  "ProtocolName": "func_run-01_task-faces_acq-ap-mb8",
  "PulseSequenceDetails": "%CustomerSeq%\\cmrr_mbep2d_bold",
  "ReceiveCoilActiveElements": "HEA;HEP",
  "ReceiveCoilName": "Head_32",
  "ReconMatrixPE": 82,
  "RepetitionTime": 0.46,
  "SAR": 0.114818,
  "ScanOptions": "FS",
  "ScanningSequence": "EP",
  "SequenceName": "epfid2d1_82",
  "SequenceVariant": "SK\\SS",
  "SeriesDescription": "func_run-01_task-faces_acq-ap-mb8",
  "SeriesNumber": 16,
  "ShimSetting": [4223, -7742, -7238, 101, -120, -25, 48, 113],
  "SliceThickness": 2.7,
  "SliceTiming": [0, 0.2525, 0.0625, 0.315, 0.125, 0.3775, 0.1875, 0, 0.2525, 0.0625, 0.315, 0.125, 0.3775, 0.1875, 0, 0.2525, 0.0625, 0.315, 0.125, 0.3775, 0.1875, 0, 0.2525, 0.0625, 0.315, 0.125, 0.3775, 0.1875, 0, 0.2525, 0.0625, 0.315, 0.125, 0.3775, 0.1875, 0, 0.2525, 0.0625, 0.315, 0.125, 0.3775, 0.1875, 0, 0.2525, 0.0625, 0.315, 0.125, 0.3775, 0.1875, 0, 0.2525, 0.0625, 0.315, 0.125, 0.3775, 0.1875],
  "SoftwareVersions": "syngo MR E11",
  "SpacingBetweenSlices": 2.7,
  "StationName": "AWP66112",
  "TaskName": "faces",
  "TotalReadoutTime": 0.03969,
  "TxRefAmp": 250.264,
  "WipMemBlock": "7e18b97b-8ef5-4aef-8016-d82c6953999e||Sequence: R016 ve11e/master r/434b28f1; Aug  7 2019 18:53:46 by eja",
  "dcmmeta_affine": [
    [-2.6814723014831543, -0.045868922024965286, -0.0759696513414383, 114.55833435058594],
    [-0.04792625457048416, 2.6815037727355957, 0.07352492213249207, -78.0088882446289],
    [-0.07420013844966888, -0.07436887919902802, 2.6979293823242188, -67.23978424072266],
    [0.0, 0.0, 0.0, 1.0]
],
  "dcmmeta_reorient_transform": [
    [0.0, -1.0, 0.0, 81.0],
    [1.0, 0.0, 0.0, 0.0],
    [0.0, 0.0, 1.0, 0.0],
    [0.0, 0.0, 0.0, 1.0]
],
  "dcmmeta_shape": [82, 82, 56, 914],
  "dcmmeta_slice_dim": 2,
  "dcmmeta_version": 0.6,
  "global": {
    "const": {
      "AccessionNumber": "A004825",
      "AcquisitionMatrix": [82, 0, 0, 82],
      "AngioFlag": "N",
      "BitsAllocated": 16,
      "BitsStored": 16,
      "BodyPartExamined": "BRAIN",
      "Columns": 656,
      "EchoNumbers": 1,
      "EchoTime": 27.2,
      "EchoTrainLength": 82,
      "FlipAngle": 44.0,
      "HighBit": 15,
      "ImageOrientationPatient": [0.99945786347106, 0.0178634214095, -0.0276564155563, -0.0170965973701, 0.99946953240104, 0.02771931024396],
      "ImagePositionPatient": [-867.26114815656, -922.53930419081, -73.312091711251],
      "ImageType": [
        "ORIGINAL",
        "PRIMARY",
        "M",
        "MB",
        "ND",
        "NORM",
        "MOSAIC"
],
      "ImagedNucleus": "1H",
      "ImagingFrequency": 123.259271,
      "InPlanePhaseEncodingDirection": "COL",
      "MRAcquisitionType": "2D",
      "MagneticFieldStrength": 3.0,
      "Manufacturer": "SIEMENS",
      "ManufacturerModelName": "Prisma",
      "Modality": "MR",
      "NumberOfAverages": 1.0,
      "NumberOfPhaseEncodingSteps": 82,
      "PercentPhaseFieldOfView": 100.0,
      "PercentSampling": 100.0,
      "PerformedProcedureStepStartTime": "093651.344000",
      "PhotometricInterpretation": "MONOCHROME2",
      "PixelBandwidth": 3050.0,
      "PixelRepresentation": 0,
      "PixelSpacing": [2.6829268932343, 2.6829268932343],
      "ProtocolName": "func_run-01_task-faces_acq-ap-mb8",
      "RepetitionTime": 460.0,
      "Rows": 656,
      "SAR": 0.11481757158582,
      "SamplesPerPixel": 1,
      "ScanOptions": "FS",
      "ScanningSequence": "EP",
      "SequenceName": "epfid2d1_82",
      "SequenceVariant": [
        "SK",
        "SS"
],
      "SeriesDescription": "func_run-01_task-faces_acq-ap-mb8",
      "SeriesNumber": 16,
      "SeriesTime": "102930.826000",
      "SliceLocation": -72.535828743877,
      "SliceThickness": 2.7000000476837,
      "SmallestImagePixelValue": 0,
      "SoftwareVersions": "syngo MR E11",
      "SpacingBetweenSlices": 2.7000000470764,
      "SpecificCharacterSet": "ISO_IR 100",
      "StudyID": "2",
      "StudyTime": "093651.267000",
      "TransmitCoilName": "Body",
      "VariableFlipAngleFlag": "N",
      "WindowCenterWidthExplanation": "Algo1"
    },
    "slices": {}
  },
  "time": {
    "samples": {
      "AcquisitionNumber": [1, 2, 3, 4, 5, 6, 7, 8, 9, 10, 11, 12, 13, 14, 15, 16, 17, 18, 19, 20, 21, 22, 23, 24, 25, 26, 27, 28, 29, 30, 31, 32, 33, 34, 35, 36, 37, 38, 39, 40, 41, 42, 43, 44, 45, 46, 47, 48, 49, 50, 51, 52, 53, 54, 55, 56, 57, 58, 59, 60, 61, 62, 63, 64, 65, 66, 67, 68, 69, 70, 71, 72, 73, 74, 75, 76, 77, 78, 79, 80, 81, 82, 83, 84, 85, 86, 87, 88, 89, 90, 91, 92, 93, 94, 95, 96, 97, 98, 99, 100, 101, 102, 103, 104, 105, 106, 107, 108, 109, 110, 111, 112, 113, 114, 115, 116, 117, 118, 119, 120, 121, 122, 123, 124, 125, 126, 127, 128, 129, 130, 131, 132, 133, 134, 135, 136, 137, 138, 139, 140, 141, 142, 143, 144, 145, 146, 147, 148, 149, 150, 151, 152, 153, 154, 155, 156, 157, 158, 159, 160, 161, 162, 163, 164, 165, 166, 167, 168, 169, 170, 171, 172, 173, 174, 175, 176, 177, 178, 179, 180, 181, 182, 183, 184, 185, 186, 187, 188, 189, 190, 191, 192, 193, 194, 195, 196, 197, 198, 199, 200, 201, 202, 203, 204, 205, 206, 207, 208, 209, 210, 211, 212, 213, 214, 215, 216, 217, 218, 219, 220, 221, 222, 223, 224, 225, 226, 227, 228, 229, 230, 231, 232, 233, 234, 235, 236, 237, 238, 239, 240, 241, 242, 243, 244, 245, 246, 247, 248, 249, 250, 251, 252, 253, 254, 255, 256, 257, 258, 259, 260, 261, 262, 263, 264, 265, 266, 267, 268, 269, 270, 271, 272, 273, 274, 275, 276, 277, 278, 279, 280, 281, 282, 283, 284, 285, 286, 287, 288, 289, 290, 291, 292, 293, 294, 295, 296, 297, 298, 299, 300, 301, 302, 303, 304, 305, 306, 307, 308, 309, 310, 311, 312, 313, 314, 315, 316, 317, 318, 319, 320, 321, 322, 323, 324, 325, 326, 327, 328, 329, 330, 331, 332, 333, 334, 335, 336, 337, 338, 339, 340, 341, 342, 343, 344, 345, 346, 347, 348, 349, 350, 351, 352, 353, 354, 355, 356, 357, 358, 359, 360, 361, 362, 363, 364, 365, 366, 367, 368, 369, 370, 371, 372, 373, 374, 375, 376, 377, 378, 379, 380, 381, 382, 383, 384, 385, 386, 387, 388, 389, 390, 391, 392, 393, 394, 395, 396, 397, 398, 399, 400, 401, 402, 403, 404, 405, 406, 407, 408, 409, 410, 411, 412, 413, 414, 415, 416, 417, 418, 419, 420, 421, 422, 423, 424, 425, 426, 427, 428, 429, 430, 431, 432, 433, 434, 435, 436, 437, 438, 439, 440, 441, 442, 443, 444, 445, 446, 447, 448, 449, 450, 451, 452, 453, 454, 455, 456, 457, 458, 459, 460, 461, 462, 463, 464, 465, 466, 467, 468, 469, 470, 471, 472, 473, 474, 475, 476, 477, 478, 479, 480, 481, 482, 483, 484, 485, 486, 487, 488, 489, 490, 491, 492, 493, 494, 495, 496, 497, 498, 499, 500, 501, 502, 503, 504, 505, 506, 507, 508, 509, 510, 511, 512, 513, 514, 515, 516, 517, 518, 519, 520, 521, 522, 523, 524, 525, 526, 527, 528, 529, 530, 531, 532, 533, 534, 535, 536, 537, 538, 539, 540, 541, 542, 543, 544, 545, 546, 547, 548, 549, 550, 551, 552, 553, 554, 555, 556, 557, 558, 559, 560, 561, 562, 563, 564, 565, 566, 567, 568, 569, 570, 571, 572, 573, 574, 575, 576, 577, 578, 579, 580, 581, 582, 583, 584, 585, 586, 587, 588, 589, 590, 591, 592, 593, 594, 595, 596, 597, 598, 599, 600, 601, 602, 603, 604, 605, 606, 607, 608, 609, 610, 611, 612, 613, 614, 615, 616, 617, 618, 619, 620, 621, 622, 623, 624, 625, 626, 627, 628, 629, 630, 631, 632, 633, 634, 635, 636, 637, 638, 639, 640, 641, 642, 643, 644, 645, 646, 647, 648, 649, 650, 651, 652, 653, 654, 655, 656, 657, 658, 659, 660, 661, 662, 663, 664, 665, 666, 667, 668, 669, 670, 671, 672, 673, 674, 675, 676, 677, 678, 679, 680, 681, 682, 683, 684, 685, 686, 687, 688, 689, 690, 691, 692, 693, 694, 695, 696, 697, 698, 699, 700, 701, 702, 703, 704, 705, 706, 707, 708, 709, 710, 711, 712, 713, 714, 715, 716, 717, 718, 719, 720, 721, 722, 723, 724, 725, 726, 727, 728, 729, 730, 731, 732, 733, 734, 735, 736, 737, 738, 739, 740, 741, 742, 743, 744, 745, 746, 747, 748, 749, 750, 751, 752, 753, 754, 755, 756, 757, 758, 759, 760, 761, 762, 763, 764, 765, 766, 767, 768, 769, 770, 771, 772, 773, 774, 775, 776, 777, 778, 779, 780, 781, 782, 783, 784, 785, 786, 787, 788, 789, 790, 791, 792, 793, 794, 795, 796, 797, 798, 799, 800, 801, 802, 803, 804, 805, 806, 807, 808, 809, 810, 811, 812, 813, 814, 815, 816, 817, 818, 819, 820, 821, 822, 823, 824, 825, 826, 827, 828, 829, 830, 831, 832, 833, 834, 835, 836, 837, 838, 839, 840, 841, 842, 843, 844, 845, 846, 847, 848, 849, 850, 851, 852, 853, 854, 855, 856, 857, 858, 859, 860, 861, 862, 863, 864, 865, 866, 867, 868, 869, 870, 871, 872, 873, 874, 875, 876, 877, 878, 879, 880, 881, 882, 883, 884, 885, 886, 887, 888, 889, 890, 891, 892, 893, 894, 895, 896, 897, 898, 899, 900, 901, 902, 903, 904, 905, 906, 907, 908, 909, 910, 911, 912, 913, 914],
      "AcquisitionTime": ["102919.625000", "102920.085000", "102920.545000", "102921.005000", "102921.465000", "102921.925000", "102922.385000", "102922.845000", "102923.305000", "102923.765000", "102924.225000", "102924.685000", "102925.145000", "102925.605000", "102926.065000", "102926.525000", "102926.985000", "102927.445000", "102927.905000", "102928.365000", "102928.825000", "102929.285000", "102929.745000", "102930.205000", "102930.665000", "102931.125000", "102931.585000", "102932.045000", "102932.505000", "102932.965000", "102933.425000", "102933.885000", "102934.345000", "102934.805000", "102935.265000", "102935.725000", "102936.185000", "102936.645000", "102937.105000", "102937.565000", "102938.025000", "102938.485000", "102938.945000", "102939.405000", "102939.865000", "102940.325000", "102940.785000", "102941.245000", "102941.705000", "102942.165000", "102942.625000", "102943.085000", "102943.545000", "102944.005000", "102944.465000", "102944.925000", "102945.385000", "102945.845000", "102946.305000", "102946.765000", "102947.225000", "102947.685000", "102948.145000", "102948.605000", "102949.065000", "102949.525000", "102949.985000", "102950.445000", "102950.905000", "102951.365000", "102951.825000", "102952.285000", "102952.745000", "102953.205000", "102953.665000", "102954.125000", "102954.585000", "102955.045000", "102955.505000", "102955.965000", "102956.425000", "102956.885000", "102957.345000", "102957.805000", "102958.265000", "102958.725000", "102959.185000", "102959.645000", "103000.105000", "103000.565000", "103001.025000", "103001.485000", "103001.945000", "103002.405000", "103002.865000", "103003.325000", "103003.785000", "103004.245000", "103004.705000", "103005.165000", "103005.625000", "103006.085000", "103006.545000", "103007.005000", "103007.465000", "103007.925000", "103008.385000", "103008.845000", "103009.305000", "103009.765000", "103010.225000", "103010.685000", "103011.145000", "103011.605000", "103012.065000", "103012.525000", "103012.985000", "103013.445000", "103013.905000", "103014.365000", "103014.825000", "103015.285000", "103015.745000", "103016.205000", "103016.665000", "103017.125000", "103017.585000", "103018.045000", "103018.505000", "103018.965000", "103019.425000", "103019.885000", "103020.345000", "103020.805000", "103021.265000", "103021.725000", "103022.185000", "103022.645000", "103023.105000", "103023.565000", "103024.025000", "103024.485000", "103024.945000", "103025.405000", "103025.865000", "103026.325000", "103026.785000", "103027.245000", "103027.705000", "103028.165000", "103028.625000", "103029.085000", "103029.545000", "103030.005000", "103030.465000", "103030.925000", "103031.385000", "103031.845000", "103032.305000", "103032.765000", "103033.225000", "103033.685000", "103034.145000", "103034.605000", "103035.065000", "103035.525000", "103035.985000", "103036.445000", "103036.905000", "103037.365000", "103037.825000", "103038.285000", "103038.745000", "103039.205000", "103039.665000", "103040.125000", "103040.585000", "103041.045000", "103041.505000", "103041.965000", "103042.425000", "103042.885000", "103043.345000", "103043.805000", "103044.265000", "103044.725000", "103045.185000", "103045.645000", "103046.105000", "103046.565000", "103047.025000", "103047.485000", "103047.945000", "103048.405000", "103048.865000", "103049.325000", "103049.785000", "103050.245000", "103050.705000", "103051.165000", "103051.625000", "103052.085000", "103052.545000", "103053.005000", "103053.465000", "103053.925000", "103054.385000", "103054.845000", "103055.305000", "103055.765000", "103056.225000", "103056.685000", "103057.145000", "103057.605000", "103058.065000", "103058.525000", "103058.985000", "103059.445000", "103059.905000", "103100.365000", "103100.825000", "103101.285000", "103101.745000", "103102.205000", "103102.665000", "103103.125000", "103103.585000", "103104.045000", "103104.505000", "103104.965000", "103105.425000", "103105.885000", "103106.345000", "103106.805000", "103107.265000", "103107.725000", "103108.185000", "103108.645000", "103109.105000", "103109.565000", "103110.025000", "103110.485000", "103110.945000", "103111.405000", "103111.865000", "103112.325000", "103112.785000", "103113.245000", "103113.705000", "103114.165000", "103114.625000", "103115.085000", "103115.545000", "103116.005000", "103116.465000", "103116.925000", "103117.385000", "103117.845000", "103118.305000", "103118.765000", "103119.225000", "103119.685000", "103120.145000", "103120.605000", "103121.065000", "103121.525000", "103121.985000", "103122.445000", "103122.905000", "103123.365000", "103123.825000", "103124.285000", "103124.745000", "103125.205000", "103125.665000", "103126.125000", "103126.585000", "103127.045000", "103127.505000", "103127.965000", "103128.425000", "103128.885000", "103129.345000", "103129.805000", "103130.265000", "103130.725000", "103131.185000", "103131.645000", "103132.105000", "103132.565000", "103133.025000", "103133.485000", "103133.945000", "103134.405000", "103134.865000", "103135.325000", "103135.785000", "103136.245000", "103136.705000", "103137.165000", "103137.625000", "103138.085000", "103138.545000", "103139.005000", "103139.465000", "103139.925000", "103140.385000", "103140.845000", "103141.305000", "103141.765000", "103142.225000", "103142.685000", "103143.145000", "103143.605000", "103144.065000", "103144.525000", "103144.985000", "103145.445000", "103145.905000", "103146.365000", "103146.825000", "103147.285000", "103147.745000", "103148.205000", "103148.665000", "103149.125000", "103149.585000", "103150.045000", "103150.505000", "103150.965000", "103151.425000", "103151.885000", "103152.345000", "103152.805000", "103153.265000", "103153.725000", "103154.185000", "103154.645000", "103155.105000", "103155.565000", "103156.025000", "103156.485000", "103156.945000", "103157.405000", "103157.865000", "103158.325000", "103158.785000", "103159.245000", "103159.705000", "103200.165000", "103200.625000", "103201.085000", "103201.545000", "103202.005000", "103202.465000", "103202.925000", "103203.385000", "103203.845000", "103204.305000", "103204.765000", "103205.225000", "103205.685000", "103206.145000", "103206.605000", "103207.065000", "103207.525000", "103207.985000", "103208.445000", "103208.905000", "103209.365000", "103209.825000", "103210.285000", "103210.745000", "103211.205000", "103211.665000", "103212.125000", "103212.585000", "103213.045000", "103213.505000", "103213.965000", "103214.425000", "103214.885000", "103215.345000", "103215.805000", "103216.265000", "103216.725000", "103217.185000", "103217.645000", "103218.105000", "103218.565000", "103219.025000", "103219.485000", "103219.945000", "103220.405000", "103220.865000", "103221.325000", "103221.785000", "103222.245000", "103222.705000", "103223.165000", "103223.625000", "103224.085000", "103224.545000", "103225.005000", "103225.465000", "103225.925000", "103226.385000", "103226.845000", "103227.305000", "103227.765000", "103228.225000", "103228.685000", "103229.145000", "103229.605000", "103230.065000", "103230.525000", "103230.985000", "103231.445000", "103231.905000", "103232.365000", "103232.825000", "103233.285000", "103233.745000", "103234.205000", "103234.665000", "103235.125000", "103235.585000", "103236.045000", "103236.505000", "103236.965000", "103237.425000", "103237.885000", "103238.345000", "103238.805000", "103239.265000", "103239.725000", "103240.185000", "103240.645000", "103241.105000", "103241.565000", "103242.025000", "103242.485000", "103242.945000", "103243.405000", "103243.865000", "103244.325000", "103244.785000", "103245.245000", "103245.705000", "103246.165000", "103246.625000", "103247.085000", "103247.545000", "103248.005000", "103248.465000", "103248.925000", "103249.385000", "103249.845000", "103250.305000", "103250.765000", "103251.225000", "103251.685000", "103252.145000", "103252.605000", "103253.065000", "103253.525000", "103253.985000", "103254.445000", "103254.905000", "103255.365000", "103255.825000", "103256.285000", "103256.745000", "103257.205000", "103257.665000", "103258.125000", "103258.585000", "103259.045000", "103259.505000", "103259.965000", "103300.425000", "103300.885000", "103301.345000", "103301.805000", "103302.265000", "103302.725000", "103303.185000", "103303.645000", "103304.105000", "103304.565000", "103305.025000", "103305.485000", "103305.945000", "103306.405000", "103306.865000", "103307.325000", "103307.785000", "103308.245000", "103308.705000", "103309.165000", "103309.625000", "103310.085000", "103310.545000", "103311.005000", "103311.465000", "103311.925000", "103312.385000", "103312.845000", "103313.305000", "103313.765000", "103314.225000", "103314.685000", "103315.145000", "103315.605000", "103316.065000", "103316.525000", "103316.985000", "103317.445000", "103317.905000", "103318.365000", "103318.825000", "103319.285000", "103319.745000", "103320.205000", "103320.665000", "103321.125000", "103321.585000", "103322.045000", "103322.505000", "103322.965000", "103323.425000", "103323.885000", "103324.345000", "103324.805000", "103325.265000", "103325.725000", "103326.185000", "103326.645000", "103327.105000", "103327.565000", "103328.025000", "103328.485000", "103328.945000", "103329.405000", "103329.865000", "103330.325000", "103330.785000", "103331.245000", "103331.705000", "103332.165000", "103332.625000", "103333.085000", "103333.545000", "103334.005000", "103334.465000", "103334.925000", "103335.385000", "103335.845000", "103336.305000", "103336.765000", "103337.225000", "103337.685000", "103338.145000", "103338.605000", "103339.065000", "103339.525000", "103339.985000", "103340.445000", "103340.905000", "103341.365000", "103341.825000", "103342.285000", "103342.745000", "103343.205000", "103343.665000", "103344.125000", "103344.585000", "103345.045000", "103345.505000", "103345.965000", "103346.425000", "103346.885000", "103347.345000", "103347.805000", "103348.265000", "103348.725000", "103349.185000", "103349.645000", "103350.105000", "103350.565000", "103351.025000", "103351.485000", "103351.945000", "103352.405000", "103352.865000", "103353.325000", "103353.785000", "103354.245000", "103354.705000", "103355.165000", "103355.625000", "103356.085000", "103356.545000", "103357.005000", "103357.465000", "103357.925000", "103358.385000", "103358.845000", "103359.305000", "103359.765000", "103400.225000", "103400.685000", "103401.145000", "103401.605000", "103402.065000", "103402.525000", "103402.985000", "103403.445000", "103403.905000", "103404.365000", "103404.825000", "103405.285000", "103405.745000", "103406.205000", "103406.665000", "103407.125000", "103407.585000", "103408.045000", "103408.505000", "103408.965000", "103409.425000", "103409.885000", "103410.345000", "103410.805000", "103411.265000", "103411.725000", "103412.185000", "103412.645000", "103413.105000", "103413.565000", "103414.025000", "103414.485000", "103414.945000", "103415.405000", "103415.865000", "103416.325000", "103416.785000", "103417.245000", "103417.705000", "103418.165000", "103418.625000", "103419.085000", "103419.545000", "103420.005000", "103420.465000", "103420.925000", "103421.385000", "103421.845000", "103422.305000", "103422.765000", "103423.225000", "103423.685000", "103424.145000", "103424.605000", "103425.065000", "103425.525000", "103425.985000", "103426.445000", "103426.905000", "103427.365000", "103427.825000", "103428.285000", "103428.745000", "103429.205000", "103429.665000", "103430.125000", "103430.585000", "103431.045000", "103431.505000", "103431.965000", "103432.425000", "103432.885000", "103433.345000", "103433.805000", "103434.265000", "103434.725000", "103435.185000", "103435.645000", "103436.105000", "103436.565000", "103437.025000", "103437.485000", "103437.945000", "103438.405000", "103438.865000", "103439.325000", "103439.785000", "103440.245000", "103440.705000", "103441.165000", "103441.625000", "103442.085000", "103442.545000", "103443.005000", "103443.465000", "103443.925000", "103444.385000", "103444.845000", "103445.305000", "103445.765000", "103446.225000", "103446.685000", "103447.145000", "103447.605000", "103448.065000", "103448.525000", "103448.985000", "103449.445000", "103449.905000", "103450.365000", "103450.825000", "103451.285000", "103451.745000", "103452.205000", "103452.665000", "103453.125000", "103453.585000", "103454.045000", "103454.505000", "103454.965000", "103455.425000", "103455.885000", "103456.345000", "103456.805000", "103457.265000", "103457.725000", "103458.185000", "103458.645000", "103459.105000", "103459.565000", "103500.025000", "103500.485000", "103500.945000", "103501.405000", "103501.865000", "103502.325000", "103502.785000", "103503.245000", "103503.705000", "103504.165000", "103504.625000", "103505.085000", "103505.545000", "103506.005000", "103506.465000", "103506.925000", "103507.385000", "103507.845000", "103508.305000", "103508.765000", "103509.225000", "103509.685000", "103510.145000", "103510.605000", "103511.065000", "103511.525000", "103511.985000", "103512.445000", "103512.905000", "103513.365000", "103513.825000", "103514.285000", "103514.745000", "103515.205000", "103515.665000", "103516.125000", "103516.585000", "103517.045000", "103517.505000", "103517.965000", "103518.425000", "103518.885000", "103519.345000", "103519.805000", "103520.265000", "103520.725000", "103521.185000", "103521.645000", "103522.105000", "103522.565000", "103523.025000", "103523.485000", "103523.945000", "103524.405000", "103524.865000", "103525.325000", "103525.785000", "103526.245000", "103526.705000", "103527.165000", "103527.625000", "103528.085000", "103528.545000", "103529.005000", "103529.465000", "103529.925000", "103530.385000", "103530.845000", "103531.305000", "103531.765000", "103532.225000", "103532.685000", "103533.145000", "103533.605000", "103534.065000", "103534.525000", "103534.985000", "103535.445000", "103535.905000", "103536.365000", "103536.825000", "103537.285000", "103537.745000", "103538.205000", "103538.665000", "103539.125000", "103539.585000", "103540.045000", "103540.505000", "103540.965000", "103541.425000", "103541.885000", "103542.345000", "103542.805000", "103543.265000", "103543.725000", "103544.185000", "103544.645000", "103545.105000", "103545.565000", "103546.025000", "103546.485000", "103546.945000", "103547.405000", "103547.865000", "103548.325000", "103548.785000", "103549.245000", "103549.705000", "103550.165000", "103550.625000", "103551.085000", "103551.545000", "103552.005000", "103552.465000", "103552.925000", "103553.385000", "103553.845000", "103554.305000", "103554.765000", "103555.225000", "103555.685000", "103556.145000", "103556.605000", "103557.065000", "103557.525000", "103557.985000", "103558.445000", "103558.905000", "103559.365000", "103559.825000", "103600.285000", "103600.745000", "103601.205000", "103601.665000", "103602.125000", "103602.585000", "103603.045000", "103603.505000", "103603.965000", "103604.425000", "103604.885000", "103605.345000", "103605.805000", "103606.265000", "103606.725000", "103607.185000", "103607.645000", "103608.105000", "103608.565000", "103609.025000", "103609.485000", "103609.945000", "103610.405000", "103610.865000", "103611.325000", "103611.785000", "103612.245000", "103612.705000", "103613.165000", "103613.625000", "103614.085000", "103614.545000", "103615.005000", "103615.465000", "103615.925000", "103616.385000", "103616.845000", "103617.305000", "103617.765000", "103618.225000", "103618.685000", "103619.145000", "103619.605000"],
