{
  "AcquisitionMatrixPE": 82,
  "AcquisitionNumber": 1,
  "AcquisitionTime": "11:25:6.980000",
  "BandwidthPerPixelPhaseEncode": 24.888,
  "BaseResolution": 82,
  "BodyPartExamined": "BRAIN",
  "ConsistencyInfo": "N4_VE11E_LATEST_20181129",
  "ConversionSoftware": "dcm2niix",
  "ConversionSoftwareVersion": "v1.0.20201102",
  "DerivedVendorReportedEchoSpacing": 0.00049,
  "DeviceSerialNumber": "66112",
  "DwellTime": 2e-06,
  "EchoTime": 0.0272,
  "EchoTrainLength": 82,
  "EffectiveEchoSpacing": 0.00049,
  "FlipAngle": 44,
  "ImageComments": "Unaliased MB8/PE3",
  "ImageOrientationPatientDICOM": [0.998996, 0.0236396, -0.0380621, -0.0219726, 0.998806, 0.0436343],
  "ImageType": [
    "ORIGINAL",
    "PRIMARY",
    "M",
    "MB",
    "ND",
    "NORM",
    "MOSAIC"
],
  "ImagingFrequency": 123.259,
  "InPlanePhaseEncodingDirectionDICOM": "COL",
  "InstitutionAddress": "Maynard 3,Hanover,NH,US,03755",
  "InstitutionName": "Dartmouth College - PBS",
  "InstitutionalDepartmentName": "Department",
  "MRAcquisitionType": "2D",
  "MagneticFieldStrength": 3,
  "Manufacturer": "Siemens",
  "ManufacturersModelName": "Prisma",
  "Modality": "MR",
  "MultibandAccelerationFactor": 8,
  "PartialFourier": 1,
  "PatientPosition": "HFS",
  "PercentPhaseFOV": 100,
  "PercentSampling": 100,
  "PhaseEncodingDirection": "j-",
  "PhaseEncodingSteps": 82,
  "PhaseResolution": 1,
  "PixelBandwidth": 3050,
  "ProcedureStepDescription": "Wager_Wager^1076_spacetop",
  "ProtocolName": "func_run-04_task-alignvideo_acq-ap-mb8",
  "PulseSequenceDetails": "%CustomerSeq%\\cmrr_mbep2d_bold",
  "ReceiveCoilActiveElements": "HEA;HEP",
  "ReceiveCoilName": "Head_32",
  "ReconMatrixPE": 82,
  "RepetitionTime": 0.46,
  "SAR": 0.114818,
  "ScanOptions": "FS",
  "ScanningSequence": "EP",
  "SequenceName": "epfid2d1_82",
  "SequenceVariant": "SK\\SS",
  "SeriesDescription": "func_run-04_task-alignvideo_acq-ap-mb8",
  "SeriesNumber": 34,
  "ShimSetting": [4225, -7738, -7238, 110, -123, -1, 48, 117],
  "SliceThickness": 2.7,
  "SliceTiming": [0, 0.2525, 0.0625, 0.315, 0.1275, 0.3775, 0.19, 0, 0.2525, 0.0625, 0.315, 0.1275, 0.3775, 0.19, 0, 0.2525, 0.0625, 0.315, 0.1275, 0.3775, 0.19, 0, 0.2525, 0.0625, 0.315, 0.1275, 0.3775, 0.19, 0, 0.2525, 0.0625, 0.315, 0.1275, 0.3775, 0.19, 0, 0.2525, 0.0625, 0.315, 0.1275, 0.3775, 0.19, 0, 0.2525, 0.0625, 0.315, 0.1275, 0.3775, 0.19, 0, 0.2525, 0.0625, 0.315, 0.1275, 0.3775, 0.19],
  "SoftwareVersions": "syngo MR E11",
  "SpacingBetweenSlices": 2.7,
  "StationName": "AWP66112",
  "TaskName": "alignvideo",
  "TotalReadoutTime": 0.03969,
  "TxRefAmp": 250.264,
  "WipMemBlock": "14eedf1b-5632-492e-8db9-ae1f6d7bab96||Sequence: R016 ve11e/master r/434b28f1; Aug  7 2019 18:53:46 by eja",
  "dcmmeta_affine": [
    [-2.680232524871826, -0.05895082280039787, -0.10542987287044525, 115.6444091796875],
    [-0.06342318654060364, 2.6797232627868652, 0.11543627083301544, -89.45616149902344],
    [-0.10211770981550217, -0.11706767976284027, 2.695470094680786, -60.06181716918945],
    [0.0, 0.0, 0.0, 1.0]
],
  "dcmmeta_reorient_transform": [
    [0.0, -1.0, 0.0, 81.0],
    [1.0, 0.0, 0.0, 0.0],
    [0.0, 0.0, 1.0, 0.0],
    [0.0, 0.0, 0.0, 1.0]
],
  "dcmmeta_shape": [82, 82, 56, 914],
  "dcmmeta_slice_dim": 2,
  "dcmmeta_version": 0.6,
  "global": {
    "const": {
      "AccessionNumber": "A004825",
      "AcquisitionMatrix": [82, 0, 0, 82],
      "AngioFlag": "N",
      "BitsAllocated": 16,
      "BitsStored": 16,
      "BodyPartExamined": "BRAIN",
      "Columns": 656,
      "EchoNumbers": 1,
      "EchoTime": 27.2,
      "EchoTrainLength": 82,
      "FlipAngle": 44.0,
      "HighBit": 15,
      "ImageOrientationPatient": [0.99899572146336, 0.02363955200483, -0.0380620556317, -0.0219725791259, 0.99880591316354, 0.04363431672553],
      "ImagePositionPatient": [-863.17723300379, -914.88444561773, -73.834940587492],
      "ImageType": [
        "ORIGINAL",
        "PRIMARY",
        "M",
        "MB",
        "ND",
        "NORM",
        "MOSAIC"
],
      "ImagedNucleus": "1H",
      "ImagingFrequency": 123.259291,
      "InPlanePhaseEncodingDirection": "COL",
      "MRAcquisitionType": "2D",
      "MagneticFieldStrength": 3.0,
      "Manufacturer": "SIEMENS",
      "ManufacturerModelName": "Prisma",
      "Modality": "MR",
      "NumberOfAverages": 1.0,
      "NumberOfPhaseEncodingSteps": 82,
      "PercentPhaseFieldOfView": 100.0,
      "PercentSampling": 100.0,
      "PerformedProcedureStepStartTime": "093651.344000",
      "PhotometricInterpretation": "MONOCHROME2",
      "PixelBandwidth": 3050.0,
      "PixelRepresentation": 0,
      "PixelSpacing": [2.6829268932343, 2.6829268932343],
      "ProtocolName": "func_run-04_task-alignvideo_acq-ap-mb8",
      "RepetitionTime": 460.0,
      "Rows": 656,
      "SAR": 0.11481757158582,
      "SamplesPerPixel": 1,
      "ScanOptions": "FS",
      "ScanningSequence": "EP",
      "SequenceName": "epfid2d1_82",
      "SequenceVariant": [
        "SK",
        "SS"
],
      "SeriesDescription": "func_run-04_task-alignvideo_acq-ap-mb8",
      "SeriesNumber": 34,
      "SeriesTime": "112530.841000",
      "SliceLocation": -68.301368069258,
      "SliceThickness": 2.7000000476837,
      "SmallestImagePixelValue": 0,
      "SoftwareVersions": "syngo MR E11",
      "SpacingBetweenSlices": 2.6999999908431,
      "SpecificCharacterSet": "ISO_IR 100",
      "StudyID": "2",
      "StudyTime": "093651.267000",
      "TransmitCoilName": "Body",
      "VariableFlipAngleFlag": "N",
      "WindowCenterWidthExplanation": "Algo1"
    },
    "slices": {}
  },
  "time": {
    "samples": {
      "AcquisitionNumber": [1, 2, 3, 4, 5, 6, 7, 8, 9, 10, 11, 12, 13, 14, 15, 16, 17, 18, 19, 20, 21, 22, 23, 24, 25, 26, 27, 28, 29, 30, 31, 32, 33, 34, 35, 36, 37, 38, 39, 40, 41, 42, 43, 44, 45, 46, 47, 48, 49, 50, 51, 52, 53, 54, 55, 56, 57, 58, 59, 60, 61, 62, 63, 64, 65, 66, 67, 68, 69, 70, 71, 72, 73, 74, 75, 76, 77, 78, 79, 80, 81, 82, 83, 84, 85, 86, 87, 88, 89, 90, 91, 92, 93, 94, 95, 96, 97, 98, 99, 100, 101, 102, 103, 104, 105, 106, 107, 108, 109, 110, 111, 112, 113, 114, 115, 116, 117, 118, 119, 120, 121, 122, 123, 124, 125, 126, 127, 128, 129, 130, 131, 132, 133, 134, 135, 136, 137, 138, 139, 140, 141, 142, 143, 144, 145, 146, 147, 148, 149, 150, 151, 152, 153, 154, 155, 156, 157, 158, 159, 160, 161, 162, 163, 164, 165, 166, 167, 168, 169, 170, 171, 172, 173, 174, 175, 176, 177, 178, 179, 180, 181, 182, 183, 184, 185, 186, 187, 188, 189, 190, 191, 192, 193, 194, 195, 196, 197, 198, 199, 200, 201, 202, 203, 204, 205, 206, 207, 208, 209, 210, 211, 212, 213, 214, 215, 216, 217, 218, 219, 220, 221, 222, 223, 224, 225, 226, 227, 228, 229, 230, 231, 232, 233, 234, 235, 236, 237, 238, 239, 240, 241, 242, 243, 244, 245, 246, 247, 248, 249, 250, 251, 252, 253, 254, 255, 256, 257, 258, 259, 260, 261, 262, 263, 264, 265, 266, 267, 268, 269, 270, 271, 272, 273, 274, 275, 276, 277, 278, 279, 280, 281, 282, 283, 284, 285, 286, 287, 288, 289, 290, 291, 292, 293, 294, 295, 296, 297, 298, 299, 300, 301, 302, 303, 304, 305, 306, 307, 308, 309, 310, 311, 312, 313, 314, 315, 316, 317, 318, 319, 320, 321, 322, 323, 324, 325, 326, 327, 328, 329, 330, 331, 332, 333, 334, 335, 336, 337, 338, 339, 340, 341, 342, 343, 344, 345, 346, 347, 348, 349, 350, 351, 352, 353, 354, 355, 356, 357, 358, 359, 360, 361, 362, 363, 364, 365, 366, 367, 368, 369, 370, 371, 372, 373, 374, 375, 376, 377, 378, 379, 380, 381, 382, 383, 384, 385, 386, 387, 388, 389, 390, 391, 392, 393, 394, 395, 396, 397, 398, 399, 400, 401, 402, 403, 404, 405, 406, 407, 408, 409, 410, 411, 412, 413, 414, 415, 416, 417, 418, 419, 420, 421, 422, 423, 424, 425, 426, 427, 428, 429, 430, 431, 432, 433, 434, 435, 436, 437, 438, 439, 440, 441, 442, 443, 444, 445, 446, 447, 448, 449, 450, 451, 452, 453, 454, 455, 456, 457, 458, 459, 460, 461, 462, 463, 464, 465, 466, 467, 468, 469, 470, 471, 472, 473, 474, 475, 476, 477, 478, 479, 480, 481, 482, 483, 484, 485, 486, 487, 488, 489, 490, 491, 492, 493, 494, 495, 496, 497, 498, 499, 500, 501, 502, 503, 504, 505, 506, 507, 508, 509, 510, 511, 512, 513, 514, 515, 516, 517, 518, 519, 520, 521, 522, 523, 524, 525, 526, 527, 528, 529, 530, 531, 532, 533, 534, 535, 536, 537, 538, 539, 540, 541, 542, 543, 544, 545, 546, 547, 548, 549, 550, 551, 552, 553, 554, 555, 556, 557, 558, 559, 560, 561, 562, 563, 564, 565, 566, 567, 568, 569, 570, 571, 572, 573, 574, 575, 576, 577, 578, 579, 580, 581, 582, 583, 584, 585, 586, 587, 588, 589, 590, 591, 592, 593, 594, 595, 596, 597, 598, 599, 600, 601, 602, 603, 604, 605, 606, 607, 608, 609, 610, 611, 612, 613, 614, 615, 616, 617, 618, 619, 620, 621, 622, 623, 624, 625, 626, 627, 628, 629, 630, 631, 632, 633, 634, 635, 636, 637, 638, 639, 640, 641, 642, 643, 644, 645, 646, 647, 648, 649, 650, 651, 652, 653, 654, 655, 656, 657, 658, 659, 660, 661, 662, 663, 664, 665, 666, 667, 668, 669, 670, 671, 672, 673, 674, 675, 676, 677, 678, 679, 680, 681, 682, 683, 684, 685, 686, 687, 688, 689, 690, 691, 692, 693, 694, 695, 696, 697, 698, 699, 700, 701, 702, 703, 704, 705, 706, 707, 708, 709, 710, 711, 712, 713, 714, 715, 716, 717, 718, 719, 720, 721, 722, 723, 724, 725, 726, 727, 728, 729, 730, 731, 732, 733, 734, 735, 736, 737, 738, 739, 740, 741, 742, 743, 744, 745, 746, 747, 748, 749, 750, 751, 752, 753, 754, 755, 756, 757, 758, 759, 760, 761, 762, 763, 764, 765, 766, 767, 768, 769, 770, 771, 772, 773, 774, 775, 776, 777, 778, 779, 780, 781, 782, 783, 784, 785, 786, 787, 788, 789, 790, 791, 792, 793, 794, 795, 796, 797, 798, 799, 800, 801, 802, 803, 804, 805, 806, 807, 808, 809, 810, 811, 812, 813, 814, 815, 816, 817, 818, 819, 820, 821, 822, 823, 824, 825, 826, 827, 828, 829, 830, 831, 832, 833, 834, 835, 836, 837, 838, 839, 840, 841, 842, 843, 844, 845, 846, 847, 848, 849, 850, 851, 852, 853, 854, 855, 856, 857, 858, 859, 860, 861, 862, 863, 864, 865, 866, 867, 868, 869, 870, 871, 872, 873, 874, 875, 876, 877, 878, 879, 880, 881, 882, 883, 884, 885, 886, 887, 888, 889, 890, 891, 892, 893, 894, 895, 896, 897, 898, 899, 900, 901, 902, 903, 904, 905, 906, 907, 908, 909, 910, 911, 912, 913, 914],
      "AcquisitionTime": ["112506.980000", "112507.440000", "112507.900000", "112508.360000", "112508.820000", "112509.280000", "112509.740000", "112510.200000", "112510.660000", "112511.120000", "112511.580000", "112512.040000", "112512.500000", "112512.960000", "112513.420000", "112513.880000", "112514.340000", "112514.800000", "112515.260000", "112515.720000", "112516.180000", "112516.640000", "112517.100000", "112517.560000", "112518.020000", "112518.480000", "112518.940000", "112519.400000", "112519.860000", "112520.320000", "112520.780000", "112521.240000", "112521.700000", "112522.160000", "112522.620000", "112523.080000", "112523.540000", "112524.000000", "112524.460000", "112524.920000", "112525.380000", "112525.840000", "112526.300000", "112526.760000", "112527.220000", "112527.680000", "112528.140000", "112528.600000", "112529.060000", "112529.520000", "112529.980000", "112530.440000", "112530.900000", "112531.360000", "112531.820000", "112532.280000", "112532.740000", "112533.200000", "112533.660000", "112534.120000", "112534.580000", "112535.040000", "112535.500000", "112535.960000", "112536.420000", "112536.880000", "112537.340000", "112537.800000", "112538.260000", "112538.720000", "112539.180000", "112539.640000", "112540.100000", "112540.560000", "112541.020000", "112541.480000", "112541.940000", "112542.400000", "112542.860000", "112543.320000", "112543.780000", "112544.240000", "112544.700000", "112545.160000", "112545.620000", "112546.080000", "112546.540000", "112547.000000", "112547.460000", "112547.920000", "112548.380000", "112548.840000", "112549.300000", "112549.760000", "112550.220000", "112550.680000", "112551.140000", "112551.600000", "112552.060000", "112552.520000", "112552.980000", "112553.440000", "112553.900000", "112554.360000", "112554.820000", "112555.280000", "112555.740000", "112556.200000", "112556.660000", "112557.120000", "112557.580000", "112558.040000", "112558.500000", "112558.960000", "112559.420000", "112559.880000", "112600.340000", "112600.800000", "112601.260000", "112601.720000", "112602.180000", "112602.640000", "112603.100000", "112603.560000", "112604.020000", "112604.480000", "112604.940000", "112605.400000", "112605.860000", "112606.320000", "112606.780000", "112607.240000", "112607.700000", "112608.160000", "112608.620000", "112609.080000", "112609.540000", "112610.000000", "112610.460000", "112610.920000", "112611.380000", "112611.840000", "112612.300000", "112612.760000", "112613.220000", "112613.680000", "112614.140000", "112614.600000", "112615.060000", "112615.520000", "112615.980000", "112616.440000", "112616.900000", "112617.360000", "112617.820000", "112618.280000", "112618.740000", "112619.200000", "112619.660000", "112620.120000", "112620.580000", "112621.040000", "112621.500000", "112621.960000", "112622.420000", "112622.880000", "112623.340000", "112623.800000", "112624.260000", "112624.720000", "112625.180000", "112625.640000", "112626.100000", "112626.560000", "112627.020000", "112627.480000", "112627.940000", "112628.400000", "112628.860000", "112629.320000", "112629.780000", "112630.240000", "112630.700000", "112631.160000", "112631.620000", "112632.080000", "112632.540000", "112633.000000", "112633.460000", "112633.920000", "112634.380000", "112634.840000", "112635.300000", "112635.760000", "112636.220000", "112636.680000", "112637.140000", "112637.600000", "112638.060000", "112638.520000", "112638.980000", "112639.440000", "112639.900000", "112640.360000", "112640.820000", "112641.280000", "112641.740000", "112642.200000", "112642.660000", "112643.120000", "112643.580000", "112644.040000", "112644.500000", "112644.960000", "112645.420000", "112645.880000", "112646.340000", "112646.800000", "112647.260000", "112647.720000", "112648.180000", "112648.640000", "112649.100000", "112649.560000", "112650.020000", "112650.480000", "112650.940000", "112651.400000", "112651.860000", "112652.320000", "112652.780000", "112653.240000", "112653.700000", "112654.160000", "112654.620000", "112655.080000", "112655.540000", "112656.000000", "112656.460000", "112656.920000", "112657.380000", "112657.840000", "112658.300000", "112658.760000", "112659.220000", "112659.680000", "112700.140000", "112700.600000", "112701.060000", "112701.520000", "112701.980000", "112702.440000", "112702.900000", "112703.360000", "112703.820000", "112704.280000", "112704.740000", "112705.200000", "112705.660000", "112706.120000", "112706.580000", "112707.040000", "112707.500000", "112707.960000", "112708.420000", "112708.880000", "112709.340000", "112709.800000", "112710.260000", "112710.720000", "112711.180000", "112711.640000", "112712.100000", "112712.560000", "112713.020000", "112713.480000", "112713.940000", "112714.400000", "112714.860000", "112715.320000", "112715.780000", "112716.240000", "112716.700000", "112717.160000", "112717.620000", "112718.080000", "112718.540000", "112719.000000", "112719.460000", "112719.920000", "112720.380000", "112720.840000", "112721.300000", "112721.760000", "112722.220000", "112722.680000", "112723.140000", "112723.600000", "112724.060000", "112724.520000", "112724.980000", "112725.440000", "112725.900000", "112726.360000", "112726.820000", "112727.280000", "112727.740000", "112728.200000", "112728.660000", "112729.120000", "112729.580000", "112730.040000", "112730.500000", "112730.960000", "112731.420000", "112731.880000", "112732.340000", "112732.800000", "112733.260000", "112733.720000", "112734.180000", "112734.640000", "112735.100000", "112735.560000", "112736.020000", "112736.480000", "112736.940000", "112737.400000", "112737.860000", "112738.320000", "112738.780000", "112739.240000", "112739.700000", "112740.160000", "112740.620000", "112741.080000", "112741.540000", "112742.000000", "112742.460000", "112742.920000", "112743.380000", "112743.840000", "112744.300000", "112744.760000", "112745.220000", "112745.680000", "112746.140000", "112746.600000", "112747.060000", "112747.520000", "112747.980000", "112748.440000", "112748.900000", "112749.360000", "112749.820000", "112750.280000", "112750.740000", "112751.200000", "112751.660000", "112752.120000", "112752.580000", "112753.040000", "112753.500000", "112753.960000", "112754.420000", "112754.880000", "112755.340000", "112755.800000", "112756.260000", "112756.720000", "112757.180000", "112757.640000", "112758.100000", "112758.560000", "112759.020000", "112759.480000", "112759.940000", "112800.400000", "112800.860000", "112801.320000", "112801.780000", "112802.240000", "112802.700000", "112803.160000", "112803.620000", "112804.080000", "112804.540000", "112805.000000", "112805.460000", "112805.920000", "112806.380000", "112806.840000", "112807.300000", "112807.760000", "112808.220000", "112808.680000", "112809.140000", "112809.600000", "112810.060000", "112810.520000", "112810.980000", "112811.440000", "112811.900000", "112812.360000", "112812.820000", "112813.280000", "112813.740000", "112814.200000", "112814.660000", "112815.120000", "112815.580000", "112816.040000", "112816.500000", "112816.960000", "112817.420000", "112817.880000", "112818.340000", "112818.800000", "112819.260000", "112819.720000", "112820.180000", "112820.640000", "112821.100000", "112821.560000", "112822.020000", "112822.480000", "112822.940000", "112823.400000", "112823.860000", "112824.320000", "112824.780000", "112825.240000", "112825.700000", "112826.160000", "112826.620000", "112827.080000", "112827.540000", "112828.000000", "112828.460000", "112828.920000", "112829.380000", "112829.840000", "112830.300000", "112830.760000", "112831.220000", "112831.680000", "112832.140000", "112832.600000", "112833.060000", "112833.520000", "112833.980000", "112834.440000", "112834.900000", "112835.360000", "112835.820000", "112836.280000", "112836.740000", "112837.200000", "112837.660000", "112838.120000", "112838.580000", "112839.040000", "112839.500000", "112839.960000", "112840.420000", "112840.880000", "112841.340000", "112841.800000", "112842.260000", "112842.720000", "112843.180000", "112843.640000", "112844.100000", "112844.560000", "112845.020000", "112845.480000", "112845.940000", "112846.400000", "112846.860000", "112847.320000", "112847.780000", "112848.240000", "112848.700000", "112849.160000", "112849.620000", "112850.080000", "112850.540000", "112851.000000", "112851.460000", "112851.920000", "112852.380000", "112852.840000", "112853.300000", "112853.760000", "112854.220000", "112854.680000", "112855.140000", "112855.600000", "112856.060000", "112856.520000", "112856.980000", "112857.440000", "112857.900000", "112858.360000", "112858.820000", "112859.280000", "112859.740000", "112900.200000", "112900.660000", "112901.120000", "112901.580000", "112902.040000", "112902.500000", "112902.960000", "112903.420000", "112903.880000", "112904.340000", "112904.800000", "112905.260000", "112905.720000", "112906.180000", "112906.640000", "112907.100000", "112907.560000", "112908.020000", "112908.480000", "112908.940000", "112909.400000", "112909.860000", "112910.320000", "112910.780000", "112911.240000", "112911.700000", "112912.160000", "112912.620000", "112913.080000", "112913.540000", "112914.000000", "112914.460000", "112914.920000", "112915.380000", "112915.840000", "112916.300000", "112916.760000", "112917.220000", "112917.680000", "112918.140000", "112918.600000", "112919.060000", "112919.520000", "112919.980000", "112920.440000", "112920.900000", "112921.360000", "112921.820000", "112922.280000", "112922.740000", "112923.200000", "112923.660000", "112924.120000", "112924.580000", "112925.040000", "112925.500000", "112925.960000", "112926.420000", "112926.880000", "112927.340000", "112927.800000", "112928.260000", "112928.720000", "112929.180000", "112929.640000", "112930.100000", "112930.560000", "112931.020000", "112931.480000", "112931.940000", "112932.400000", "112932.860000", "112933.320000", "112933.780000", "112934.240000", "112934.700000", "112935.160000", "112935.620000", "112936.080000", "112936.540000", "112937.000000", "112937.460000", "112937.920000", "112938.380000", "112938.840000", "112939.300000", "112939.760000", "112940.220000", "112940.680000", "112941.140000", "112941.600000", "112942.060000", "112942.520000", "112942.980000", "112943.440000", "112943.900000", "112944.360000", "112944.820000", "112945.280000", "112945.740000", "112946.200000", "112946.660000", "112947.120000", "112947.580000", "112948.040000", "112948.500000", "112948.960000", "112949.420000", "112949.880000", "112950.340000", "112950.800000", "112951.260000", "112951.720000", "112952.180000", "112952.640000", "112953.100000", "112953.560000", "112954.020000", "112954.480000", "112954.940000", "112955.400000", "112955.860000", "112956.320000", "112956.780000", "112957.240000", "112957.700000", "112958.160000", "112958.620000", "112959.080000", "112959.540000", "113000.000000", "113000.460000", "113000.920000", "113001.380000", "113001.840000", "113002.300000", "113002.760000", "113003.220000", "113003.680000", "113004.140000", "113004.600000", "113005.060000", "113005.520000", "113005.980000", "113006.440000", "113006.900000", "113007.360000", "113007.820000", "113008.280000", "113008.740000", "113009.200000", "113009.660000", "113010.120000", "113010.580000", "113011.040000", "113011.500000", "113011.960000", "113012.420000", "113012.880000", "113013.340000", "113013.800000", "113014.260000", "113014.720000", "113015.180000", "113015.640000", "113016.100000", "113016.560000", "113017.020000", "113017.480000", "113017.940000", "113018.400000", "113018.860000", "113019.320000", "113019.780000", "113020.240000", "113020.700000", "113021.160000", "113021.620000", "113022.080000", "113022.540000", "113023.000000", "113023.460000", "113023.920000", "113024.380000", "113024.840000", "113025.300000", "113025.760000", "113026.220000", "113026.680000", "113027.140000", "113027.600000", "113028.060000", "113028.520000", "113028.980000", "113029.440000", "113029.900000", "113030.360000", "113030.820000", "113031.280000", "113031.740000", "113032.200000", "113032.660000", "113033.120000", "113033.580000", "113034.040000", "113034.500000", "113034.960000", "113035.420000", "113035.880000", "113036.340000", "113036.800000", "113037.260000", "113037.720000", "113038.180000", "113038.640000", "113039.100000", "113039.560000", "113040.020000", "113040.480000", "113040.940000", "113041.400000", "113041.860000", "113042.320000", "113042.780000", "113043.240000", "113043.700000", "113044.160000", "113044.620000", "113045.080000", "113045.540000", "113046.000000", "113046.460000", "113046.920000", "113047.380000", "113047.840000", "113048.300000", "113048.760000", "113049.220000", "113049.680000", "113050.140000", "113050.600000", "113051.060000", "113051.520000", "113051.980000", "113052.440000", "113052.900000", "113053.360000", "113053.820000", "113054.280000", "113054.740000", "113055.200000", "113055.660000", "113056.120000", "113056.580000", "113057.040000", "113057.500000", "113057.960000", "113058.420000", "113058.880000", "113059.340000", "113059.800000", "113100.260000", "113100.720000", "113101.180000", "113101.640000", "113102.100000", "113102.560000", "113103.020000", "113103.480000", "113103.940000", "113104.400000", "113104.860000", "113105.320000", "113105.780000", "113106.240000", "113106.700000", "113107.160000", "113107.620000", "113108.080000", "113108.540000", "113109.000000", "113109.460000", "113109.920000", "113110.380000", "113110.840000", "113111.300000", "113111.760000", "113112.220000", "113112.680000", "113113.140000", "113113.600000", "113114.060000", "113114.520000", "113114.980000", "113115.440000", "113115.900000", "113116.360000", "113116.820000", "113117.280000", "113117.740000", "113118.200000", "113118.660000", "113119.120000", "113119.580000", "113120.040000", "113120.500000", "113120.960000", "113121.420000", "113121.880000", "113122.340000", "113122.800000", "113123.260000", "113123.720000", "113124.180000", "113124.640000", "113125.100000", "113125.560000", "113126.020000", "113126.480000", "113126.940000", "113127.400000", "113127.860000", "113128.320000", "113128.780000", "113129.240000", "113129.700000", "113130.160000", "113130.620000", "113131.080000", "113131.540000", "113132.000000", "113132.460000", "113132.920000", "113133.380000", "113133.840000", "113134.300000", "113134.760000", "113135.220000", "113135.680000", "113136.140000", "113136.600000", "113137.060000", "113137.520000", "113137.980000", "113138.440000", "113138.900000", "113139.360000", "113139.820000", "113140.280000", "113140.740000", "113141.200000", "113141.660000", "113142.120000", "113142.580000", "113143.040000", "113143.500000", "113143.960000", "113144.420000", "113144.880000", "113145.340000", "113145.800000", "113146.260000", "113146.720000", "113147.180000", "113147.640000", "113148.100000", "113148.560000", "113149.020000", "113149.480000", "113149.940000", "113150.400000", "113150.860000", "113151.320000", "113151.780000", "113152.240000", "113152.700000", "113153.160000", "113153.620000", "113154.080000", "113154.540000", "113155.000000", "113155.460000", "113155.920000", "113156.380000", "113156.840000", "113157.300000", "113157.760000", "113158.220000", "113158.680000", "113159.140000", "113159.600000", "113200.060000", "113200.520000", "113200.980000", "113201.440000", "113201.900000", "113202.360000", "113202.820000", "113203.280000", "113203.740000", "113204.200000", "113204.660000", "113205.120000", "113205.580000", "113206.040000", "113206.500000", "113206.960000"],
