{
  "AcquisitionMatrixPE": 82,
  "AcquisitionNumber": 1,
  "AcquisitionTime": "15:34:35.740000",
  "BandwidthPerPixelPhaseEncode": 24.888,
  "BaseResolution": 82,
  "BodyPartExamined": "BRAIN",
  "ConsistencyInfo": "N4_VE11C_LATEST_20160120",
  "ConversionSoftware": "dcm2niix",
  "ConversionSoftwareVersion": "v1.0.20201102",
  "DerivedVendorReportedEchoSpacing": 0.00049,
  "DeviceSerialNumber": "66112",
  "DwellTime": 2e-06,
  "EchoTime": 0.0272,
  "EchoTrainLength": 82,
  "EffectiveEchoSpacing": 0.00049,
  "FlipAngle": 44,
  "ImageComments": "Unaliased MB8/PE3",
  "ImageOrientationPatientDICOM": [0.99781, 0.0660992, 0.00233253, -0.0659247, 0.991092, 0.115714],
  "ImageType": [
    "ORIGINAL",
    "PRIMARY",
    "FMRI",
    "NONE",
    "MB",
    "ND",
    "NORM",
    "MOSAIC"
],
  "ImagingFrequency": 123.253,
  "InPlanePhaseEncodingDirectionDICOM": "COL",
  "InstitutionAddress": "Maynard 3,Hanover,NH,US,03755",
  "InstitutionName": "Dartmouth College - PBS",
  "InstitutionalDepartmentName": "Department",
  "MRAcquisitionType": "2D",
  "MagneticFieldStrength": 3,
  "Manufacturer": "Siemens",
  "ManufacturersModelName": "Prisma",
  "Modality": "MR",
  "MultibandAccelerationFactor": 8,
  "PartialFourier": 1,
  "PatientPosition": "HFS",
  "PercentPhaseFOV": 100,
  "PercentSampling": 100,
  "PhaseEncodingDirection": "j-",
  "PhaseEncodingSteps": 82,
  "PhaseResolution": 1,
  "PixelBandwidth": 3050,
  "ProcedureStepDescription": "Wager_Wager^1076_spacetop",
  "ProtocolName": "func_run-02_task-social_acq-ap-mb8",
  "PulseSequenceDetails": "%CustomerSeq%\\cmrr_mbep2d_bold",
  "ReceiveCoilActiveElements": "HEA;HEP",
  "ReceiveCoilName": "Head_32",
  "ReconMatrixPE": 82,
  "RepetitionTime": 0.46,
  "SAR": 0.0845103,
  "ScanOptions": "FS",
  "ScanningSequence": "EP",
  "SequenceName": "epfid2d1_82",
  "SequenceVariant": "SK\\SS",
  "SeriesDescription": "func_run-02_task-social_acq-ap-mb8",
  "SeriesNumber": 18,
  "ShimSetting": [4161, -7789, -7261, 492, 25, -356, 57, 41],
  "SliceThickness": 2.7,
  "SliceTiming": [0, 0.25, 0.0625, 0.3125, 0.125, 0.375, 0.1875, 0, 0.25, 0.0625, 0.3125, 0.125, 0.375, 0.1875, 0, 0.25, 0.0625, 0.3125, 0.125, 0.375, 0.1875, 0, 0.25, 0.0625, 0.3125, 0.125, 0.375, 0.1875, 0, 0.25, 0.0625, 0.3125, 0.125, 0.375, 0.1875, 0, 0.25, 0.0625, 0.3125, 0.125, 0.375, 0.1875, 0, 0.25, 0.0625, 0.3125, 0.125, 0.375, 0.1875, 0, 0.25, 0.0625, 0.3125, 0.125, 0.375, 0.1875],
  "SoftwareVersions": "syngo MR E11",
  "SpacingBetweenSlices": 2.7,
  "StationName": "AWP66112",
  "TaskName": "social",
  "TotalReadoutTime": 0.03969,
  "TxRefAmp": 235.085,
  "WipMemBlock": "d656e2a4-16cd-41a9-a36a-dfb94ee91188||Sequence: R016 ve11c/master r/e634e98; Dec 19 2017 11:00:25 by eja",
  "dcmmeta_affine": [
    [-2.6770522594451904, -0.17687101662158966, -0.014409560710191727, 118.67741394042969],
    [-0.17733925580978394, 2.6590282917022705, 0.31216010451316833, -92.51420593261719],
    [0.006258015520870686, -0.3104534149169922, 2.6818554401397705, -51.41645050048828],
    [0.0, 0.0, 0.0, 1.0]
],
  "dcmmeta_reorient_transform": [
    [0.0, -1.0, 0.0, 81.0],
    [1.0, 0.0, 0.0, 0.0],
    [0.0, 0.0, 1.0, 0.0],
    [0.0, 0.0, 0.0, 1.0]
],
  "dcmmeta_shape": [82, 82, 56, 872],
  "dcmmeta_slice_dim": 2,
  "dcmmeta_version": 0.6,
  "global": {
    "const": {
      "AccessionNumber": "A003583",
      "AcquisitionMatrix": [82, 0, 0, 82],
      "AngioFlag": "N",
      "BitsAllocated": 16,
      "BitsStored": 12,
      "BodyPartExamined": "BRAIN",
      "Columns": 656,
      "EchoNumbers": 1,
      "EchoTime": 27.2,
      "EchoTrainLength": 82,
      "FlipAngle": 44.0,
      "HighBit": 11,
      "ImageOrientationPatient": [0.99781033192856, 0.06609917387309, 0.00233253294, -0.0659246484116, 0.99109237970955, 0.11571445723619],
      "ImagePositionPatient": [-821.90285538046, -936.90461338897, -167.45936439085],
      "ImageType": [
        "ORIGINAL",
        "PRIMARY",
        "FMRI",
        "NONE",
        "MB",
        "ND",
        "NORM",
        "MOSAIC"
],
      "ImagedNucleus": "1H",
      "ImagingFrequency": 123.252559,
      "InPlanePhaseEncodingDirection": "COL",
      "MRAcquisitionType": "2D",
      "MagneticFieldStrength": 3.0,
      "Manufacturer": "SIEMENS",
      "ManufacturerModelName": "Prisma",
      "Modality": "MR",
      "NumberOfAverages": 1.0,
      "NumberOfPhaseEncodingSteps": 82,
      "PercentPhaseFieldOfView": 100.0,
      "PercentSampling": 100.0,
      "PerformedProcedureStepStartTime": "144530.354000",
      "PhotometricInterpretation": "MONOCHROME2",
      "PixelBandwidth": 3050.0,
      "PixelRepresentation": 0,
      "PixelSpacing": [2.6829268932343, 2.6829268932343],
      "ProtocolName": "func_run-02_task-social_acq-ap-mb8",
      "RepetitionTime": 460.0,
      "Rows": 656,
      "SAR": 0.08451028941298,
      "SamplesPerPixel": 1,
      "ScanOptions": "FS",
      "ScanningSequence": "EP",
      "SequenceName": "epfid2d1_82",
      "SequenceVariant": [
        "SK",
        "SS"
],
      "SeriesDescription": "func_run-02_task-social_acq-ap-mb8",
      "SeriesNumber": 18,
      "SeriesTime": "153439.996000",
      "SliceLocation": -62.400304542182,
      "SliceThickness": 2.7000000476837,
      "SmallestImagePixelValue": 0,
      "SoftwareVersions": "syngo MR E11",
      "SpacingBetweenSlices": 2.6999999480551,
      "SpecificCharacterSet": "ISO_IR 100",
      "StudyID": "1",
      "StudyTime": "144530.223000",
      "TransmitCoilName": "Body",
      "VariableFlipAngleFlag": "N",
      "WindowCenterWidthExplanation": "Algo1",
      "dBdt": 0.0},
    "slices": {}
  },
  "time": {
    "samples": {
      "AcquisitionNumber": [1, 2, 3, 4, 5, 6, 7, 8, 9, 10, 11, 12, 13, 14, 15, 16, 17, 18, 19, 20, 21, 22, 23, 24, 25, 26, 27, 28, 29, 30, 31, 32, 33, 34, 35, 36, 37, 38, 39, 40, 41, 42, 43, 44, 45, 46, 47, 48, 49, 50, 51, 52, 53, 54, 55, 56, 57, 58, 59, 60, 61, 62, 63, 64, 65, 66, 67, 68, 69, 70, 71, 72, 73, 74, 75, 76, 77, 78, 79, 80, 81, 82, 83, 84, 85, 86, 87, 88, 89, 90, 91, 92, 93, 94, 95, 96, 97, 98, 99, 100, 101, 102, 103, 104, 105, 106, 107, 108, 109, 110, 111, 112, 113, 114, 115, 116, 117, 118, 119, 120, 121, 122, 123, 124, 125, 126, 127, 128, 129, 130, 131, 132, 133, 134, 135, 136, 137, 138, 139, 140, 141, 142, 143, 144, 145, 146, 147, 148, 149, 150, 151, 152, 153, 154, 155, 156, 157, 158, 159, 160, 161, 162, 163, 164, 165, 166, 167, 168, 169, 170, 171, 172, 173, 174, 175, 176, 177, 178, 179, 180, 181, 182, 183, 184, 185, 186, 187, 188, 189, 190, 191, 192, 193, 194, 195, 196, 197, 198, 199, 200, 201, 202, 203, 204, 205, 206, 207, 208, 209, 210, 211, 212, 213, 214, 215, 216, 217, 218, 219, 220, 221, 222, 223, 224, 225, 226, 227, 228, 229, 230, 231, 232, 233, 234, 235, 236, 237, 238, 239, 240, 241, 242, 243, 244, 245, 246, 247, 248, 249, 250, 251, 252, 253, 254, 255, 256, 257, 258, 259, 260, 261, 262, 263, 264, 265, 266, 267, 268, 269, 270, 271, 272, 273, 274, 275, 276, 277, 278, 279, 280, 281, 282, 283, 284, 285, 286, 287, 288, 289, 290, 291, 292, 293, 294, 295, 296, 297, 298, 299, 300, 301, 302, 303, 304, 305, 306, 307, 308, 309, 310, 311, 312, 313, 314, 315, 316, 317, 318, 319, 320, 321, 322, 323, 324, 325, 326, 327, 328, 329, 330, 331, 332, 333, 334, 335, 336, 337, 338, 339, 340, 341, 342, 343, 344, 345, 346, 347, 348, 349, 350, 351, 352, 353, 354, 355, 356, 357, 358, 359, 360, 361, 362, 363, 364, 365, 366, 367, 368, 369, 370, 371, 372, 373, 374, 375, 376, 377, 378, 379, 380, 381, 382, 383, 384, 385, 386, 387, 388, 389, 390, 391, 392, 393, 394, 395, 396, 397, 398, 399, 400, 401, 402, 403, 404, 405, 406, 407, 408, 409, 410, 411, 412, 413, 414, 415, 416, 417, 418, 419, 420, 421, 422, 423, 424, 425, 426, 427, 428, 429, 430, 431, 432, 433, 434, 435, 436, 437, 438, 439, 440, 441, 442, 443, 444, 445, 446, 447, 448, 449, 450, 451, 452, 453, 454, 455, 456, 457, 458, 459, 460, 461, 462, 463, 464, 465, 466, 467, 468, 469, 470, 471, 472, 473, 474, 475, 476, 477, 478, 479, 480, 481, 482, 483, 484, 485, 486, 487, 488, 489, 490, 491, 492, 493, 494, 495, 496, 497, 498, 499, 500, 501, 502, 503, 504, 505, 506, 507, 508, 509, 510, 511, 512, 513, 514, 515, 516, 517, 518, 519, 520, 521, 522, 523, 524, 525, 526, 527, 528, 529, 530, 531, 532, 533, 534, 535, 536, 537, 538, 539, 540, 541, 542, 543, 544, 545, 546, 547, 548, 549, 550, 551, 552, 553, 554, 555, 556, 557, 558, 559, 560, 561, 562, 563, 564, 565, 566, 567, 568, 569, 570, 571, 572, 573, 574, 575, 576, 577, 578, 579, 580, 581, 582, 583, 584, 585, 586, 587, 588, 589, 590, 591, 592, 593, 594, 595, 596, 597, 598, 599, 600, 601, 602, 603, 604, 605, 606, 607, 608, 609, 610, 611, 612, 613, 614, 615, 616, 617, 618, 619, 620, 621, 622, 623, 624, 625, 626, 627, 628, 629, 630, 631, 632, 633, 634, 635, 636, 637, 638, 639, 640, 641, 642, 643, 644, 645, 646, 647, 648, 649, 650, 651, 652, 653, 654, 655, 656, 657, 658, 659, 660, 661, 662, 663, 664, 665, 666, 667, 668, 669, 670, 671, 672, 673, 674, 675, 676, 677, 678, 679, 680, 681, 682, 683, 684, 685, 686, 687, 688, 689, 690, 691, 692, 693, 694, 695, 696, 697, 698, 699, 700, 701, 702, 703, 704, 705, 706, 707, 708, 709, 710, 711, 712, 713, 714, 715, 716, 717, 718, 719, 720, 721, 722, 723, 724, 725, 726, 727, 728, 729, 730, 731, 732, 733, 734, 735, 736, 737, 738, 739, 740, 741, 742, 743, 744, 745, 746, 747, 748, 749, 750, 751, 752, 753, 754, 755, 756, 757, 758, 759, 760, 761, 762, 763, 764, 765, 766, 767, 768, 769, 770, 771, 772, 773, 774, 775, 776, 777, 778, 779, 780, 781, 782, 783, 784, 785, 786, 787, 788, 789, 790, 791, 792, 793, 794, 795, 796, 797, 798, 799, 800, 801, 802, 803, 804, 805, 806, 807, 808, 809, 810, 811, 812, 813, 814, 815, 816, 817, 818, 819, 820, 821, 822, 823, 824, 825, 826, 827, 828, 829, 830, 831, 832, 833, 834, 835, 836, 837, 838, 839, 840, 841, 842, 843, 844, 845, 846, 847, 848, 849, 850, 851, 852, 853, 854, 855, 856, 857, 858, 859, 860, 861, 862, 863, 864, 865, 866, 867, 868, 869, 870, 871, 872],
      "AcquisitionTime": ["153435.740000", "153436.200000", "153436.660000", "153437.120000", "153437.580000", "153438.040000", "153438.500000", "153438.960000", "153439.420000", "153439.880000", "153440.340000", "153440.800000", "153441.260000", "153441.720000", "153442.180000", "153442.640000", "153443.100000", "153443.560000", "153444.020000", "153444.480000", "153444.940000", "153445.400000", "153445.860000", "153446.320000", "153446.780000", "153447.240000", "153447.700000", "153448.160000", "153448.620000", "153449.080000", "153449.540000", "153450.000000", "153450.460000", "153450.920000", "153451.380000", "153451.840000", "153452.300000", "153452.760000", "153453.220000", "153453.680000", "153454.140000", "153454.600000", "153455.060000", "153455.520000", "153455.980000", "153456.440000", "153456.900000", "153457.360000", "153457.820000", "153458.280000", "153458.740000", "153459.200000", "153459.660000", "153500.120000", "153500.580000", "153501.040000", "153501.500000", "153501.960000", "153502.420000", "153502.880000", "153503.340000", "153503.800000", "153504.260000", "153504.720000", "153505.180000", "153505.640000", "153506.100000", "153506.560000", "153507.020000", "153507.480000", "153507.940000", "153508.400000", "153508.860000", "153509.320000", "153509.780000", "153510.240000", "153510.700000", "153511.160000", "153511.620000", "153512.080000", "153512.540000", "153513.000000", "153513.460000", "153513.920000", "153514.380000", "153514.840000", "153515.300000", "153515.760000", "153516.220000", "153516.680000", "153517.140000", "153517.600000", "153518.060000", "153518.520000", "153518.980000", "153519.440000", "153519.900000", "153520.360000", "153520.820000", "153521.280000", "153521.740000", "153522.200000", "153522.660000", "153523.120000", "153523.580000", "153524.040000", "153524.500000", "153524.960000", "153525.420000", "153525.880000", "153526.340000", "153526.800000", "153527.260000", "153527.720000", "153528.180000", "153528.640000", "153529.100000", "153529.560000", "153530.020000", "153530.480000", "153530.940000", "153531.400000", "153531.860000", "153532.320000", "153532.780000", "153533.240000", "153533.700000", "153534.160000", "153534.620000", "153535.080000", "153535.540000", "153536.000000", "153536.460000", "153536.920000", "153537.380000", "153537.840000", "153538.300000", "153538.760000", "153539.220000", "153539.680000", "153540.140000", "153540.600000", "153541.060000", "153541.520000", "153541.980000", "153542.440000", "153542.900000", "153543.360000", "153543.820000", "153544.280000", "153544.740000", "153545.200000", "153545.660000", "153546.120000", "153546.580000", "153547.040000", "153547.500000", "153547.960000", "153548.420000", "153548.880000", "153549.340000", "153549.800000", "153550.260000", "153550.720000", "153551.180000", "153551.640000", "153552.100000", "153552.560000", "153553.020000", "153553.480000", "153553.940000", "153554.400000", "153554.860000", "153555.320000", "153555.780000", "153556.240000", "153556.700000", "153557.160000", "153557.620000", "153558.080000", "153558.540000", "153559.000000", "153559.460000", "153559.920000", "153600.380000", "153600.840000", "153601.300000", "153601.760000", "153602.220000", "153602.680000", "153603.140000", "153603.600000", "153604.060000", "153604.520000", "153604.980000", "153605.440000", "153605.900000", "153606.360000", "153606.820000", "153607.280000", "153607.740000", "153608.200000", "153608.660000", "153609.120000", "153609.580000", "153610.040000", "153610.500000", "153610.960000", "153611.420000", "153611.880000", "153612.340000", "153612.800000", "153613.260000", "153613.720000", "153614.180000", "153614.640000", "153615.100000", "153615.560000", "153616.020000", "153616.480000", "153616.940000", "153617.400000", "153617.860000", "153618.320000", "153618.780000", "153619.240000", "153619.700000", "153620.160000", "153620.620000", "153621.080000", "153621.540000", "153622.000000", "153622.460000", "153622.920000", "153623.380000", "153623.840000", "153624.300000", "153624.760000", "153625.220000", "153625.680000", "153626.140000", "153626.600000", "153627.060000", "153627.520000", "153627.980000", "153628.440000", "153628.900000", "153629.360000", "153629.820000", "153630.280000", "153630.740000", "153631.200000", "153631.660000", "153632.120000", "153632.580000", "153633.040000", "153633.500000", "153633.960000", "153634.420000", "153634.880000", "153635.340000", "153635.800000", "153636.260000", "153636.720000", "153637.180000", "153637.640000", "153638.100000", "153638.560000", "153639.020000", "153639.480000", "153639.940000", "153640.400000", "153640.860000", "153641.320000", "153641.780000", "153642.240000", "153642.700000", "153643.160000", "153643.620000", "153644.080000", "153644.540000", "153645.000000", "153645.460000", "153645.920000", "153646.380000", "153646.840000", "153647.300000", "153647.760000", "153648.220000", "153648.680000", "153649.140000", "153649.600000", "153650.060000", "153650.520000", "153650.980000", "153651.440000", "153651.900000", "153652.360000", "153652.820000", "153653.280000", "153653.740000", "153654.200000", "153654.660000", "153655.120000", "153655.580000", "153656.040000", "153656.500000", "153656.960000", "153657.420000", "153657.880000", "153658.340000", "153658.800000", "153659.260000", "153659.720000", "153700.180000", "153700.640000", "153701.100000", "153701.560000", "153702.020000", "153702.480000", "153702.940000", "153703.400000", "153703.860000", "153704.320000", "153704.780000", "153705.240000", "153705.700000", "153706.160000", "153706.620000", "153707.080000", "153707.540000", "153708.000000", "153708.460000", "153708.920000", "153709.380000", "153709.840000", "153710.300000", "153710.760000", "153711.220000", "153711.680000", "153712.140000", "153712.600000", "153713.060000", "153713.520000", "153713.980000", "153714.440000", "153714.900000", "153715.360000", "153715.820000", "153716.280000", "153716.740000", "153717.200000", "153717.660000", "153718.120000", "153718.580000", "153719.040000", "153719.500000", "153719.960000", "153720.420000", "153720.880000", "153721.340000", "153721.800000", "153722.260000", "153722.720000", "153723.180000", "153723.640000", "153724.100000", "153724.560000", "153725.020000", "153725.480000", "153725.940000", "153726.400000", "153726.860000", "153727.320000", "153727.780000", "153728.240000", "153728.700000", "153729.160000", "153729.620000", "153730.080000", "153730.540000", "153731.000000", "153731.460000", "153731.920000", "153732.380000", "153732.840000", "153733.300000", "153733.760000", "153734.220000", "153734.680000", "153735.140000", "153735.600000", "153736.060000", "153736.520000", "153736.980000", "153737.440000", "153737.900000", "153738.360000", "153738.820000", "153739.280000", "153739.740000", "153740.200000", "153740.660000", "153741.120000", "153741.580000", "153742.040000", "153742.500000", "153742.960000", "153743.420000", "153743.880000", "153744.340000", "153744.800000", "153745.260000", "153745.720000", "153746.180000", "153746.640000", "153747.100000", "153747.560000", "153748.020000", "153748.480000", "153748.940000", "153749.400000", "153749.860000", "153750.320000", "153750.780000", "153751.240000", "153751.700000", "153752.160000", "153752.620000", "153753.080000", "153753.540000", "153754.000000", "153754.460000", "153754.920000", "153755.380000", "153755.840000", "153756.300000", "153756.760000", "153757.220000", "153757.680000", "153758.140000", "153758.600000", "153759.060000", "153759.520000", "153759.980000", "153800.440000", "153800.900000", "153801.360000", "153801.820000", "153802.280000", "153802.740000", "153803.200000", "153803.660000", "153804.120000", "153804.580000", "153805.040000", "153805.500000", "153805.960000", "153806.420000", "153806.880000", "153807.340000", "153807.800000", "153808.260000", "153808.720000", "153809.180000", "153809.640000", "153810.100000", "153810.560000", "153811.020000", "153811.480000", "153811.940000", "153812.400000", "153812.860000", "153813.320000", "153813.780000", "153814.240000", "153814.700000", "153815.160000", "153815.620000", "153816.080000", "153816.540000", "153817.000000", "153817.460000", "153817.920000", "153818.380000", "153818.840000", "153819.300000", "153819.760000", "153820.220000", "153820.680000", "153821.140000", "153821.600000", "153822.060000", "153822.520000", "153822.980000", "153823.440000", "153823.900000", "153824.360000", "153824.820000", "153825.280000", "153825.740000", "153826.200000", "153826.660000", "153827.120000", "153827.580000", "153828.040000", "153828.500000", "153828.960000", "153829.420000", "153829.880000", "153830.340000", "153830.800000", "153831.260000", "153831.720000", "153832.180000", "153832.640000", "153833.100000", "153833.560000", "153834.020000", "153834.480000", "153834.940000", "153835.400000", "153835.860000", "153836.320000", "153836.780000", "153837.240000", "153837.700000", "153838.160000", "153838.620000", "153839.080000", "153839.540000", "153840.000000", "153840.460000", "153840.920000", "153841.380000", "153841.840000", "153842.300000", "153842.760000", "153843.220000", "153843.680000", "153844.140000", "153844.600000", "153845.060000", "153845.520000", "153845.980000", "153846.440000", "153846.900000", "153847.360000", "153847.820000", "153848.280000", "153848.740000", "153849.200000", "153849.660000", "153850.120000", "153850.580000", "153851.040000", "153851.500000", "153851.960000", "153852.420000", "153852.880000", "153853.340000", "153853.800000", "153854.260000", "153854.720000", "153855.180000", "153855.640000", "153856.100000", "153856.560000", "153857.020000", "153857.480000", "153857.940000", "153858.400000", "153858.860000", "153859.320000", "153859.780000", "153900.240000", "153900.700000", "153901.160000", "153901.620000", "153902.080000", "153902.540000", "153903.000000", "153903.460000", "153903.920000", "153904.380000", "153904.840000", "153905.300000", "153905.760000", "153906.220000", "153906.680000", "153907.140000", "153907.600000", "153908.060000", "153908.520000", "153908.980000", "153909.440000", "153909.900000", "153910.360000", "153910.820000", "153911.280000", "153911.740000", "153912.200000", "153912.660000", "153913.120000", "153913.580000", "153914.040000", "153914.500000", "153914.960000", "153915.420000", "153915.880000", "153916.340000", "153916.800000", "153917.260000", "153917.720000", "153918.180000", "153918.640000", "153919.100000", "153919.560000", "153920.020000", "153920.480000", "153920.940000", "153921.400000", "153921.860000", "153922.320000", "153922.780000", "153923.240000", "153923.700000", "153924.160000", "153924.620000", "153925.080000", "153925.540000", "153926.000000", "153926.460000", "153926.920000", "153927.380000", "153927.840000", "153928.300000", "153928.760000", "153929.220000", "153929.680000", "153930.140000", "153930.600000", "153931.060000", "153931.520000", "153931.980000", "153932.440000", "153932.900000", "153933.360000", "153933.820000", "153934.280000", "153934.740000", "153935.200000", "153935.660000", "153936.120000", "153936.580000", "153937.040000", "153937.500000", "153937.960000", "153938.420000", "153938.880000", "153939.340000", "153939.800000", "153940.260000", "153940.720000", "153941.180000", "153941.640000", "153942.100000", "153942.560000", "153943.020000", "153943.480000", "153943.940000", "153944.400000", "153944.860000", "153945.320000", "153945.780000", "153946.240000", "153946.700000", "153947.160000", "153947.620000", "153948.080000", "153948.540000", "153949.000000", "153949.460000", "153949.920000", "153950.380000", "153950.840000", "153951.300000", "153951.760000", "153952.220000", "153952.680000", "153953.140000", "153953.600000", "153954.060000", "153954.520000", "153954.980000", "153955.440000", "153955.900000", "153956.360000", "153956.820000", "153957.280000", "153957.740000", "153958.200000", "153958.660000", "153959.120000", "153959.580000", "154000.040000", "154000.500000", "154000.960000", "154001.420000", "154001.880000", "154002.340000", "154002.800000", "154003.260000", "154003.720000", "154004.180000", "154004.640000", "154005.100000", "154005.560000", "154006.020000", "154006.480000", "154006.940000", "154007.400000", "154007.860000", "154008.320000", "154008.780000", "154009.240000", "154009.700000", "154010.160000", "154010.620000", "154011.080000", "154011.540000", "154012.000000", "154012.460000", "154012.920000", "154013.380000", "154013.840000", "154014.300000", "154014.760000", "154015.220000", "154015.680000", "154016.140000", "154016.600000", "154017.060000", "154017.520000", "154017.980000", "154018.440000", "154018.900000", "154019.360000", "154019.820000", "154020.280000", "154020.740000", "154021.200000", "154021.660000", "154022.120000", "154022.580000", "154023.040000", "154023.500000", "154023.960000", "154024.420000", "154024.880000", "154025.340000", "154025.800000", "154026.260000", "154026.720000", "154027.180000", "154027.640000", "154028.100000", "154028.560000", "154029.020000", "154029.480000", "154029.940000", "154030.400000", "154030.860000", "154031.320000", "154031.780000", "154032.240000", "154032.700000", "154033.160000", "154033.620000", "154034.080000", "154034.540000", "154035.000000", "154035.460000", "154035.920000", "154036.380000", "154036.840000", "154037.300000", "154037.760000", "154038.220000", "154038.680000", "154039.140000", "154039.600000", "154040.060000", "154040.520000", "154040.980000", "154041.440000", "154041.900000", "154042.360000", "154042.820000", "154043.280000", "154043.740000", "154044.200000", "154044.660000", "154045.120000", "154045.580000", "154046.040000", "154046.500000", "154046.960000", "154047.420000", "154047.880000", "154048.340000", "154048.800000", "154049.260000", "154049.720000", "154050.180000", "154050.640000", "154051.100000", "154051.560000", "154052.020000", "154052.480000", "154052.940000", "154053.400000", "154053.860000", "154054.320000", "154054.780000", "154055.240000", "154055.700000", "154056.160000", "154056.620000", "154057.080000", "154057.540000", "154058.000000", "154058.460000", "154058.920000", "154059.380000", "154059.840000", "154100.300000", "154100.760000", "154101.220000", "154101.680000", "154102.140000", "154102.600000", "154103.060000", "154103.520000", "154103.980000", "154104.440000", "154104.900000", "154105.360000", "154105.820000", "154106.280000", "154106.740000", "154107.200000", "154107.660000", "154108.120000", "154108.580000", "154109.040000", "154109.500000", "154109.960000", "154110.420000", "154110.880000", "154111.340000", "154111.800000", "154112.260000", "154112.720000", "154113.180000", "154113.640000", "154114.100000", "154114.560000", "154115.020000", "154115.480000", "154115.940000", "154116.400000"],
