{
  "AcquisitionMatrixPE": 82,
  "AcquisitionNumber": 1,
  "AcquisitionTime": "16:50:11.262500",
  "BandwidthPerPixelPhaseEncode": 24.888,
  "BaseResolution": 82,
  "BodyPartExamined": "BRAIN",
  "ConsistencyInfo": "N4_VE11C_LATEST_20160120",
  "ConversionSoftware": "dcm2niix",
  "ConversionSoftwareVersion": "v1.0.20201102",
  "DerivedVendorReportedEchoSpacing": 0.00049,
  "DeviceSerialNumber": "66112",
  "DwellTime": 2e-06,
  "EchoTime": 0.0272,
  "EchoTrainLength": 82,
  "EffectiveEchoSpacing": 0.00049,
  "FlipAngle": 44,
  "ImageComments": "Unaliased MB8/PE3",
  "ImageOrientationPatientDICOM": [0.993882, 0.110396, 0.00331058, -0.110252, 0.993471, -0.0293218],
  "ImageType": [
    "ORIGINAL",
    "PRIMARY",
    "FMRI",
    "NONE",
    "MB",
    "ND",
    "NORM",
    "MOSAIC"
],
  "ImagingFrequency": 123.253,
  "InPlanePhaseEncodingDirectionDICOM": "COL",
  "InstitutionAddress": "Maynard 3,Hanover,NH,US,03755",
  "InstitutionName": "Dartmouth College - PBS",
  "InstitutionalDepartmentName": "Department",
  "MRAcquisitionType": "2D",
  "MagneticFieldStrength": 3,
  "Manufacturer": "Siemens",
  "ManufacturersModelName": "Prisma",
  "Modality": "MR",
  "MultibandAccelerationFactor": 8,
  "PartialFourier": 1,
  "PatientPosition": "HFS",
  "PercentPhaseFOV": 100,
  "PercentSampling": 100,
  "PhaseEncodingDirection": "j-",
  "PhaseEncodingSteps": 82,
  "PhaseResolution": 1,
  "PixelBandwidth": 3050,
  "ProcedureStepDescription": "Wager_Wager^1076_spacetop",
  "ProtocolName": "func_run-03_task-alignvideo_acq-ap-mb8",
  "PulseSequenceDetails": "%CustomerSeq%\\cmrr_mbep2d_bold",
  "ReceiveCoilActiveElements": "HEA;HEP",
  "ReceiveCoilName": "Head_32",
  "ReconMatrixPE": 82,
  "RepetitionTime": 0.46,
  "SAR": 0.0845848,
  "ScanOptions": "FS",
  "ScanningSequence": "EP",
  "SequenceName": "epfid2d1_82",
  "SequenceVariant": "SK\\SS",
  "SeriesDescription": "func_run-03_task-alignvideo_acq-ap-mb8",
  "SeriesNumber": 77,
  "ShimSetting": [4162, -7787, -7250, 553, 35, -343, 46, 46],
  "SliceThickness": 2.7,
  "SliceTiming": [0, 0.25, 0.0625, 0.315, 0.125, 0.3775, 0.1875, 0, 0.25, 0.0625, 0.315, 0.125, 0.3775, 0.1875, 0, 0.25, 0.0625, 0.315, 0.125, 0.3775, 0.1875, 0, 0.25, 0.0625, 0.315, 0.125, 0.3775, 0.1875, 0, 0.25, 0.0625, 0.315, 0.125, 0.3775, 0.1875, 0, 0.25, 0.0625, 0.315, 0.125, 0.3775, 0.1875, 0, 0.25, 0.0625, 0.315, 0.125, 0.3775, 0.1875, 0, 0.25, 0.0625, 0.315, 0.125, 0.3775, 0.1875],
  "SoftwareVersions": "syngo MR E11",
  "SpacingBetweenSlices": 2.7,
  "StationName": "AWP66112",
  "TaskName": "alignvideo",
  "TotalReadoutTime": 0.03969,
  "TxRefAmp": 235.085,
  "WipMemBlock": "8e70d765-569e-4176-964e-acecd36e9615||Sequence: R016 ve11c/master r/e634e98; Dec 19 2017 11:00:25 by eja",
  "dcmmeta_affine": [
    [-2.666513204574585, -0.2957990765571594, 0.017620105296373367, 121.7525634765625],
    [-0.29618364572525024, 2.665410041809082, -0.07769889384508133, -77.8521957397461],
    [0.008882054127752781, 0.07866811752319336, 2.698824167251587, -66.46949005126953],
    [0.0, 0.0, 0.0, 1.0]
],
  "dcmmeta_reorient_transform": [
    [0.0, -1.0, 0.0, 81.0],
    [1.0, 0.0, 0.0, 0.0],
    [0.0, 0.0, 1.0, 0.0],
    [0.0, 0.0, 0.0, 1.0]
],
  "dcmmeta_shape": [82, 82, 56, 1016],
  "dcmmeta_slice_dim": 2,
  "dcmmeta_version": 0.6,
  "global": {
    "const": {
      "AccessionNumber": "A003583",
      "AcquisitionMatrix": [82, 0, 0, 82],
      "AngioFlag": "N",
      "BitsAllocated": 16,
      "BitsStored": 12,
      "BodyPartExamined": "BRAIN",
      "Columns": 656,
      "EchoNumbers": 1,
      "EchoTime": 27.2,
      "EchoTrainLength": 82,
      "FlipAngle": 44.0,
      "HighBit": 11,
      "ImageOrientationPatient": [0.99388219841991, 0.11039572318909, 0.00331058387153, -0.1102523806708, 0.99347100985817, -0.029321751786],
      "ImagePositionPatient": [-778.18781754284, -988.02343000433, -40.068774594843],
      "ImageType": [
        "ORIGINAL",
        "PRIMARY",
        "FMRI",
        "NONE",
        "MB",
        "ND",
        "NORM",
        "MOSAIC"
],
      "ImagedNucleus": "1H",
      "ImagingFrequency": 123.252563,
      "InPlanePhaseEncodingDirection": "COL",
      "MRAcquisitionType": "2D",
      "MagneticFieldStrength": 3.0,
      "Manufacturer": "SIEMENS",
      "ManufacturerModelName": "Prisma",
      "Modality": "MR",
      "NumberOfAverages": 1.0,
      "NumberOfPhaseEncodingSteps": 82,
      "PercentPhaseFieldOfView": 100.0,
      "PercentSampling": 100.0,
      "PerformedProcedureStepStartTime": "144530.354000",
      "PhotometricInterpretation": "MONOCHROME2",
      "PixelBandwidth": 3050.0,
      "PixelRepresentation": 0,
      "PixelSpacing": [2.6829268932343, 2.6829268932343],
      "ProtocolName": "func_run-03_task-alignvideo_acq-ap-mb8",
      "RepetitionTime": 460.0,
      "Rows": 656,
      "SAR": 0.08458480393348,
      "SamplesPerPixel": 1,
      "ScanOptions": "FS",
      "ScanningSequence": "EP",
      "SequenceName": "epfid2d1_82",
      "SequenceVariant": [
        "SK",
        "SS"
],
      "SeriesDescription": "func_run-03_task-alignvideo_acq-ap-mb8",
      "SeriesNumber": 77,
      "SeriesTime": "165014.904000",
      "SliceLocation": -63.405613035629,
      "SliceThickness": 2.7000000476837,
      "SmallestImagePixelValue": 0,
      "SoftwareVersions": "syngo MR E11",
      "SpacingBetweenSlices": 2.6999999760095,
      "SpecificCharacterSet": "ISO_IR 100",
      "StudyID": "1",
      "StudyTime": "144530.223000",
      "TransmitCoilName": "Body",
      "VariableFlipAngleFlag": "N",
      "WindowCenterWidthExplanation": "Algo1",
      "dBdt": 0.0},
    "slices": {}
  },
  "time": {
    "samples": {
      "AcquisitionNumber": [1, 2, 3, 4, 5, 6, 7, 8, 9, 10, 11, 12, 13, 14, 15, 16, 17, 18, 19, 20, 21, 22, 23, 24, 25, 26, 27, 28, 29, 30, 31, 32, 33, 34, 35, 36, 37, 38, 39, 40, 41, 42, 43, 44, 45, 46, 47, 48, 49, 50, 51, 52, 53, 54, 55, 56, 57, 58, 59, 60, 61, 62, 63, 64, 65, 66, 67, 68, 69, 70, 71, 72, 73, 74, 75, 76, 77, 78, 79, 80, 81, 82, 83, 84, 85, 86, 87, 88, 89, 90, 91, 92, 93, 94, 95, 96, 97, 98, 99, 100, 101, 102, 103, 104, 105, 106, 107, 108, 109, 110, 111, 112, 113, 114, 115, 116, 117, 118, 119, 120, 121, 122, 123, 124, 125, 126, 127, 128, 129, 130, 131, 132, 133, 134, 135, 136, 137, 138, 139, 140, 141, 142, 143, 144, 145, 146, 147, 148, 149, 150, 151, 152, 153, 154, 155, 156, 157, 158, 159, 160, 161, 162, 163, 164, 165, 166, 167, 168, 169, 170, 171, 172, 173, 174, 175, 176, 177, 178, 179, 180, 181, 182, 183, 184, 185, 186, 187, 188, 189, 190, 191, 192, 193, 194, 195, 196, 197, 198, 199, 200, 201, 202, 203, 204, 205, 206, 207, 208, 209, 210, 211, 212, 213, 214, 215, 216, 217, 218, 219, 220, 221, 222, 223, 224, 225, 226, 227, 228, 229, 230, 231, 232, 233, 234, 235, 236, 237, 238, 239, 240, 241, 242, 243, 244, 245, 246, 247, 248, 249, 250, 251, 252, 253, 254, 255, 256, 257, 258, 259, 260, 261, 262, 263, 264, 265, 266, 267, 268, 269, 270, 271, 272, 273, 274, 275, 276, 277, 278, 279, 280, 281, 282, 283, 284, 285, 286, 287, 288, 289, 290, 291, 292, 293, 294, 295, 296, 297, 298, 299, 300, 301, 302, 303, 304, 305, 306, 307, 308, 309, 310, 311, 312, 313, 314, 315, 316, 317, 318, 319, 320, 321, 322, 323, 324, 325, 326, 327, 328, 329, 330, 331, 332, 333, 334, 335, 336, 337, 338, 339, 340, 341, 342, 343, 344, 345, 346, 347, 348, 349, 350, 351, 352, 353, 354, 355, 356, 357, 358, 359, 360, 361, 362, 363, 364, 365, 366, 367, 368, 369, 370, 371, 372, 373, 374, 375, 376, 377, 378, 379, 380, 381, 382, 383, 384, 385, 386, 387, 388, 389, 390, 391, 392, 393, 394, 395, 396, 397, 398, 399, 400, 401, 402, 403, 404, 405, 406, 407, 408, 409, 410, 411, 412, 413, 414, 415, 416, 417, 418, 419, 420, 421, 422, 423, 424, 425, 426, 427, 428, 429, 430, 431, 432, 433, 434, 435, 436, 437, 438, 439, 440, 441, 442, 443, 444, 445, 446, 447, 448, 449, 450, 451, 452, 453, 454, 455, 456, 457, 458, 459, 460, 461, 462, 463, 464, 465, 466, 467, 468, 469, 470, 471, 472, 473, 474, 475, 476, 477, 478, 479, 480, 481, 482, 483, 484, 485, 486, 487, 488, 489, 490, 491, 492, 493, 494, 495, 496, 497, 498, 499, 500, 501, 502, 503, 504, 505, 506, 507, 508, 509, 510, 511, 512, 513, 514, 515, 516, 517, 518, 519, 520, 521, 522, 523, 524, 525, 526, 527, 528, 529, 530, 531, 532, 533, 534, 535, 536, 537, 538, 539, 540, 541, 542, 543, 544, 545, 546, 547, 548, 549, 550, 551, 552, 553, 554, 555, 556, 557, 558, 559, 560, 561, 562, 563, 564, 565, 566, 567, 568, 569, 570, 571, 572, 573, 574, 575, 576, 577, 578, 579, 580, 581, 582, 583, 584, 585, 586, 587, 588, 589, 590, 591, 592, 593, 594, 595, 596, 597, 598, 599, 600, 601, 602, 603, 604, 605, 606, 607, 608, 609, 610, 611, 612, 613, 614, 615, 616, 617, 618, 619, 620, 621, 622, 623, 624, 625, 626, 627, 628, 629, 630, 631, 632, 633, 634, 635, 636, 637, 638, 639, 640, 641, 642, 643, 644, 645, 646, 647, 648, 649, 650, 651, 652, 653, 654, 655, 656, 657, 658, 659, 660, 661, 662, 663, 664, 665, 666, 667, 668, 669, 670, 671, 672, 673, 674, 675, 676, 677, 678, 679, 680, 681, 682, 683, 684, 685, 686, 687, 688, 689, 690, 691, 692, 693, 694, 695, 696, 697, 698, 699, 700, 701, 702, 703, 704, 705, 706, 707, 708, 709, 710, 711, 712, 713, 714, 715, 716, 717, 718, 719, 720, 721, 722, 723, 724, 725, 726, 727, 728, 729, 730, 731, 732, 733, 734, 735, 736, 737, 738, 739, 740, 741, 742, 743, 744, 745, 746, 747, 748, 749, 750, 751, 752, 753, 754, 755, 756, 757, 758, 759, 760, 761, 762, 763, 764, 765, 766, 767, 768, 769, 770, 771, 772, 773, 774, 775, 776, 777, 778, 779, 780, 781, 782, 783, 784, 785, 786, 787, 788, 789, 790, 791, 792, 793, 794, 795, 796, 797, 798, 799, 800, 801, 802, 803, 804, 805, 806, 807, 808, 809, 810, 811, 812, 813, 814, 815, 816, 817, 818, 819, 820, 821, 822, 823, 824, 825, 826, 827, 828, 829, 830, 831, 832, 833, 834, 835, 836, 837, 838, 839, 840, 841, 842, 843, 844, 845, 846, 847, 848, 849, 850, 851, 852, 853, 854, 855, 856, 857, 858, 859, 860, 861, 862, 863, 864, 865, 866, 867, 868, 869, 870, 871, 872, 873, 874, 875, 876, 877, 878, 879, 880, 881, 882, 883, 884, 885, 886, 887, 888, 889, 890, 891, 892, 893, 894, 895, 896, 897, 898, 899, 900, 901, 902, 903, 904, 905, 906, 907, 908, 909, 910, 911, 912, 913, 914, 915, 916, 917, 918, 919, 920, 921, 922, 923, 924, 925, 926, 927, 928, 929, 930, 931, 932, 933, 934, 935, 936, 937, 938, 939, 940, 941, 942, 943, 944, 945, 946, 947, 948, 949, 950, 951, 952, 953, 954, 955, 956, 957, 958, 959, 960, 961, 962, 963, 964, 965, 966, 967, 968, 969, 970, 971, 972, 973, 974, 975, 976, 977, 978, 979, 980, 981, 982, 983, 984, 985, 986, 987, 988, 989, 990, 991, 992, 993, 994, 995, 996, 997, 998, 999, 1000, 1001, 1002, 1003, 1004, 1005, 1006, 1007, 1008, 1009, 1010, 1011, 1012, 1013, 1014, 1015, 1016],
      "AcquisitionTime": ["165011.262500", "165011.722500", "165012.182500", "165012.642500", "165013.102500", "165013.562500", "165014.022500", "165014.482500", "165014.942500", "165015.402500", "165015.862500", "165016.322500", "165016.782500", "165017.242500", "165017.702500", "165018.162500", "165018.622500", "165019.082500", "165019.542500", "165020.002500", "165020.462500", "165020.922500", "165021.382500", "165021.842500", "165022.302500", "165022.762500", "165023.222500", "165023.682500", "165024.142500", "165024.602500", "165025.062500", "165025.522500", "165025.982500", "165026.442500", "165026.902500", "165027.362500", "165027.822500", "165028.282500", "165028.742500", "165029.202500", "165029.662500", "165030.122500", "165030.582500", "165031.042500", "165031.502500", "165031.962500", "165032.422500", "165032.882500", "165033.342500", "165033.802500", "165034.262500", "165034.722500", "165035.182500", "165035.642500", "165036.102500", "165036.562500", "165037.022500", "165037.482500", "165037.942500", "165038.402500", "165038.862500", "165039.322500", "165039.782500", "165040.242500", "165040.702500", "165041.162500", "165041.622500", "165042.082500", "165042.542500", "165043.002500", "165043.462500", "165043.922500", "165044.382500", "165044.842500", "165045.302500", "165045.762500", "165046.222500", "165046.682500", "165047.142500", "165047.602500", "165048.062500", "165048.522500", "165048.982500", "165049.442500", "165049.902500", "165050.362500", "165050.822500", "165051.282500", "165051.742500", "165052.202500", "165052.662500", "165053.122500", "165053.582500", "165054.042500", "165054.502500", "165054.962500", "165055.422500", "165055.882500", "165056.342500", "165056.802500", "165057.262500", "165057.722500", "165058.182500", "165058.642500", "165059.102500", "165059.562500", "165100.022500", "165100.482500", "165100.942500", "165101.402500", "165101.862500", "165102.322500", "165102.782500", "165103.242500", "165103.702500", "165104.162500", "165104.622500", "165105.082500", "165105.542500", "165106.002500", "165106.462500", "165106.922500", "165107.382500", "165107.842500", "165108.302500", "165108.762500", "165109.222500", "165109.682500", "165110.142500", "165110.602500", "165111.062500", "165111.522500", "165111.982500", "165112.442500", "165112.902500", "165113.362500", "165113.822500", "165114.282500", "165114.742500", "165115.202500", "165115.662500", "165116.122500", "165116.582500", "165117.042500", "165117.502500", "165117.962500", "165118.422500", "165118.882500", "165119.342500", "165119.802500", "165120.262500", "165120.722500", "165121.182500", "165121.642500", "165122.102500", "165122.562500", "165123.022500", "165123.482500", "165123.942500", "165124.402500", "165124.862500", "165125.322500", "165125.782500", "165126.242500", "165126.702500", "165127.162500", "165127.622500", "165128.082500", "165128.542500", "165129.002500", "165129.462500", "165129.922500", "165130.382500", "165130.842500", "165131.302500", "165131.762500", "165132.222500", "165132.682500", "165133.142500", "165133.602500", "165134.062500", "165134.522500", "165134.982500", "165135.442500", "165135.902500", "165136.362500", "165136.822500", "165137.282500", "165137.742500", "165138.202500", "165138.662500", "165139.122500", "165139.582500", "165140.042500", "165140.502500", "165140.962500", "165141.422500", "165141.882500", "165142.342500", "165142.802500", "165143.262500", "165143.722500", "165144.182500", "165144.642500", "165145.102500", "165145.562500", "165146.022500", "165146.482500", "165146.942500", "165147.402500", "165147.862500", "165148.322500", "165148.782500", "165149.242500", "165149.702500", "165150.162500", "165150.622500", "165151.082500", "165151.542500", "165152.002500", "165152.462500", "165152.922500", "165153.382500", "165153.842500", "165154.302500", "165154.762500", "165155.222500", "165155.682500", "165156.142500", "165156.602500", "165157.062500", "165157.522500", "165157.982500", "165158.442500", "165158.902500", "165159.362500", "165159.822500", "165200.282500", "165200.742500", "165201.202500", "165201.662500", "165202.122500", "165202.582500", "165203.042500", "165203.502500", "165203.962500", "165204.422500", "165204.882500", "165205.342500", "165205.802500", "165206.262500", "165206.722500", "165207.182500", "165207.642500", "165208.102500", "165208.562500", "165209.022500", "165209.482500", "165209.942500", "165210.402500", "165210.862500", "165211.322500", "165211.782500", "165212.242500", "165212.702500", "165213.162500", "165213.622500", "165214.082500", "165214.542500", "165215.002500", "165215.462500", "165215.922500", "165216.382500", "165216.842500", "165217.302500", "165217.762500", "165218.222500", "165218.682500", "165219.142500", "165219.602500", "165220.062500", "165220.522500", "165220.982500", "165221.442500", "165221.902500", "165222.362500", "165222.822500", "165223.282500", "165223.742500", "165224.202500", "165224.662500", "165225.122500", "165225.582500", "165226.042500", "165226.502500", "165226.962500", "165227.422500", "165227.882500", "165228.342500", "165228.802500", "165229.262500", "165229.722500", "165230.182500", "165230.642500", "165231.102500", "165231.562500", "165232.022500", "165232.482500", "165232.942500", "165233.402500", "165233.862500", "165234.322500", "165234.782500", "165235.242500", "165235.702500", "165236.162500", "165236.622500", "165237.082500", "165237.542500", "165238.002500", "165238.462500", "165238.922500", "165239.382500", "165239.842500", "165240.302500", "165240.762500", "165241.222500", "165241.682500", "165242.142500", "165242.602500", "165243.062500", "165243.522500", "165243.982500", "165244.442500", "165244.902500", "165245.362500", "165245.822500", "165246.282500", "165246.742500", "165247.202500", "165247.662500", "165248.122500", "165248.582500", "165249.042500", "165249.502500", "165249.962500", "165250.422500", "165250.882500", "165251.342500", "165251.802500", "165252.262500", "165252.722500", "165253.182500", "165253.642500", "165254.102500", "165254.562500", "165255.022500", "165255.482500", "165255.942500", "165256.402500", "165256.862500", "165257.322500", "165257.782500", "165258.242500", "165258.702500", "165259.162500", "165259.622500", "165300.082500", "165300.542500", "165301.002500", "165301.462500", "165301.922500", "165302.382500", "165302.842500", "165303.302500", "165303.762500", "165304.222500", "165304.682500", "165305.142500", "165305.602500", "165306.062500", "165306.522500", "165306.982500", "165307.442500", "165307.902500", "165308.362500", "165308.822500", "165309.282500", "165309.742500", "165310.202500", "165310.662500", "165311.122500", "165311.582500", "165312.042500", "165312.502500", "165312.962500", "165313.422500", "165313.882500", "165314.342500", "165314.802500", "165315.262500", "165315.722500", "165316.182500", "165316.642500", "165317.102500", "165317.562500", "165318.022500", "165318.482500", "165318.942500", "165319.402500", "165319.862500", "165320.322500", "165320.782500", "165321.242500", "165321.702500", "165322.162500", "165322.622500", "165323.082500", "165323.542500", "165324.002500", "165324.462500", "165324.922500", "165325.382500", "165325.842500", "165326.302500", "165326.762500", "165327.222500", "165327.682500", "165328.142500", "165328.602500", "165329.062500", "165329.522500", "165329.982500", "165330.442500", "165330.902500", "165331.362500", "165331.822500", "165332.282500", "165332.742500", "165333.202500", "165333.662500", "165334.122500", "165334.582500", "165335.042500", "165335.502500", "165335.962500", "165336.422500", "165336.882500", "165337.342500", "165337.802500", "165338.262500", "165338.722500", "165339.182500", "165339.642500", "165340.102500", "165340.562500", "165341.022500", "165341.482500", "165341.942500", "165342.402500", "165342.862500", "165343.322500", "165343.782500", "165344.242500", "165344.702500", "165345.162500", "165345.622500", "165346.082500", "165346.542500", "165347.002500", "165347.462500", "165347.922500", "165348.382500", "165348.842500", "165349.302500", "165349.762500", "165350.222500", "165350.682500", "165351.142500", "165351.602500", "165352.062500", "165352.522500", "165352.982500", "165353.442500", "165353.902500", "165354.362500", "165354.822500", "165355.282500", "165355.742500", "165356.202500", "165356.662500", "165357.122500", "165357.582500", "165358.042500", "165358.502500", "165358.962500", "165359.422500", "165359.882500", "165400.342500", "165400.802500", "165401.262500", "165401.722500", "165402.182500", "165402.642500", "165403.102500", "165403.562500", "165404.022500", "165404.482500", "165404.942500", "165405.402500", "165405.862500", "165406.322500", "165406.782500", "165407.242500", "165407.702500", "165408.162500", "165408.622500", "165409.082500", "165409.542500", "165410.002500", "165410.462500", "165410.922500", "165411.382500", "165411.842500", "165412.302500", "165412.762500", "165413.222500", "165413.682500", "165414.142500", "165414.602500", "165415.062500", "165415.522500", "165415.982500", "165416.442500", "165416.902500", "165417.362500", "165417.822500", "165418.282500", "165418.742500", "165419.202500", "165419.662500", "165420.122500", "165420.582500", "165421.042500", "165421.502500", "165421.962500", "165422.422500", "165422.882500", "165423.342500", "165423.802500", "165424.262500", "165424.722500", "165425.182500", "165425.642500", "165426.102500", "165426.562500", "165427.022500", "165427.482500", "165427.942500", "165428.402500", "165428.862500", "165429.322500", "165429.782500", "165430.242500", "165430.702500", "165431.162500", "165431.622500", "165432.082500", "165432.542500", "165433.002500", "165433.462500", "165433.922500", "165434.382500", "165434.842500", "165435.302500", "165435.762500", "165436.222500", "165436.682500", "165437.142500", "165437.602500", "165438.062500", "165438.522500", "165438.982500", "165439.442500", "165439.902500", "165440.362500", "165440.822500", "165441.282500", "165441.742500", "165442.202500", "165442.662500", "165443.122500", "165443.582500", "165444.042500", "165444.502500", "165444.962500", "165445.422500", "165445.882500", "165446.342500", "165446.802500", "165447.262500", "165447.722500", "165448.182500", "165448.642500", "165449.102500", "165449.562500", "165450.022500", "165450.482500", "165450.942500", "165451.402500", "165451.862500", "165452.322500", "165452.782500", "165453.242500", "165453.702500", "165454.162500", "165454.622500", "165455.082500", "165455.542500", "165456.002500", "165456.462500", "165456.922500", "165457.382500", "165457.842500", "165458.302500", "165458.762500", "165459.222500", "165459.682500", "165500.142500", "165500.602500", "165501.062500", "165501.522500", "165501.982500", "165502.442500", "165502.902500", "165503.362500", "165503.822500", "165504.282500", "165504.742500", "165505.202500", "165505.662500", "165506.122500", "165506.582500", "165507.042500", "165507.502500", "165507.962500", "165508.422500", "165508.882500", "165509.342500", "165509.802500", "165510.262500", "165510.722500", "165511.182500", "165511.642500", "165512.102500", "165512.562500", "165513.022500", "165513.482500", "165513.942500", "165514.402500", "165514.862500", "165515.322500", "165515.782500", "165516.242500", "165516.702500", "165517.162500", "165517.622500", "165518.082500", "165518.542500", "165519.002500", "165519.462500", "165519.922500", "165520.382500", "165520.842500", "165521.302500", "165521.762500", "165522.222500", "165522.682500", "165523.142500", "165523.602500", "165524.062500", "165524.522500", "165524.982500", "165525.442500", "165525.902500", "165526.362500", "165526.822500", "165527.282500", "165527.742500", "165528.202500", "165528.662500", "165529.122500", "165529.582500", "165530.042500", "165530.502500", "165530.962500", "165531.422500", "165531.882500", "165532.342500", "165532.802500", "165533.262500", "165533.722500", "165534.182500", "165534.642500", "165535.102500", "165535.562500", "165536.022500", "165536.482500", "165536.942500", "165537.402500", "165537.862500", "165538.322500", "165538.782500", "165539.242500", "165539.702500", "165540.162500", "165540.622500", "165541.082500", "165541.542500", "165542.002500", "165542.462500", "165542.922500", "165543.382500", "165543.842500", "165544.302500", "165544.762500", "165545.222500", "165545.682500", "165546.142500", "165546.602500", "165547.062500", "165547.522500", "165547.982500", "165548.442500", "165548.902500", "165549.362500", "165549.822500", "165550.282500", "165550.742500", "165551.202500", "165551.662500", "165552.122500", "165552.582500", "165553.042500", "165553.502500", "165553.962500", "165554.422500", "165554.882500", "165555.342500", "165555.802500", "165556.262500", "165556.722500", "165557.182500", "165557.642500", "165558.102500", "165558.562500", "165559.022500", "165559.482500", "165559.942500", "165600.402500", "165600.862500", "165601.322500", "165601.782500", "165602.242500", "165602.702500", "165603.162500", "165603.622500", "165604.082500", "165604.542500", "165605.002500", "165605.462500", "165605.922500", "165606.382500", "165606.842500", "165607.302500", "165607.762500", "165608.222500", "165608.682500", "165609.142500", "165609.602500", "165610.062500", "165610.522500", "165610.982500", "165611.442500", "165611.902500", "165612.362500", "165612.822500", "165613.282500", "165613.742500", "165614.202500", "165614.662500", "165615.122500", "165615.582500", "165616.042500", "165616.502500", "165616.962500", "165617.422500", "165617.882500", "165618.342500", "165618.802500", "165619.262500", "165619.722500", "165620.182500", "165620.642500", "165621.102500", "165621.562500", "165622.022500", "165622.482500", "165622.942500", "165623.402500", "165623.862500", "165624.322500", "165624.782500", "165625.242500", "165625.702500", "165626.162500", "165626.622500", "165627.082500", "165627.542500", "165628.002500", "165628.462500", "165628.922500", "165629.382500", "165629.842500", "165630.302500", "165630.762500", "165631.222500", "165631.682500", "165632.142500", "165632.602500", "165633.062500", "165633.522500", "165633.982500", "165634.442500", "165634.902500", "165635.362500", "165635.822500", "165636.282500", "165636.742500", "165637.202500", "165637.662500", "165638.122500", "165638.582500", "165639.042500", "165639.502500", "165639.962500", "165640.422500", "165640.882500", "165641.342500", "165641.802500", "165642.262500", "165642.722500", "165643.182500", "165643.642500", "165644.102500", "165644.562500", "165645.022500", "165645.482500", "165645.942500", "165646.402500", "165646.862500", "165647.322500", "165647.782500", "165648.242500", "165648.702500", "165649.162500", "165649.622500", "165650.082500", "165650.542500", "165651.002500", "165651.462500", "165651.922500", "165652.382500", "165652.842500", "165653.302500", "165653.762500", "165654.222500", "165654.682500", "165655.142500", "165655.602500", "165656.062500", "165656.522500", "165656.982500", "165657.442500", "165657.902500", "165658.362500", "165658.822500", "165659.282500", "165659.742500", "165700.202500", "165700.662500", "165701.122500", "165701.582500", "165702.042500", "165702.502500", "165702.962500", "165703.422500", "165703.882500", "165704.342500", "165704.802500", "165705.262500", "165705.722500", "165706.182500", "165706.642500", "165707.102500", "165707.562500", "165708.022500", "165708.482500", "165708.942500", "165709.402500", "165709.862500", "165710.322500", "165710.782500", "165711.242500", "165711.702500", "165712.162500", "165712.622500", "165713.082500", "165713.542500", "165714.002500", "165714.462500", "165714.922500", "165715.382500", "165715.842500", "165716.302500", "165716.762500", "165717.222500", "165717.682500", "165718.142500", "165718.602500", "165719.062500", "165719.522500", "165719.982500", "165720.442500", "165720.902500", "165721.362500", "165721.822500", "165722.282500", "165722.742500", "165723.202500", "165723.662500", "165724.122500", "165724.582500", "165725.042500", "165725.502500", "165725.962500", "165726.422500", "165726.882500", "165727.342500", "165727.802500", "165728.262500", "165728.722500", "165729.182500", "165729.642500", "165730.102500", "165730.562500", "165731.022500", "165731.482500", "165731.942500", "165732.402500", "165732.862500", "165733.322500", "165733.782500", "165734.242500", "165734.702500", "165735.162500", "165735.622500", "165736.082500", "165736.542500", "165737.002500", "165737.462500", "165737.922500", "165738.382500", "165738.842500", "165739.302500", "165739.762500", "165740.222500", "165740.682500", "165741.142500", "165741.602500", "165742.062500", "165742.522500", "165742.982500", "165743.442500", "165743.902500", "165744.362500", "165744.822500", "165745.282500", "165745.742500", "165746.202500", "165746.662500", "165747.122500", "165747.582500", "165748.042500", "165748.502500", "165748.962500", "165749.422500", "165749.882500", "165750.342500", "165750.802500", "165751.262500", "165751.722500", "165752.182500", "165752.642500", "165753.102500", "165753.562500", "165754.022500", "165754.482500", "165754.942500", "165755.402500", "165755.862500", "165756.322500", "165756.782500", "165757.242500", "165757.702500", "165758.162500"],
