{
  "AcquisitionMatrixPE": 82,
  "AcquisitionNumber": 1,
  "AcquisitionTime": "15:43:48.935000",
  "BandwidthPerPixelPhaseEncode": 24.888,
  "BaseResolution": 82,
  "BodyPartExamined": "BRAIN",
  "ConsistencyInfo": "N4_VE11C_LATEST_20160120",
  "ConversionSoftware": "dcm2niix",
  "ConversionSoftwareVersion": "v1.0.20201102",
  "DerivedVendorReportedEchoSpacing": 0.00049,
  "DeviceSerialNumber": "66112",
  "DwellTime": 2e-06,
  "EchoTime": 0.0272,
  "EchoTrainLength": 82,
  "EffectiveEchoSpacing": 0.00049,
  "FlipAngle": 44,
  "ImageComments": "Unaliased MB8/PE3",
  "ImageOrientationPatientDICOM": [0.99781, 0.0660992, 0.00233253, -0.0659247, 0.991092, 0.115714],
  "ImageType": [
    "ORIGINAL",
    "PRIMARY",
    "FMRI",
    "NONE",
    "MB",
    "ND",
    "NORM",
    "MOSAIC"
],
  "ImagingFrequency": 123.253,
  "InPlanePhaseEncodingDirectionDICOM": "COL",
  "InstitutionAddress": "Maynard 3,Hanover,NH,US,03755",
  "InstitutionName": "Dartmouth College - PBS",
  "InstitutionalDepartmentName": "Department",
  "MRAcquisitionType": "2D",
  "MagneticFieldStrength": 3,
  "Manufacturer": "Siemens",
  "ManufacturersModelName": "Prisma",
  "Modality": "MR",
  "MultibandAccelerationFactor": 8,
  "PartialFourier": 1,
  "PatientPosition": "HFS",
  "PercentPhaseFOV": 100,
  "PercentSampling": 100,
  "PhaseEncodingDirection": "j-",
  "PhaseEncodingSteps": 82,
  "PhaseResolution": 1,
  "PixelBandwidth": 3050,
  "ProcedureStepDescription": "Wager_Wager^1076_spacetop",
  "ProtocolName": "func_run-03_task-social_acq-ap-mb8",
  "PulseSequenceDetails": "%CustomerSeq%\\cmrr_mbep2d_bold",
  "ReceiveCoilActiveElements": "HEA;HEP",
  "ReceiveCoilName": "Head_32",
  "ReconMatrixPE": 82,
  "RepetitionTime": 0.46,
  "SAR": 0.0845103,
  "ScanOptions": "FS",
  "ScanningSequence": "EP",
  "SequenceName": "epfid2d1_82",
  "SequenceVariant": "SK\\SS",
  "SeriesDescription": "func_run-03_task-social_acq-ap-mb8",
  "SeriesNumber": 25,
  "ShimSetting": [4161, -7789, -7261, 492, 25, -356, 57, 41],
  "SliceThickness": 2.7,
  "SliceTiming": [0, 0.25, 0.0625, 0.315, 0.125, 0.3775, 0.1875, 0, 0.25, 0.0625, 0.315, 0.125, 0.3775, 0.1875, 0, 0.25, 0.0625, 0.315, 0.125, 0.3775, 0.1875, 0, 0.25, 0.0625, 0.315, 0.125, 0.3775, 0.1875, 0, 0.25, 0.0625, 0.315, 0.125, 0.3775, 0.1875, 0, 0.25, 0.0625, 0.315, 0.125, 0.3775, 0.1875, 0, 0.25, 0.0625, 0.315, 0.125, 0.3775, 0.1875, 0, 0.25, 0.0625, 0.315, 0.125, 0.3775, 0.1875],
  "SoftwareVersions": "syngo MR E11",
  "SpacingBetweenSlices": 2.7,
  "StationName": "AWP66112",
  "TaskName": "social",
  "TotalReadoutTime": 0.03969,
  "TxRefAmp": 235.085,
  "WipMemBlock": "d19f0176-bce0-4f23-bb68-c4be2ef22ed1||Sequence: R016 ve11c/master r/e634e98; Dec 19 2017 11:00:25 by eja",
  "dcmmeta_affine": [
    [-2.6770522594451904, -0.17687101662158966, -0.014409560710191727, 118.67741394042969],
    [-0.17733925580978394, 2.6590282917022705, 0.31216010451316833, -92.51420593261719],
    [0.006258015520870686, -0.3104534149169922, 2.6818554401397705, -51.41645050048828],
    [0.0, 0.0, 0.0, 1.0]
],
  "dcmmeta_reorient_transform": [
    [0.0, -1.0, 0.0, 81.0],
    [1.0, 0.0, 0.0, 0.0],
    [0.0, 0.0, 1.0, 0.0],
    [0.0, 0.0, 0.0, 1.0]
],
  "dcmmeta_shape": [82, 82, 56, 872],
  "dcmmeta_slice_dim": 2,
  "dcmmeta_version": 0.6,
  "global": {
    "const": {
      "AccessionNumber": "A003583",
      "AcquisitionMatrix": [82, 0, 0, 82],
      "AngioFlag": "N",
      "BitsAllocated": 16,
      "BitsStored": 12,
      "BodyPartExamined": "BRAIN",
      "Columns": 656,
      "EchoNumbers": 1,
      "EchoTime": 27.2,
      "EchoTrainLength": 82,
      "FlipAngle": 44.0,
      "HighBit": 11,
      "ImageOrientationPatient": [0.99781033192856, 0.06609917387309, 0.00233253294, -0.0659246484116, 0.99109237970955, 0.11571445723619],
      "ImagePositionPatient": [-821.90285538046, -936.90461338897, -167.45936439085],
      "ImageType": [
        "ORIGINAL",
        "PRIMARY",
        "FMRI",
        "NONE",
        "MB",
        "ND",
        "NORM",
        "MOSAIC"
],
      "ImagedNucleus": "1H",
      "ImagingFrequency": 123.252562,
      "InPlanePhaseEncodingDirection": "COL",
      "MRAcquisitionType": "2D",
      "MagneticFieldStrength": 3.0,
      "Manufacturer": "SIEMENS",
      "ManufacturerModelName": "Prisma",
      "Modality": "MR",
      "NumberOfAverages": 1.0,
      "NumberOfPhaseEncodingSteps": 82,
      "PercentPhaseFieldOfView": 100.0,
      "PercentSampling": 100.0,
      "PerformedProcedureStepStartTime": "144530.354000",
      "PhotometricInterpretation": "MONOCHROME2",
      "PixelBandwidth": 3050.0,
      "PixelRepresentation": 0,
      "PixelSpacing": [2.6829268932343, 2.6829268932343],
      "ProtocolName": "func_run-03_task-social_acq-ap-mb8",
      "RepetitionTime": 460.0,
      "Rows": 656,
      "SAR": 0.08451028941298,
      "SamplesPerPixel": 1,
      "ScanOptions": "FS",
      "ScanningSequence": "EP",
      "SequenceName": "epfid2d1_82",
      "SequenceVariant": [
        "SK",
        "SS"
],
      "SeriesDescription": "func_run-03_task-social_acq-ap-mb8",
      "SeriesNumber": 25,
      "SeriesTime": "154352.901000",
      "SliceLocation": -62.400304542182,
      "SliceThickness": 2.7000000476837,
      "SmallestImagePixelValue": 0,
      "SoftwareVersions": "syngo MR E11",
      "SpacingBetweenSlices": 2.6999999480551,
      "SpecificCharacterSet": "ISO_IR 100",
      "StudyID": "1",
      "StudyTime": "144530.223000",
      "TransmitCoilName": "Body",
      "VariableFlipAngleFlag": "N",
      "WindowCenterWidthExplanation": "Algo1",
      "dBdt": 0.0},
    "slices": {}
  },
  "time": {
    "samples": {
      "AcquisitionNumber": [1, 2, 3, 4, 5, 6, 7, 8, 9, 10, 11, 12, 13, 14, 15, 16, 17, 18, 19, 20, 21, 22, 23, 24, 25, 26, 27, 28, 29, 30, 31, 32, 33, 34, 35, 36, 37, 38, 39, 40, 41, 42, 43, 44, 45, 46, 47, 48, 49, 50, 51, 52, 53, 54, 55, 56, 57, 58, 59, 60, 61, 62, 63, 64, 65, 66, 67, 68, 69, 70, 71, 72, 73, 74, 75, 76, 77, 78, 79, 80, 81, 82, 83, 84, 85, 86, 87, 88, 89, 90, 91, 92, 93, 94, 95, 96, 97, 98, 99, 100, 101, 102, 103, 104, 105, 106, 107, 108, 109, 110, 111, 112, 113, 114, 115, 116, 117, 118, 119, 120, 121, 122, 123, 124, 125, 126, 127, 128, 129, 130, 131, 132, 133, 134, 135, 136, 137, 138, 139, 140, 141, 142, 143, 144, 145, 146, 147, 148, 149, 150, 151, 152, 153, 154, 155, 156, 157, 158, 159, 160, 161, 162, 163, 164, 165, 166, 167, 168, 169, 170, 171, 172, 173, 174, 175, 176, 177, 178, 179, 180, 181, 182, 183, 184, 185, 186, 187, 188, 189, 190, 191, 192, 193, 194, 195, 196, 197, 198, 199, 200, 201, 202, 203, 204, 205, 206, 207, 208, 209, 210, 211, 212, 213, 214, 215, 216, 217, 218, 219, 220, 221, 222, 223, 224, 225, 226, 227, 228, 229, 230, 231, 232, 233, 234, 235, 236, 237, 238, 239, 240, 241, 242, 243, 244, 245, 246, 247, 248, 249, 250, 251, 252, 253, 254, 255, 256, 257, 258, 259, 260, 261, 262, 263, 264, 265, 266, 267, 268, 269, 270, 271, 272, 273, 274, 275, 276, 277, 278, 279, 280, 281, 282, 283, 284, 285, 286, 287, 288, 289, 290, 291, 292, 293, 294, 295, 296, 297, 298, 299, 300, 301, 302, 303, 304, 305, 306, 307, 308, 309, 310, 311, 312, 313, 314, 315, 316, 317, 318, 319, 320, 321, 322, 323, 324, 325, 326, 327, 328, 329, 330, 331, 332, 333, 334, 335, 336, 337, 338, 339, 340, 341, 342, 343, 344, 345, 346, 347, 348, 349, 350, 351, 352, 353, 354, 355, 356, 357, 358, 359, 360, 361, 362, 363, 364, 365, 366, 367, 368, 369, 370, 371, 372, 373, 374, 375, 376, 377, 378, 379, 380, 381, 382, 383, 384, 385, 386, 387, 388, 389, 390, 391, 392, 393, 394, 395, 396, 397, 398, 399, 400, 401, 402, 403, 404, 405, 406, 407, 408, 409, 410, 411, 412, 413, 414, 415, 416, 417, 418, 419, 420, 421, 422, 423, 424, 425, 426, 427, 428, 429, 430, 431, 432, 433, 434, 435, 436, 437, 438, 439, 440, 441, 442, 443, 444, 445, 446, 447, 448, 449, 450, 451, 452, 453, 454, 455, 456, 457, 458, 459, 460, 461, 462, 463, 464, 465, 466, 467, 468, 469, 470, 471, 472, 473, 474, 475, 476, 477, 478, 479, 480, 481, 482, 483, 484, 485, 486, 487, 488, 489, 490, 491, 492, 493, 494, 495, 496, 497, 498, 499, 500, 501, 502, 503, 504, 505, 506, 507, 508, 509, 510, 511, 512, 513, 514, 515, 516, 517, 518, 519, 520, 521, 522, 523, 524, 525, 526, 527, 528, 529, 530, 531, 532, 533, 534, 535, 536, 537, 538, 539, 540, 541, 542, 543, 544, 545, 546, 547, 548, 549, 550, 551, 552, 553, 554, 555, 556, 557, 558, 559, 560, 561, 562, 563, 564, 565, 566, 567, 568, 569, 570, 571, 572, 573, 574, 575, 576, 577, 578, 579, 580, 581, 582, 583, 584, 585, 586, 587, 588, 589, 590, 591, 592, 593, 594, 595, 596, 597, 598, 599, 600, 601, 602, 603, 604, 605, 606, 607, 608, 609, 610, 611, 612, 613, 614, 615, 616, 617, 618, 619, 620, 621, 622, 623, 624, 625, 626, 627, 628, 629, 630, 631, 632, 633, 634, 635, 636, 637, 638, 639, 640, 641, 642, 643, 644, 645, 646, 647, 648, 649, 650, 651, 652, 653, 654, 655, 656, 657, 658, 659, 660, 661, 662, 663, 664, 665, 666, 667, 668, 669, 670, 671, 672, 673, 674, 675, 676, 677, 678, 679, 680, 681, 682, 683, 684, 685, 686, 687, 688, 689, 690, 691, 692, 693, 694, 695, 696, 697, 698, 699, 700, 701, 702, 703, 704, 705, 706, 707, 708, 709, 710, 711, 712, 713, 714, 715, 716, 717, 718, 719, 720, 721, 722, 723, 724, 725, 726, 727, 728, 729, 730, 731, 732, 733, 734, 735, 736, 737, 738, 739, 740, 741, 742, 743, 744, 745, 746, 747, 748, 749, 750, 751, 752, 753, 754, 755, 756, 757, 758, 759, 760, 761, 762, 763, 764, 765, 766, 767, 768, 769, 770, 771, 772, 773, 774, 775, 776, 777, 778, 779, 780, 781, 782, 783, 784, 785, 786, 787, 788, 789, 790, 791, 792, 793, 794, 795, 796, 797, 798, 799, 800, 801, 802, 803, 804, 805, 806, 807, 808, 809, 810, 811, 812, 813, 814, 815, 816, 817, 818, 819, 820, 821, 822, 823, 824, 825, 826, 827, 828, 829, 830, 831, 832, 833, 834, 835, 836, 837, 838, 839, 840, 841, 842, 843, 844, 845, 846, 847, 848, 849, 850, 851, 852, 853, 854, 855, 856, 857, 858, 859, 860, 861, 862, 863, 864, 865, 866, 867, 868, 869, 870, 871, 872],
      "AcquisitionTime": ["154348.935000", "154349.395000", "154349.855000", "154350.315000", "154350.775000", "154351.235000", "154351.695000", "154352.155000", "154352.615000", "154353.075000", "154353.535000", "154353.995000", "154354.455000", "154354.915000", "154355.375000", "154355.835000", "154356.295000", "154356.755000", "154357.215000", "154357.675000", "154358.135000", "154358.595000", "154359.055000", "154359.515000", "154359.975000", "154400.435000", "154400.895000", "154401.355000", "154401.815000", "154402.275000", "154402.735000", "154403.195000", "154403.655000", "154404.115000", "154404.575000", "154405.035000", "154405.495000", "154405.955000", "154406.415000", "154406.875000", "154407.335000", "154407.795000", "154408.255000", "154408.715000", "154409.175000", "154409.635000", "154410.095000", "154410.555000", "154411.015000", "154411.475000", "154411.935000", "154412.395000", "154412.855000", "154413.315000", "154413.775000", "154414.235000", "154414.695000", "154415.155000", "154415.615000", "154416.075000", "154416.535000", "154416.995000", "154417.455000", "154417.915000", "154418.375000", "154418.835000", "154419.295000", "154419.755000", "154420.215000", "154420.675000", "154421.135000", "154421.595000", "154422.055000", "154422.515000", "154422.975000", "154423.435000", "154423.895000", "154424.355000", "154424.815000", "154425.275000", "154425.735000", "154426.195000", "154426.655000", "154427.115000", "154427.575000", "154428.035000", "154428.495000", "154428.955000", "154429.415000", "154429.875000", "154430.335000", "154430.795000", "154431.255000", "154431.715000", "154432.175000", "154432.635000", "154433.095000", "154433.555000", "154434.015000", "154434.475000", "154434.935000", "154435.395000", "154435.855000", "154436.315000", "154436.775000", "154437.235000", "154437.695000", "154438.155000", "154438.615000", "154439.075000", "154439.535000", "154439.995000", "154440.455000", "154440.915000", "154441.375000", "154441.835000", "154442.295000", "154442.755000", "154443.215000", "154443.675000", "154444.135000", "154444.595000", "154445.055000", "154445.515000", "154445.975000", "154446.435000", "154446.895000", "154447.355000", "154447.815000", "154448.275000", "154448.735000", "154449.195000", "154449.655000", "154450.115000", "154450.575000", "154451.035000", "154451.495000", "154451.955000", "154452.415000", "154452.875000", "154453.335000", "154453.795000", "154454.255000", "154454.715000", "154455.175000", "154455.635000", "154456.095000", "154456.555000", "154457.015000", "154457.475000", "154457.935000", "154458.395000", "154458.855000", "154459.315000", "154459.775000", "154500.235000", "154500.695000", "154501.155000", "154501.615000", "154502.075000", "154502.535000", "154502.995000", "154503.455000", "154503.915000", "154504.375000", "154504.835000", "154505.295000", "154505.755000", "154506.215000", "154506.675000", "154507.135000", "154507.595000", "154508.055000", "154508.515000", "154508.975000", "154509.435000", "154509.895000", "154510.355000", "154510.815000", "154511.275000", "154511.735000", "154512.195000", "154512.655000", "154513.115000", "154513.575000", "154514.035000", "154514.495000", "154514.955000", "154515.415000", "154515.875000", "154516.335000", "154516.795000", "154517.255000", "154517.715000", "154518.175000", "154518.635000", "154519.095000", "154519.555000", "154520.015000", "154520.475000", "154520.935000", "154521.395000", "154521.855000", "154522.315000", "154522.775000", "154523.235000", "154523.695000", "154524.155000", "154524.615000", "154525.075000", "154525.535000", "154525.995000", "154526.455000", "154526.915000", "154527.375000", "154527.835000", "154528.295000", "154528.755000", "154529.215000", "154529.675000", "154530.135000", "154530.595000", "154531.055000", "154531.515000", "154531.975000", "154532.435000", "154532.895000", "154533.355000", "154533.815000", "154534.275000", "154534.735000", "154535.195000", "154535.655000", "154536.115000", "154536.575000", "154537.035000", "154537.495000", "154537.955000", "154538.415000", "154538.875000", "154539.335000", "154539.795000", "154540.255000", "154540.715000", "154541.175000", "154541.635000", "154542.095000", "154542.555000", "154543.015000", "154543.475000", "154543.935000", "154544.395000", "154544.855000", "154545.315000", "154545.775000", "154546.235000", "154546.695000", "154547.155000", "154547.615000", "154548.075000", "154548.535000", "154548.995000", "154549.455000", "154549.915000", "154550.375000", "154550.835000", "154551.295000", "154551.755000", "154552.215000", "154552.675000", "154553.135000", "154553.595000", "154554.055000", "154554.515000", "154554.975000", "154555.435000", "154555.895000", "154556.355000", "154556.815000", "154557.275000", "154557.735000", "154558.195000", "154558.655000", "154559.115000", "154559.575000", "154600.035000", "154600.495000", "154600.955000", "154601.415000", "154601.875000", "154602.335000", "154602.795000", "154603.255000", "154603.715000", "154604.175000", "154604.635000", "154605.095000", "154605.555000", "154606.015000", "154606.475000", "154606.935000", "154607.395000", "154607.855000", "154608.315000", "154608.775000", "154609.235000", "154609.695000", "154610.155000", "154610.615000", "154611.075000", "154611.535000", "154611.995000", "154612.455000", "154612.915000", "154613.375000", "154613.835000", "154614.295000", "154614.755000", "154615.215000", "154615.675000", "154616.135000", "154616.595000", "154617.055000", "154617.515000", "154617.975000", "154618.435000", "154618.895000", "154619.355000", "154619.815000", "154620.275000", "154620.735000", "154621.195000", "154621.655000", "154622.115000", "154622.575000", "154623.035000", "154623.495000", "154623.955000", "154624.415000", "154624.875000", "154625.335000", "154625.795000", "154626.255000", "154626.715000", "154627.175000", "154627.635000", "154628.095000", "154628.555000", "154629.015000", "154629.475000", "154629.935000", "154630.395000", "154630.855000", "154631.315000", "154631.775000", "154632.235000", "154632.695000", "154633.155000", "154633.615000", "154634.075000", "154634.535000", "154634.995000", "154635.455000", "154635.915000", "154636.375000", "154636.835000", "154637.295000", "154637.755000", "154638.215000", "154638.675000", "154639.135000", "154639.595000", "154640.055000", "154640.515000", "154640.975000", "154641.435000", "154641.895000", "154642.355000", "154642.815000", "154643.275000", "154643.735000", "154644.195000", "154644.655000", "154645.115000", "154645.575000", "154646.035000", "154646.495000", "154646.955000", "154647.415000", "154647.875000", "154648.335000", "154648.795000", "154649.255000", "154649.715000", "154650.175000", "154650.635000", "154651.095000", "154651.555000", "154652.015000", "154652.475000", "154652.935000", "154653.395000", "154653.855000", "154654.315000", "154654.775000", "154655.235000", "154655.695000", "154656.155000", "154656.615000", "154657.075000", "154657.535000", "154657.995000", "154658.455000", "154658.915000", "154659.375000", "154659.835000", "154700.295000", "154700.755000", "154701.215000", "154701.675000", "154702.135000", "154702.595000", "154703.055000", "154703.515000", "154703.975000", "154704.435000", "154704.895000", "154705.355000", "154705.815000", "154706.275000", "154706.735000", "154707.195000", "154707.655000", "154708.115000", "154708.575000", "154709.035000", "154709.495000", "154709.955000", "154710.415000", "154710.875000", "154711.335000", "154711.795000", "154712.255000", "154712.715000", "154713.175000", "154713.635000", "154714.095000", "154714.555000", "154715.015000", "154715.475000", "154715.935000", "154716.395000", "154716.855000", "154717.315000", "154717.775000", "154718.235000", "154718.695000", "154719.155000", "154719.615000", "154720.075000", "154720.535000", "154720.995000", "154721.455000", "154721.915000", "154722.375000", "154722.835000", "154723.295000", "154723.755000", "154724.215000", "154724.675000", "154725.135000", "154725.595000", "154726.055000", "154726.515000", "154726.975000", "154727.435000", "154727.895000", "154728.355000", "154728.815000", "154729.275000", "154729.735000", "154730.195000", "154730.655000", "154731.115000", "154731.575000", "154732.035000", "154732.495000", "154732.955000", "154733.415000", "154733.875000", "154734.335000", "154734.795000", "154735.255000", "154735.715000", "154736.175000", "154736.635000", "154737.095000", "154737.555000", "154738.015000", "154738.475000", "154738.935000", "154739.395000", "154739.855000", "154740.315000", "154740.775000", "154741.235000", "154741.695000", "154742.155000", "154742.615000", "154743.075000", "154743.535000", "154743.995000", "154744.455000", "154744.915000", "154745.375000", "154745.835000", "154746.295000", "154746.755000", "154747.215000", "154747.675000", "154748.135000", "154748.595000", "154749.055000", "154749.515000", "154749.975000", "154750.435000", "154750.895000", "154751.355000", "154751.815000", "154752.275000", "154752.735000", "154753.195000", "154753.655000", "154754.115000", "154754.575000", "154755.035000", "154755.495000", "154755.955000", "154756.415000", "154756.875000", "154757.335000", "154757.795000", "154758.255000", "154758.715000", "154759.175000", "154759.635000", "154800.095000", "154800.555000", "154801.015000", "154801.475000", "154801.935000", "154802.395000", "154802.855000", "154803.315000", "154803.775000", "154804.235000", "154804.695000", "154805.155000", "154805.615000", "154806.075000", "154806.535000", "154806.995000", "154807.455000", "154807.915000", "154808.375000", "154808.835000", "154809.295000", "154809.755000", "154810.215000", "154810.675000", "154811.135000", "154811.595000", "154812.055000", "154812.515000", "154812.975000", "154813.435000", "154813.895000", "154814.355000", "154814.815000", "154815.275000", "154815.735000", "154816.195000", "154816.655000", "154817.115000", "154817.575000", "154818.035000", "154818.495000", "154818.955000", "154819.415000", "154819.875000", "154820.335000", "154820.795000", "154821.255000", "154821.715000", "154822.175000", "154822.635000", "154823.095000", "154823.555000", "154824.015000", "154824.475000", "154824.935000", "154825.395000", "154825.855000", "154826.315000", "154826.775000", "154827.235000", "154827.695000", "154828.155000", "154828.615000", "154829.075000", "154829.535000", "154829.995000", "154830.455000", "154830.915000", "154831.375000", "154831.835000", "154832.295000", "154832.755000", "154833.215000", "154833.675000", "154834.135000", "154834.595000", "154835.055000", "154835.515000", "154835.975000", "154836.435000", "154836.895000", "154837.355000", "154837.815000", "154838.275000", "154838.735000", "154839.195000", "154839.655000", "154840.115000", "154840.575000", "154841.035000", "154841.495000", "154841.955000", "154842.415000", "154842.875000", "154843.335000", "154843.795000", "154844.255000", "154844.715000", "154845.175000", "154845.635000", "154846.095000", "154846.555000", "154847.015000", "154847.475000", "154847.935000", "154848.395000", "154848.855000", "154849.315000", "154849.775000", "154850.235000", "154850.695000", "154851.155000", "154851.615000", "154852.075000", "154852.535000", "154852.995000", "154853.455000", "154853.915000", "154854.375000", "154854.835000", "154855.295000", "154855.755000", "154856.215000", "154856.675000", "154857.135000", "154857.595000", "154858.055000", "154858.515000", "154858.975000", "154859.435000", "154859.895000", "154900.355000", "154900.815000", "154901.275000", "154901.735000", "154902.195000", "154902.655000", "154903.115000", "154903.575000", "154904.035000", "154904.495000", "154904.955000", "154905.415000", "154905.875000", "154906.335000", "154906.795000", "154907.255000", "154907.715000", "154908.175000", "154908.635000", "154909.095000", "154909.555000", "154910.015000", "154910.475000", "154910.935000", "154911.395000", "154911.855000", "154912.315000", "154912.775000", "154913.235000", "154913.695000", "154914.155000", "154914.615000", "154915.075000", "154915.535000", "154915.995000", "154916.455000", "154916.915000", "154917.375000", "154917.835000", "154918.295000", "154918.755000", "154919.215000", "154919.675000", "154920.135000", "154920.595000", "154921.055000", "154921.515000", "154921.975000", "154922.435000", "154922.895000", "154923.355000", "154923.815000", "154924.275000", "154924.735000", "154925.195000", "154925.655000", "154926.115000", "154926.575000", "154927.035000", "154927.495000", "154927.955000", "154928.415000", "154928.875000", "154929.335000", "154929.795000", "154930.255000", "154930.715000", "154931.175000", "154931.635000", "154932.095000", "154932.555000", "154933.015000", "154933.475000", "154933.935000", "154934.395000", "154934.855000", "154935.315000", "154935.775000", "154936.235000", "154936.695000", "154937.155000", "154937.615000", "154938.075000", "154938.535000", "154938.995000", "154939.455000", "154939.915000", "154940.375000", "154940.835000", "154941.295000", "154941.755000", "154942.215000", "154942.675000", "154943.135000", "154943.595000", "154944.055000", "154944.515000", "154944.975000", "154945.435000", "154945.895000", "154946.355000", "154946.815000", "154947.275000", "154947.735000", "154948.195000", "154948.655000", "154949.115000", "154949.575000", "154950.035000", "154950.495000", "154950.955000", "154951.415000", "154951.875000", "154952.335000", "154952.795000", "154953.255000", "154953.715000", "154954.175000", "154954.635000", "154955.095000", "154955.555000", "154956.015000", "154956.475000", "154956.935000", "154957.395000", "154957.855000", "154958.315000", "154958.775000", "154959.235000", "154959.695000", "155000.155000", "155000.615000", "155001.075000", "155001.535000", "155001.995000", "155002.455000", "155002.915000", "155003.375000", "155003.835000", "155004.295000", "155004.755000", "155005.215000", "155005.675000", "155006.135000", "155006.595000", "155007.055000", "155007.515000", "155007.975000", "155008.435000", "155008.895000", "155009.355000", "155009.815000", "155010.275000", "155010.735000", "155011.195000", "155011.655000", "155012.115000", "155012.575000", "155013.035000", "155013.495000", "155013.955000", "155014.415000", "155014.875000", "155015.335000", "155015.795000", "155016.255000", "155016.715000", "155017.175000", "155017.635000", "155018.095000", "155018.555000", "155019.015000", "155019.475000", "155019.935000", "155020.395000", "155020.855000", "155021.315000", "155021.775000", "155022.235000", "155022.695000", "155023.155000", "155023.615000", "155024.075000", "155024.535000", "155024.995000", "155025.455000", "155025.915000", "155026.375000", "155026.835000", "155027.295000", "155027.755000", "155028.215000", "155028.675000", "155029.135000", "155029.595000"],
