{
  "AcquisitionMatrixPE": 82,
  "AcquisitionNumber": 1,
  "AcquisitionTime": "15:27:33.680000",
  "BandwidthPerPixelPhaseEncode": 24.888,
  "BaseResolution": 82,
  "BodyPartExamined": "BRAIN",
  "ConsistencyInfo": "N4_VE11C_LATEST_20160120",
  "ConversionSoftware": "dcm2niix",
  "ConversionSoftwareVersion": "v1.0.20201102",
  "DerivedVendorReportedEchoSpacing": 0.00049,
  "DeviceSerialNumber": "66112",
  "DwellTime": 2e-06,
  "EchoTime": 0.0272,
  "EchoTrainLength": 82,
  "EffectiveEchoSpacing": 0.00049,
  "FlipAngle": 44,
  "ImageComments": "Unaliased MB8/PE3",
  "ImageOrientationPatientDICOM": [0.99781, 0.0660992, 0.00233253, -0.0659247, 0.991092, 0.115714],
  "ImageType": [
    "ORIGINAL",
    "PRIMARY",
    "FMRI",
    "NONE",
    "MB",
    "ND",
    "NORM",
    "MOSAIC"
],
  "ImagingFrequency": 123.253,
  "InPlanePhaseEncodingDirectionDICOM": "COL",
  "InstitutionAddress": "Maynard 3,Hanover,NH,US,03755",
  "InstitutionName": "Dartmouth College - PBS",
  "InstitutionalDepartmentName": "Department",
  "MRAcquisitionType": "2D",
  "MagneticFieldStrength": 3,
  "Manufacturer": "Siemens",
  "ManufacturersModelName": "Prisma",
  "Modality": "MR",
  "MultibandAccelerationFactor": 8,
  "PartialFourier": 1,
  "PatientPosition": "HFS",
  "PercentPhaseFOV": 100,
  "PercentSampling": 100,
  "PhaseEncodingDirection": "j-",
  "PhaseEncodingSteps": 82,
  "PhaseResolution": 1,
  "PixelBandwidth": 3050,
  "ProcedureStepDescription": "Wager_Wager^1076_spacetop",
  "ProtocolName": "func_run-01_task-social_acq-ap-mb8",
  "PulseSequenceDetails": "%CustomerSeq%\\cmrr_mbep2d_bold",
  "ReceiveCoilActiveElements": "HEA;HEP",
  "ReceiveCoilName": "Head_32",
  "ReconMatrixPE": 82,
  "RepetitionTime": 0.46,
  "SAR": 0.0845103,
  "ScanOptions": "FS",
  "ScanningSequence": "EP",
  "SequenceName": "epfid2d1_82",
  "SequenceVariant": "SK\\SS",
  "SeriesDescription": "func_run-01_task-social_acq-ap-mb8",
  "SeriesNumber": 11,
  "ShimSetting": [4161, -7789, -7261, 492, 25, -356, 57, 41],
  "SliceThickness": 2.7,
  "SliceTiming": [0, 0.2525, 0.065, 0.315, 0.1275, 0.3775, 0.19, 0, 0.2525, 0.065, 0.315, 0.1275, 0.3775, 0.19, 0, 0.2525, 0.065, 0.315, 0.1275, 0.3775, 0.19, 0, 0.2525, 0.065, 0.315, 0.1275, 0.3775, 0.19, 0, 0.2525, 0.065, 0.315, 0.1275, 0.3775, 0.19, 0, 0.2525, 0.065, 0.315, 0.1275, 0.3775, 0.19, 0, 0.2525, 0.065, 0.315, 0.1275, 0.3775, 0.19, 0, 0.2525, 0.065, 0.315, 0.1275, 0.3775, 0.19],
  "SoftwareVersions": "syngo MR E11",
  "SpacingBetweenSlices": 2.7,
  "StationName": "AWP66112",
  "TaskName": "social",
  "TotalReadoutTime": 0.03969,
  "TxRefAmp": 235.085,
  "WipMemBlock": "b22a0fed-0db0-4cc9-b875-c53fdc92362f||Sequence: R016 ve11c/master r/e634e98; Dec 19 2017 11:00:25 by eja",
  "dcmmeta_affine": [
    [-2.6770522594451904, -0.17687101662158966, -0.014409560710191727, 118.67741394042969],
    [-0.17733925580978394, 2.6590282917022705, 0.31216010451316833, -92.51420593261719],
    [0.006258015520870686, -0.3104534149169922, 2.6818554401397705, -51.41645050048828],
    [0.0, 0.0, 0.0, 1.0]
],
  "dcmmeta_reorient_transform": [
    [0.0, -1.0, 0.0, 81.0],
    [1.0, 0.0, 0.0, 0.0],
    [0.0, 0.0, 1.0, 0.0],
    [0.0, 0.0, 0.0, 1.0]
],
  "dcmmeta_shape": [82, 82, 56, 872],
  "dcmmeta_slice_dim": 2,
  "dcmmeta_version": 0.6,
  "global": {
    "const": {
      "AccessionNumber": "A003583",
      "AcquisitionMatrix": [82, 0, 0, 82],
      "AngioFlag": "N",
      "BitsAllocated": 16,
      "BitsStored": 12,
      "BodyPartExamined": "BRAIN",
      "Columns": 656,
      "EchoNumbers": 1,
      "EchoTime": 27.2,
      "EchoTrainLength": 82,
      "FlipAngle": 44.0,
      "HighBit": 11,
      "ImageOrientationPatient": [0.99781033192856, 0.06609917387309, 0.00233253294, -0.0659246484116, 0.99109237970955, 0.11571445723619],
      "ImagePositionPatient": [-821.90285538046, -936.90461338897, -167.45936439085],
      "ImageType": [
        "ORIGINAL",
        "PRIMARY",
        "FMRI",
        "NONE",
        "MB",
        "ND",
        "NORM",
        "MOSAIC"
],
      "ImagedNucleus": "1H",
      "ImagingFrequency": 123.252552,
      "InPlanePhaseEncodingDirection": "COL",
      "MRAcquisitionType": "2D",
      "MagneticFieldStrength": 3.0,
      "Manufacturer": "SIEMENS",
      "ManufacturerModelName": "Prisma",
      "Modality": "MR",
      "NumberOfAverages": 1.0,
      "NumberOfPhaseEncodingSteps": 82,
      "PercentPhaseFieldOfView": 100.0,
      "PercentSampling": 100.0,
      "PerformedProcedureStepStartTime": "144530.354000",
      "PhotometricInterpretation": "MONOCHROME2",
      "PixelBandwidth": 3050.0,
      "PixelRepresentation": 0,
      "PixelSpacing": [2.6829268932343, 2.6829268932343],
      "ProtocolName": "func_run-01_task-social_acq-ap-mb8",
      "RepetitionTime": 460.0,
      "Rows": 656,
      "SAR": 0.08451028941298,
      "SamplesPerPixel": 1,
      "ScanOptions": "FS",
      "ScanningSequence": "EP",
      "SequenceName": "epfid2d1_82",
      "SequenceVariant": [
        "SK",
        "SS"
],
      "SeriesDescription": "func_run-01_task-social_acq-ap-mb8",
      "SeriesNumber": 11,
      "SeriesTime": "152737.518000",
      "SliceLocation": -62.400304542182,
      "SliceThickness": 2.7000000476837,
      "SmallestImagePixelValue": 0,
      "SoftwareVersions": "syngo MR E11",
      "SpacingBetweenSlices": 2.6999999480551,
      "SpecificCharacterSet": "ISO_IR 100",
      "StudyID": "1",
      "StudyTime": "144530.223000",
      "TransmitCoilName": "Body",
      "VariableFlipAngleFlag": "N",
      "WindowCenterWidthExplanation": "Algo1",
      "dBdt": 0.0},
    "slices": {}
  },
  "time": {
    "samples": {
      "AcquisitionNumber": [1, 2, 3, 4, 5, 6, 7, 8, 9, 10, 11, 12, 13, 14, 15, 16, 17, 18, 19, 20, 21, 22, 23, 24, 25, 26, 27, 28, 29, 30, 31, 32, 33, 34, 35, 36, 37, 38, 39, 40, 41, 42, 43, 44, 45, 46, 47, 48, 49, 50, 51, 52, 53, 54, 55, 56, 57, 58, 59, 60, 61, 62, 63, 64, 65, 66, 67, 68, 69, 70, 71, 72, 73, 74, 75, 76, 77, 78, 79, 80, 81, 82, 83, 84, 85, 86, 87, 88, 89, 90, 91, 92, 93, 94, 95, 96, 97, 98, 99, 100, 101, 102, 103, 104, 105, 106, 107, 108, 109, 110, 111, 112, 113, 114, 115, 116, 117, 118, 119, 120, 121, 122, 123, 124, 125, 126, 127, 128, 129, 130, 131, 132, 133, 134, 135, 136, 137, 138, 139, 140, 141, 142, 143, 144, 145, 146, 147, 148, 149, 150, 151, 152, 153, 154, 155, 156, 157, 158, 159, 160, 161, 162, 163, 164, 165, 166, 167, 168, 169, 170, 171, 172, 173, 174, 175, 176, 177, 178, 179, 180, 181, 182, 183, 184, 185, 186, 187, 188, 189, 190, 191, 192, 193, 194, 195, 196, 197, 198, 199, 200, 201, 202, 203, 204, 205, 206, 207, 208, 209, 210, 211, 212, 213, 214, 215, 216, 217, 218, 219, 220, 221, 222, 223, 224, 225, 226, 227, 228, 229, 230, 231, 232, 233, 234, 235, 236, 237, 238, 239, 240, 241, 242, 243, 244, 245, 246, 247, 248, 249, 250, 251, 252, 253, 254, 255, 256, 257, 258, 259, 260, 261, 262, 263, 264, 265, 266, 267, 268, 269, 270, 271, 272, 273, 274, 275, 276, 277, 278, 279, 280, 281, 282, 283, 284, 285, 286, 287, 288, 289, 290, 291, 292, 293, 294, 295, 296, 297, 298, 299, 300, 301, 302, 303, 304, 305, 306, 307, 308, 309, 310, 311, 312, 313, 314, 315, 316, 317, 318, 319, 320, 321, 322, 323, 324, 325, 326, 327, 328, 329, 330, 331, 332, 333, 334, 335, 336, 337, 338, 339, 340, 341, 342, 343, 344, 345, 346, 347, 348, 349, 350, 351, 352, 353, 354, 355, 356, 357, 358, 359, 360, 361, 362, 363, 364, 365, 366, 367, 368, 369, 370, 371, 372, 373, 374, 375, 376, 377, 378, 379, 380, 381, 382, 383, 384, 385, 386, 387, 388, 389, 390, 391, 392, 393, 394, 395, 396, 397, 398, 399, 400, 401, 402, 403, 404, 405, 406, 407, 408, 409, 410, 411, 412, 413, 414, 415, 416, 417, 418, 419, 420, 421, 422, 423, 424, 425, 426, 427, 428, 429, 430, 431, 432, 433, 434, 435, 436, 437, 438, 439, 440, 441, 442, 443, 444, 445, 446, 447, 448, 449, 450, 451, 452, 453, 454, 455, 456, 457, 458, 459, 460, 461, 462, 463, 464, 465, 466, 467, 468, 469, 470, 471, 472, 473, 474, 475, 476, 477, 478, 479, 480, 481, 482, 483, 484, 485, 486, 487, 488, 489, 490, 491, 492, 493, 494, 495, 496, 497, 498, 499, 500, 501, 502, 503, 504, 505, 506, 507, 508, 509, 510, 511, 512, 513, 514, 515, 516, 517, 518, 519, 520, 521, 522, 523, 524, 525, 526, 527, 528, 529, 530, 531, 532, 533, 534, 535, 536, 537, 538, 539, 540, 541, 542, 543, 544, 545, 546, 547, 548, 549, 550, 551, 552, 553, 554, 555, 556, 557, 558, 559, 560, 561, 562, 563, 564, 565, 566, 567, 568, 569, 570, 571, 572, 573, 574, 575, 576, 577, 578, 579, 580, 581, 582, 583, 584, 585, 586, 587, 588, 589, 590, 591, 592, 593, 594, 595, 596, 597, 598, 599, 600, 601, 602, 603, 604, 605, 606, 607, 608, 609, 610, 611, 612, 613, 614, 615, 616, 617, 618, 619, 620, 621, 622, 623, 624, 625, 626, 627, 628, 629, 630, 631, 632, 633, 634, 635, 636, 637, 638, 639, 640, 641, 642, 643, 644, 645, 646, 647, 648, 649, 650, 651, 652, 653, 654, 655, 656, 657, 658, 659, 660, 661, 662, 663, 664, 665, 666, 667, 668, 669, 670, 671, 672, 673, 674, 675, 676, 677, 678, 679, 680, 681, 682, 683, 684, 685, 686, 687, 688, 689, 690, 691, 692, 693, 694, 695, 696, 697, 698, 699, 700, 701, 702, 703, 704, 705, 706, 707, 708, 709, 710, 711, 712, 713, 714, 715, 716, 717, 718, 719, 720, 721, 722, 723, 724, 725, 726, 727, 728, 729, 730, 731, 732, 733, 734, 735, 736, 737, 738, 739, 740, 741, 742, 743, 744, 745, 746, 747, 748, 749, 750, 751, 752, 753, 754, 755, 756, 757, 758, 759, 760, 761, 762, 763, 764, 765, 766, 767, 768, 769, 770, 771, 772, 773, 774, 775, 776, 777, 778, 779, 780, 781, 782, 783, 784, 785, 786, 787, 788, 789, 790, 791, 792, 793, 794, 795, 796, 797, 798, 799, 800, 801, 802, 803, 804, 805, 806, 807, 808, 809, 810, 811, 812, 813, 814, 815, 816, 817, 818, 819, 820, 821, 822, 823, 824, 825, 826, 827, 828, 829, 830, 831, 832, 833, 834, 835, 836, 837, 838, 839, 840, 841, 842, 843, 844, 845, 846, 847, 848, 849, 850, 851, 852, 853, 854, 855, 856, 857, 858, 859, 860, 861, 862, 863, 864, 865, 866, 867, 868, 869, 870, 871, 872],
      "AcquisitionTime": ["152733.680000", "152734.140000", "152734.600000", "152735.060000", "152735.520000", "152735.980000", "152736.440000", "152736.900000", "152737.360000", "152737.820000", "152738.280000", "152738.740000", "152739.200000", "152739.660000", "152740.120000", "152740.580000", "152741.040000", "152741.500000", "152741.960000", "152742.420000", "152742.880000", "152743.340000", "152743.800000", "152744.260000", "152744.720000", "152745.180000", "152745.640000", "152746.100000", "152746.560000", "152747.020000", "152747.480000", "152747.940000", "152748.400000", "152748.860000", "152749.320000", "152749.780000", "152750.240000", "152750.700000", "152751.160000", "152751.620000", "152752.080000", "152752.540000", "152753.000000", "152753.460000", "152753.920000", "152754.380000", "152754.840000", "152755.300000", "152755.760000", "152756.220000", "152756.680000", "152757.140000", "152757.600000", "152758.060000", "152758.520000", "152758.980000", "152759.440000", "152759.900000", "152800.360000", "152800.820000", "152801.280000", "152801.740000", "152802.200000", "152802.660000", "152803.120000", "152803.580000", "152804.040000", "152804.500000", "152804.960000", "152805.420000", "152805.880000", "152806.340000", "152806.800000", "152807.260000", "152807.720000", "152808.180000", "152808.640000", "152809.100000", "152809.560000", "152810.020000", "152810.480000", "152810.940000", "152811.400000", "152811.860000", "152812.320000", "152812.780000", "152813.240000", "152813.700000", "152814.160000", "152814.620000", "152815.080000", "152815.540000", "152816.000000", "152816.460000", "152816.920000", "152817.380000", "152817.840000", "152818.300000", "152818.760000", "152819.220000", "152819.680000", "152820.140000", "152820.600000", "152821.060000", "152821.520000", "152821.980000", "152822.440000", "152822.900000", "152823.360000", "152823.820000", "152824.280000", "152824.740000", "152825.200000", "152825.660000", "152826.120000", "152826.580000", "152827.040000", "152827.500000", "152827.960000", "152828.420000", "152828.880000", "152829.340000", "152829.800000", "152830.260000", "152830.720000", "152831.180000", "152831.640000", "152832.100000", "152832.560000", "152833.020000", "152833.480000", "152833.940000", "152834.400000", "152834.860000", "152835.320000", "152835.780000", "152836.240000", "152836.700000", "152837.160000", "152837.620000", "152838.080000", "152838.540000", "152839.000000", "152839.460000", "152839.920000", "152840.380000", "152840.840000", "152841.300000", "152841.760000", "152842.220000", "152842.680000", "152843.140000", "152843.600000", "152844.060000", "152844.520000", "152844.980000", "152845.440000", "152845.900000", "152846.360000", "152846.820000", "152847.280000", "152847.740000", "152848.200000", "152848.660000", "152849.120000", "152849.580000", "152850.040000", "152850.500000", "152850.960000", "152851.420000", "152851.880000", "152852.340000", "152852.800000", "152853.260000", "152853.720000", "152854.180000", "152854.640000", "152855.100000", "152855.560000", "152856.020000", "152856.480000", "152856.940000", "152857.400000", "152857.860000", "152858.320000", "152858.780000", "152859.240000", "152859.700000", "152900.160000", "152900.620000", "152901.080000", "152901.540000", "152902.000000", "152902.460000", "152902.920000", "152903.380000", "152903.840000", "152904.300000", "152904.760000", "152905.220000", "152905.680000", "152906.140000", "152906.600000", "152907.060000", "152907.520000", "152907.980000", "152908.440000", "152908.900000", "152909.360000", "152909.820000", "152910.280000", "152910.740000", "152911.200000", "152911.660000", "152912.120000", "152912.580000", "152913.040000", "152913.500000", "152913.960000", "152914.420000", "152914.880000", "152915.340000", "152915.800000", "152916.260000", "152916.720000", "152917.180000", "152917.640000", "152918.100000", "152918.560000", "152919.020000", "152919.480000", "152919.940000", "152920.400000", "152920.860000", "152921.320000", "152921.780000", "152922.240000", "152922.700000", "152923.160000", "152923.620000", "152924.080000", "152924.540000", "152925.000000", "152925.460000", "152925.920000", "152926.380000", "152926.840000", "152927.300000", "152927.760000", "152928.220000", "152928.680000", "152929.140000", "152929.600000", "152930.060000", "152930.520000", "152930.980000", "152931.440000", "152931.900000", "152932.360000", "152932.820000", "152933.280000", "152933.740000", "152934.200000", "152934.660000", "152935.120000", "152935.580000", "152936.040000", "152936.500000", "152936.960000", "152937.420000", "152937.880000", "152938.340000", "152938.800000", "152939.260000", "152939.720000", "152940.180000", "152940.640000", "152941.100000", "152941.560000", "152942.020000", "152942.480000", "152942.940000", "152943.400000", "152943.860000", "152944.320000", "152944.780000", "152945.240000", "152945.700000", "152946.160000", "152946.620000", "152947.080000", "152947.540000", "152948.000000", "152948.460000", "152948.920000", "152949.380000", "152949.840000", "152950.300000", "152950.760000", "152951.220000", "152951.680000", "152952.140000", "152952.600000", "152953.060000", "152953.520000", "152953.980000", "152954.440000", "152954.900000", "152955.360000", "152955.820000", "152956.280000", "152956.740000", "152957.200000", "152957.660000", "152958.120000", "152958.580000", "152959.040000", "152959.500000", "152959.960000", "153000.420000", "153000.880000", "153001.340000", "153001.800000", "153002.260000", "153002.720000", "153003.180000", "153003.640000", "153004.100000", "153004.560000", "153005.020000", "153005.480000", "153005.940000", "153006.400000", "153006.860000", "153007.320000", "153007.780000", "153008.240000", "153008.700000", "153009.160000", "153009.620000", "153010.080000", "153010.540000", "153011.000000", "153011.460000", "153011.920000", "153012.380000", "153012.840000", "153013.300000", "153013.760000", "153014.220000", "153014.680000", "153015.140000", "153015.600000", "153016.060000", "153016.520000", "153016.980000", "153017.440000", "153017.900000", "153018.360000", "153018.820000", "153019.280000", "153019.740000", "153020.200000", "153020.660000", "153021.120000", "153021.580000", "153022.040000", "153022.500000", "153022.960000", "153023.420000", "153023.880000", "153024.340000", "153024.800000", "153025.260000", "153025.720000", "153026.180000", "153026.640000", "153027.100000", "153027.560000", "153028.020000", "153028.480000", "153028.940000", "153029.400000", "153029.860000", "153030.320000", "153030.780000", "153031.240000", "153031.700000", "153032.160000", "153032.620000", "153033.080000", "153033.540000", "153034.000000", "153034.460000", "153034.920000", "153035.380000", "153035.840000", "153036.300000", "153036.760000", "153037.220000", "153037.680000", "153038.140000", "153038.600000", "153039.060000", "153039.520000", "153039.980000", "153040.440000", "153040.900000", "153041.360000", "153041.820000", "153042.280000", "153042.740000", "153043.200000", "153043.660000", "153044.120000", "153044.580000", "153045.040000", "153045.500000", "153045.960000", "153046.420000", "153046.880000", "153047.340000", "153047.800000", "153048.260000", "153048.720000", "153049.180000", "153049.640000", "153050.100000", "153050.560000", "153051.020000", "153051.480000", "153051.940000", "153052.400000", "153052.860000", "153053.320000", "153053.780000", "153054.240000", "153054.700000", "153055.160000", "153055.620000", "153056.080000", "153056.540000", "153057.000000", "153057.460000", "153057.920000", "153058.380000", "153058.840000", "153059.300000", "153059.760000", "153100.220000", "153100.680000", "153101.140000", "153101.600000", "153102.060000", "153102.520000", "153102.980000", "153103.440000", "153103.900000", "153104.360000", "153104.820000", "153105.280000", "153105.740000", "153106.200000", "153106.660000", "153107.120000", "153107.580000", "153108.040000", "153108.500000", "153108.960000", "153109.420000", "153109.880000", "153110.340000", "153110.800000", "153111.260000", "153111.720000", "153112.180000", "153112.640000", "153113.100000", "153113.560000", "153114.020000", "153114.480000", "153114.940000", "153115.400000", "153115.860000", "153116.320000", "153116.780000", "153117.240000", "153117.700000", "153118.160000", "153118.620000", "153119.080000", "153119.540000", "153120.000000", "153120.460000", "153120.920000", "153121.380000", "153121.840000", "153122.300000", "153122.760000", "153123.220000", "153123.680000", "153124.140000", "153124.600000", "153125.060000", "153125.520000", "153125.980000", "153126.440000", "153126.900000", "153127.360000", "153127.820000", "153128.280000", "153128.740000", "153129.200000", "153129.660000", "153130.120000", "153130.580000", "153131.040000", "153131.500000", "153131.960000", "153132.420000", "153132.880000", "153133.340000", "153133.800000", "153134.260000", "153134.720000", "153135.180000", "153135.640000", "153136.100000", "153136.560000", "153137.020000", "153137.480000", "153137.940000", "153138.400000", "153138.860000", "153139.320000", "153139.780000", "153140.240000", "153140.700000", "153141.160000", "153141.620000", "153142.080000", "153142.540000", "153143.000000", "153143.460000", "153143.920000", "153144.380000", "153144.840000", "153145.300000", "153145.760000", "153146.220000", "153146.680000", "153147.140000", "153147.600000", "153148.060000", "153148.520000", "153148.980000", "153149.440000", "153149.900000", "153150.360000", "153150.820000", "153151.280000", "153151.740000", "153152.200000", "153152.660000", "153153.120000", "153153.580000", "153154.040000", "153154.500000", "153154.960000", "153155.420000", "153155.880000", "153156.340000", "153156.800000", "153157.260000", "153157.720000", "153158.180000", "153158.640000", "153159.100000", "153159.560000", "153200.020000", "153200.480000", "153200.940000", "153201.400000", "153201.860000", "153202.320000", "153202.780000", "153203.240000", "153203.700000", "153204.160000", "153204.620000", "153205.080000", "153205.540000", "153206.000000", "153206.460000", "153206.920000", "153207.380000", "153207.840000", "153208.300000", "153208.760000", "153209.220000", "153209.680000", "153210.140000", "153210.600000", "153211.060000", "153211.520000", "153211.980000", "153212.440000", "153212.900000", "153213.360000", "153213.820000", "153214.280000", "153214.740000", "153215.200000", "153215.660000", "153216.120000", "153216.580000", "153217.040000", "153217.500000", "153217.960000", "153218.420000", "153218.880000", "153219.340000", "153219.800000", "153220.260000", "153220.720000", "153221.180000", "153221.640000", "153222.100000", "153222.560000", "153223.020000", "153223.480000", "153223.940000", "153224.400000", "153224.860000", "153225.320000", "153225.780000", "153226.240000", "153226.700000", "153227.160000", "153227.620000", "153228.080000", "153228.540000", "153229.000000", "153229.460000", "153229.920000", "153230.380000", "153230.840000", "153231.300000", "153231.760000", "153232.220000", "153232.680000", "153233.140000", "153233.600000", "153234.060000", "153234.520000", "153234.980000", "153235.440000", "153235.900000", "153236.360000", "153236.820000", "153237.280000", "153237.740000", "153238.200000", "153238.660000", "153239.120000", "153239.580000", "153240.040000", "153240.500000", "153240.960000", "153241.420000", "153241.880000", "153242.340000", "153242.800000", "153243.260000", "153243.720000", "153244.180000", "153244.640000", "153245.100000", "153245.560000", "153246.020000", "153246.480000", "153246.940000", "153247.400000", "153247.860000", "153248.320000", "153248.780000", "153249.240000", "153249.700000", "153250.160000", "153250.620000", "153251.080000", "153251.540000", "153252.000000", "153252.460000", "153252.920000", "153253.380000", "153253.840000", "153254.300000", "153254.760000", "153255.220000", "153255.680000", "153256.140000", "153256.600000", "153257.060000", "153257.520000", "153257.980000", "153258.440000", "153258.900000", "153259.360000", "153259.820000", "153300.280000", "153300.740000", "153301.200000", "153301.660000", "153302.120000", "153302.580000", "153303.040000", "153303.500000", "153303.960000", "153304.420000", "153304.880000", "153305.340000", "153305.800000", "153306.260000", "153306.720000", "153307.180000", "153307.640000", "153308.100000", "153308.560000", "153309.020000", "153309.480000", "153309.940000", "153310.400000", "153310.860000", "153311.320000", "153311.780000", "153312.240000", "153312.700000", "153313.160000", "153313.620000", "153314.080000", "153314.540000", "153315.000000", "153315.460000", "153315.920000", "153316.380000", "153316.840000", "153317.300000", "153317.760000", "153318.220000", "153318.680000", "153319.140000", "153319.600000", "153320.060000", "153320.520000", "153320.980000", "153321.440000", "153321.900000", "153322.360000", "153322.820000", "153323.280000", "153323.740000", "153324.200000", "153324.660000", "153325.120000", "153325.580000", "153326.040000", "153326.500000", "153326.960000", "153327.420000", "153327.880000", "153328.340000", "153328.800000", "153329.260000", "153329.720000", "153330.180000", "153330.640000", "153331.100000", "153331.560000", "153332.020000", "153332.480000", "153332.940000", "153333.400000", "153333.860000", "153334.320000", "153334.780000", "153335.240000", "153335.700000", "153336.160000", "153336.620000", "153337.080000", "153337.540000", "153338.000000", "153338.460000", "153338.920000", "153339.380000", "153339.840000", "153340.300000", "153340.760000", "153341.220000", "153341.680000", "153342.140000", "153342.600000", "153343.060000", "153343.520000", "153343.980000", "153344.440000", "153344.900000", "153345.360000", "153345.820000", "153346.280000", "153346.740000", "153347.200000", "153347.660000", "153348.120000", "153348.580000", "153349.040000", "153349.500000", "153349.960000", "153350.420000", "153350.880000", "153351.340000", "153351.800000", "153352.260000", "153352.720000", "153353.180000", "153353.640000", "153354.100000", "153354.560000", "153355.020000", "153355.480000", "153355.940000", "153356.400000", "153356.860000", "153357.320000", "153357.780000", "153358.240000", "153358.700000", "153359.160000", "153359.620000", "153400.080000", "153400.540000", "153401.000000", "153401.460000", "153401.920000", "153402.380000", "153402.840000", "153403.300000", "153403.760000", "153404.220000", "153404.680000", "153405.140000", "153405.600000", "153406.060000", "153406.520000", "153406.980000", "153407.440000", "153407.900000", "153408.360000", "153408.820000", "153409.280000", "153409.740000", "153410.200000", "153410.660000", "153411.120000", "153411.580000", "153412.040000", "153412.500000", "153412.960000", "153413.420000", "153413.880000", "153414.340000"],
