{
  "AcquisitionMatrixPE": 82,
  "AcquisitionNumber": 1,
  "AcquisitionTime": "15:53:27.582500",
  "BandwidthPerPixelPhaseEncode": 24.888,
  "BaseResolution": 82,
  "BodyPartExamined": "BRAIN",
  "ConsistencyInfo": "N4_VE11C_LATEST_20160120",
  "ConversionSoftware": "dcm2niix",
  "ConversionSoftwareVersion": "v1.0.20201102",
  "DerivedVendorReportedEchoSpacing": 0.00049,
  "DeviceSerialNumber": "66112",
  "DwellTime": 2e-06,
  "EchoTime": 0.0272,
  "EchoTrainLength": 82,
  "EffectiveEchoSpacing": 0.00049,
  "FlipAngle": 44,
  "ImageComments": "Unaliased MB8/PE3",
  "ImageOrientationPatientDICOM": [0.99781, 0.0660992, 0.00233253, -0.0659247, 0.991092, 0.115714],
  "ImageType": [
    "ORIGINAL",
    "PRIMARY",
    "FMRI",
    "NONE",
    "MB",
    "ND",
    "NORM",
    "MOSAIC"
],
  "ImagingFrequency": 123.253,
  "InPlanePhaseEncodingDirectionDICOM": "COL",
  "InstitutionAddress": "Maynard 3,Hanover,NH,US,03755",
  "InstitutionName": "Dartmouth College - PBS",
  "InstitutionalDepartmentName": "Department",
  "MRAcquisitionType": "2D",
  "MagneticFieldStrength": 3,
  "Manufacturer": "Siemens",
  "ManufacturersModelName": "Prisma",
  "Modality": "MR",
  "MultibandAccelerationFactor": 8,
  "PartialFourier": 1,
  "PatientPosition": "HFS",
  "PercentPhaseFOV": 100,
  "PercentSampling": 100,
  "PhaseEncodingDirection": "j-",
  "PhaseEncodingSteps": 82,
  "PhaseResolution": 1,
  "PixelBandwidth": 3050,
  "ProcedureStepDescription": "Wager_Wager^1076_spacetop",
  "ProtocolName": "func_run-04_task-social_acq-ap-mb8",
  "PulseSequenceDetails": "%CustomerSeq%\\cmrr_mbep2d_bold",
  "ReceiveCoilActiveElements": "HEA;HEP",
  "ReceiveCoilName": "Head_32",
  "ReconMatrixPE": 82,
  "RepetitionTime": 0.46,
  "SAR": 0.0845103,
  "ScanOptions": "FS",
  "ScanningSequence": "EP",
  "SequenceName": "epfid2d1_82",
  "SequenceVariant": "SK\\SS",
  "SeriesDescription": "func_run-04_task-social_acq-ap-mb8",
  "SeriesNumber": 32,
  "ShimSetting": [4161, -7789, -7261, 492, 25, -356, 57, 41],
  "SliceThickness": 2.7,
  "SliceTiming": [0, 0.2525, 0.0625, 0.315, 0.125, 0.3775, 0.1875, 0, 0.2525, 0.0625, 0.315, 0.125, 0.3775, 0.1875, 0, 0.2525, 0.0625, 0.315, 0.125, 0.3775, 0.1875, 0, 0.2525, 0.0625, 0.315, 0.125, 0.3775, 0.1875, 0, 0.2525, 0.0625, 0.315, 0.125, 0.3775, 0.1875, 0, 0.2525, 0.0625, 0.315, 0.125, 0.3775, 0.1875, 0, 0.2525, 0.0625, 0.315, 0.125, 0.3775, 0.1875, 0, 0.2525, 0.0625, 0.315, 0.125, 0.3775, 0.1875],
  "SoftwareVersions": "syngo MR E11",
  "SpacingBetweenSlices": 2.7,
  "StationName": "AWP66112",
  "TaskName": "social",
  "TotalReadoutTime": 0.03969,
  "TxRefAmp": 235.085,
  "WipMemBlock": "9c80abe7-12d1-4557-98ce-d96db930032f||Sequence: R016 ve11c/master r/e634e98; Dec 19 2017 11:00:25 by eja",
  "dcmmeta_affine": [
    [-2.6770522594451904, -0.17687101662158966, -0.014409560710191727, 118.67741394042969],
    [-0.17733925580978394, 2.6590282917022705, 0.31216010451316833, -92.51420593261719],
    [0.006258015520870686, -0.3104534149169922, 2.6818554401397705, -51.41645050048828],
    [0.0, 0.0, 0.0, 1.0]
],
  "dcmmeta_reorient_transform": [
    [0.0, -1.0, 0.0, 81.0],
    [1.0, 0.0, 0.0, 0.0],
    [0.0, 0.0, 1.0, 0.0],
    [0.0, 0.0, 0.0, 1.0]
],
  "dcmmeta_shape": [82, 82, 56, 872],
  "dcmmeta_slice_dim": 2,
  "dcmmeta_version": 0.6,
  "global": {
    "const": {
      "AccessionNumber": "A003583",
      "AcquisitionMatrix": [82, 0, 0, 82],
      "AngioFlag": "N",
      "BitsAllocated": 16,
      "BitsStored": 12,
      "BodyPartExamined": "BRAIN",
      "Columns": 656,
      "EchoNumbers": 1,
      "EchoTime": 27.2,
      "EchoTrainLength": 82,
      "FlipAngle": 44.0,
      "HighBit": 11,
      "ImageOrientationPatient": [0.99781033192856, 0.06609917387309, 0.00233253294, -0.0659246484116, 0.99109237970955, 0.11571445723619],
      "ImagePositionPatient": [-821.90285538046, -936.90461338897, -167.45936439085],
      "ImageType": [
        "ORIGINAL",
        "PRIMARY",
        "FMRI",
        "NONE",
        "MB",
        "ND",
        "NORM",
        "MOSAIC"
],
      "ImagedNucleus": "1H",
      "ImagingFrequency": 123.252562,
      "InPlanePhaseEncodingDirection": "COL",
      "MRAcquisitionType": "2D",
      "MagneticFieldStrength": 3.0,
      "Manufacturer": "SIEMENS",
      "ManufacturerModelName": "Prisma",
      "Modality": "MR",
      "NumberOfAverages": 1.0,
      "NumberOfPhaseEncodingSteps": 82,
      "PercentPhaseFieldOfView": 100.0,
      "PercentSampling": 100.0,
      "PerformedProcedureStepStartTime": "144530.354000",
      "PhotometricInterpretation": "MONOCHROME2",
      "PixelBandwidth": 3050.0,
      "PixelRepresentation": 0,
      "PixelSpacing": [2.6829268932343, 2.6829268932343],
      "ProtocolName": "func_run-04_task-social_acq-ap-mb8",
      "RepetitionTime": 460.0,
      "Rows": 656,
      "SAR": 0.08451028941298,
      "SamplesPerPixel": 1,
      "ScanOptions": "FS",
      "ScanningSequence": "EP",
      "SequenceName": "epfid2d1_82",
      "SequenceVariant": [
        "SK",
        "SS"
],
      "SeriesDescription": "func_run-04_task-social_acq-ap-mb8",
      "SeriesNumber": 32,
      "SeriesTime": "155331.689000",
      "SliceLocation": -62.400304542182,
      "SliceThickness": 2.7000000476837,
      "SmallestImagePixelValue": 0,
      "SoftwareVersions": "syngo MR E11",
      "SpacingBetweenSlices": 2.6999999480551,
      "SpecificCharacterSet": "ISO_IR 100",
      "StudyID": "1",
      "StudyTime": "144530.223000",
      "TransmitCoilName": "Body",
      "VariableFlipAngleFlag": "N",
      "WindowCenterWidthExplanation": "Algo1",
      "dBdt": 0.0},
    "slices": {}
  },
  "time": {
    "samples": {
      "AcquisitionNumber": [1, 2, 3, 4, 5, 6, 7, 8, 9, 10, 11, 12, 13, 14, 15, 16, 17, 18, 19, 20, 21, 22, 23, 24, 25, 26, 27, 28, 29, 30, 31, 32, 33, 34, 35, 36, 37, 38, 39, 40, 41, 42, 43, 44, 45, 46, 47, 48, 49, 50, 51, 52, 53, 54, 55, 56, 57, 58, 59, 60, 61, 62, 63, 64, 65, 66, 67, 68, 69, 70, 71, 72, 73, 74, 75, 76, 77, 78, 79, 80, 81, 82, 83, 84, 85, 86, 87, 88, 89, 90, 91, 92, 93, 94, 95, 96, 97, 98, 99, 100, 101, 102, 103, 104, 105, 106, 107, 108, 109, 110, 111, 112, 113, 114, 115, 116, 117, 118, 119, 120, 121, 122, 123, 124, 125, 126, 127, 128, 129, 130, 131, 132, 133, 134, 135, 136, 137, 138, 139, 140, 141, 142, 143, 144, 145, 146, 147, 148, 149, 150, 151, 152, 153, 154, 155, 156, 157, 158, 159, 160, 161, 162, 163, 164, 165, 166, 167, 168, 169, 170, 171, 172, 173, 174, 175, 176, 177, 178, 179, 180, 181, 182, 183, 184, 185, 186, 187, 188, 189, 190, 191, 192, 193, 194, 195, 196, 197, 198, 199, 200, 201, 202, 203, 204, 205, 206, 207, 208, 209, 210, 211, 212, 213, 214, 215, 216, 217, 218, 219, 220, 221, 222, 223, 224, 225, 226, 227, 228, 229, 230, 231, 232, 233, 234, 235, 236, 237, 238, 239, 240, 241, 242, 243, 244, 245, 246, 247, 248, 249, 250, 251, 252, 253, 254, 255, 256, 257, 258, 259, 260, 261, 262, 263, 264, 265, 266, 267, 268, 269, 270, 271, 272, 273, 274, 275, 276, 277, 278, 279, 280, 281, 282, 283, 284, 285, 286, 287, 288, 289, 290, 291, 292, 293, 294, 295, 296, 297, 298, 299, 300, 301, 302, 303, 304, 305, 306, 307, 308, 309, 310, 311, 312, 313, 314, 315, 316, 317, 318, 319, 320, 321, 322, 323, 324, 325, 326, 327, 328, 329, 330, 331, 332, 333, 334, 335, 336, 337, 338, 339, 340, 341, 342, 343, 344, 345, 346, 347, 348, 349, 350, 351, 352, 353, 354, 355, 356, 357, 358, 359, 360, 361, 362, 363, 364, 365, 366, 367, 368, 369, 370, 371, 372, 373, 374, 375, 376, 377, 378, 379, 380, 381, 382, 383, 384, 385, 386, 387, 388, 389, 390, 391, 392, 393, 394, 395, 396, 397, 398, 399, 400, 401, 402, 403, 404, 405, 406, 407, 408, 409, 410, 411, 412, 413, 414, 415, 416, 417, 418, 419, 420, 421, 422, 423, 424, 425, 426, 427, 428, 429, 430, 431, 432, 433, 434, 435, 436, 437, 438, 439, 440, 441, 442, 443, 444, 445, 446, 447, 448, 449, 450, 451, 452, 453, 454, 455, 456, 457, 458, 459, 460, 461, 462, 463, 464, 465, 466, 467, 468, 469, 470, 471, 472, 473, 474, 475, 476, 477, 478, 479, 480, 481, 482, 483, 484, 485, 486, 487, 488, 489, 490, 491, 492, 493, 494, 495, 496, 497, 498, 499, 500, 501, 502, 503, 504, 505, 506, 507, 508, 509, 510, 511, 512, 513, 514, 515, 516, 517, 518, 519, 520, 521, 522, 523, 524, 525, 526, 527, 528, 529, 530, 531, 532, 533, 534, 535, 536, 537, 538, 539, 540, 541, 542, 543, 544, 545, 546, 547, 548, 549, 550, 551, 552, 553, 554, 555, 556, 557, 558, 559, 560, 561, 562, 563, 564, 565, 566, 567, 568, 569, 570, 571, 572, 573, 574, 575, 576, 577, 578, 579, 580, 581, 582, 583, 584, 585, 586, 587, 588, 589, 590, 591, 592, 593, 594, 595, 596, 597, 598, 599, 600, 601, 602, 603, 604, 605, 606, 607, 608, 609, 610, 611, 612, 613, 614, 615, 616, 617, 618, 619, 620, 621, 622, 623, 624, 625, 626, 627, 628, 629, 630, 631, 632, 633, 634, 635, 636, 637, 638, 639, 640, 641, 642, 643, 644, 645, 646, 647, 648, 649, 650, 651, 652, 653, 654, 655, 656, 657, 658, 659, 660, 661, 662, 663, 664, 665, 666, 667, 668, 669, 670, 671, 672, 673, 674, 675, 676, 677, 678, 679, 680, 681, 682, 683, 684, 685, 686, 687, 688, 689, 690, 691, 692, 693, 694, 695, 696, 697, 698, 699, 700, 701, 702, 703, 704, 705, 706, 707, 708, 709, 710, 711, 712, 713, 714, 715, 716, 717, 718, 719, 720, 721, 722, 723, 724, 725, 726, 727, 728, 729, 730, 731, 732, 733, 734, 735, 736, 737, 738, 739, 740, 741, 742, 743, 744, 745, 746, 747, 748, 749, 750, 751, 752, 753, 754, 755, 756, 757, 758, 759, 760, 761, 762, 763, 764, 765, 766, 767, 768, 769, 770, 771, 772, 773, 774, 775, 776, 777, 778, 779, 780, 781, 782, 783, 784, 785, 786, 787, 788, 789, 790, 791, 792, 793, 794, 795, 796, 797, 798, 799, 800, 801, 802, 803, 804, 805, 806, 807, 808, 809, 810, 811, 812, 813, 814, 815, 816, 817, 818, 819, 820, 821, 822, 823, 824, 825, 826, 827, 828, 829, 830, 831, 832, 833, 834, 835, 836, 837, 838, 839, 840, 841, 842, 843, 844, 845, 846, 847, 848, 849, 850, 851, 852, 853, 854, 855, 856, 857, 858, 859, 860, 861, 862, 863, 864, 865, 866, 867, 868, 869, 870, 871, 872],
      "AcquisitionTime": ["155327.582500", "155328.042500", "155328.502500", "155328.962500", "155329.422500", "155329.882500", "155330.342500", "155330.802500", "155331.262500", "155331.722500", "155332.182500", "155332.642500", "155333.102500", "155333.562500", "155334.022500", "155334.482500", "155334.942500", "155335.402500", "155335.862500", "155336.322500", "155336.782500", "155337.242500", "155337.702500", "155338.162500", "155338.622500", "155339.082500", "155339.542500", "155340.002500", "155340.462500", "155340.922500", "155341.382500", "155341.842500", "155342.302500", "155342.762500", "155343.222500", "155343.682500", "155344.142500", "155344.602500", "155345.062500", "155345.522500", "155345.982500", "155346.442500", "155346.902500", "155347.362500", "155347.822500", "155348.282500", "155348.742500", "155349.202500", "155349.662500", "155350.122500", "155350.582500", "155351.042500", "155351.502500", "155351.962500", "155352.422500", "155352.882500", "155353.342500", "155353.802500", "155354.262500", "155354.722500", "155355.182500", "155355.642500", "155356.102500", "155356.562500", "155357.022500", "155357.482500", "155357.942500", "155358.402500", "155358.862500", "155359.322500", "155359.782500", "155400.242500", "155400.702500", "155401.162500", "155401.622500", "155402.082500", "155402.542500", "155403.002500", "155403.462500", "155403.922500", "155404.382500", "155404.842500", "155405.302500", "155405.762500", "155406.222500", "155406.682500", "155407.142500", "155407.602500", "155408.062500", "155408.522500", "155408.982500", "155409.442500", "155409.902500", "155410.362500", "155410.822500", "155411.282500", "155411.742500", "155412.202500", "155412.662500", "155413.122500", "155413.582500", "155414.042500", "155414.502500", "155414.962500", "155415.422500", "155415.882500", "155416.342500", "155416.802500", "155417.262500", "155417.722500", "155418.182500", "155418.642500", "155419.102500", "155419.562500", "155420.022500", "155420.482500", "155420.942500", "155421.402500", "155421.862500", "155422.322500", "155422.782500", "155423.242500", "155423.702500", "155424.162500", "155424.622500", "155425.082500", "155425.542500", "155426.002500", "155426.462500", "155426.922500", "155427.382500", "155427.842500", "155428.302500", "155428.762500", "155429.222500", "155429.682500", "155430.142500", "155430.602500", "155431.062500", "155431.522500", "155431.982500", "155432.442500", "155432.902500", "155433.362500", "155433.822500", "155434.282500", "155434.742500", "155435.202500", "155435.662500", "155436.122500", "155436.582500", "155437.042500", "155437.502500", "155437.962500", "155438.422500", "155438.882500", "155439.342500", "155439.802500", "155440.262500", "155440.722500", "155441.182500", "155441.642500", "155442.102500", "155442.562500", "155443.022500", "155443.482500", "155443.942500", "155444.402500", "155444.862500", "155445.322500", "155445.782500", "155446.242500", "155446.702500", "155447.162500", "155447.622500", "155448.082500", "155448.542500", "155449.002500", "155449.462500", "155449.922500", "155450.382500", "155450.842500", "155451.302500", "155451.762500", "155452.222500", "155452.682500", "155453.142500", "155453.602500", "155454.062500", "155454.522500", "155454.982500", "155455.442500", "155455.902500", "155456.362500", "155456.822500", "155457.282500", "155457.742500", "155458.202500", "155458.662500", "155459.122500", "155459.582500", "155500.042500", "155500.502500", "155500.962500", "155501.422500", "155501.882500", "155502.342500", "155502.802500", "155503.262500", "155503.722500", "155504.182500", "155504.642500", "155505.102500", "155505.562500", "155506.022500", "155506.482500", "155506.942500", "155507.402500", "155507.862500", "155508.322500", "155508.782500", "155509.242500", "155509.702500", "155510.162500", "155510.622500", "155511.082500", "155511.542500", "155512.002500", "155512.462500", "155512.922500", "155513.382500", "155513.842500", "155514.302500", "155514.762500", "155515.222500", "155515.682500", "155516.142500", "155516.602500", "155517.062500", "155517.522500", "155517.982500", "155518.442500", "155518.902500", "155519.362500", "155519.822500", "155520.282500", "155520.742500", "155521.202500", "155521.662500", "155522.122500", "155522.582500", "155523.042500", "155523.502500", "155523.962500", "155524.422500", "155524.882500", "155525.342500", "155525.802500", "155526.262500", "155526.722500", "155527.182500", "155527.642500", "155528.102500", "155528.562500", "155529.022500", "155529.482500", "155529.942500", "155530.402500", "155530.862500", "155531.322500", "155531.782500", "155532.242500", "155532.702500", "155533.162500", "155533.622500", "155534.082500", "155534.542500", "155535.002500", "155535.462500", "155535.922500", "155536.382500", "155536.842500", "155537.302500", "155537.762500", "155538.222500", "155538.682500", "155539.142500", "155539.602500", "155540.062500", "155540.522500", "155540.982500", "155541.442500", "155541.902500", "155542.362500", "155542.822500", "155543.282500", "155543.742500", "155544.202500", "155544.662500", "155545.122500", "155545.582500", "155546.042500", "155546.502500", "155546.962500", "155547.422500", "155547.882500", "155548.342500", "155548.802500", "155549.262500", "155549.722500", "155550.182500", "155550.642500", "155551.102500", "155551.562500", "155552.022500", "155552.482500", "155552.942500", "155553.402500", "155553.862500", "155554.322500", "155554.782500", "155555.242500", "155555.702500", "155556.162500", "155556.622500", "155557.082500", "155557.542500", "155558.002500", "155558.462500", "155558.922500", "155559.382500", "155559.842500", "155600.302500", "155600.762500", "155601.222500", "155601.682500", "155602.142500", "155602.602500", "155603.062500", "155603.522500", "155603.982500", "155604.442500", "155604.902500", "155605.362500", "155605.822500", "155606.282500", "155606.742500", "155607.202500", "155607.662500", "155608.122500", "155608.582500", "155609.042500", "155609.502500", "155609.962500", "155610.422500", "155610.882500", "155611.342500", "155611.802500", "155612.262500", "155612.722500", "155613.182500", "155613.642500", "155614.102500", "155614.562500", "155615.022500", "155615.482500", "155615.942500", "155616.402500", "155616.862500", "155617.322500", "155617.782500", "155618.242500", "155618.702500", "155619.162500", "155619.622500", "155620.082500", "155620.542500", "155621.002500", "155621.462500", "155621.922500", "155622.382500", "155622.842500", "155623.302500", "155623.762500", "155624.222500", "155624.682500", "155625.142500", "155625.602500", "155626.062500", "155626.522500", "155626.982500", "155627.442500", "155627.902500", "155628.362500", "155628.822500", "155629.282500", "155629.742500", "155630.202500", "155630.662500", "155631.122500", "155631.582500", "155632.042500", "155632.502500", "155632.962500", "155633.422500", "155633.882500", "155634.342500", "155634.802500", "155635.262500", "155635.722500", "155636.182500", "155636.642500", "155637.102500", "155637.562500", "155638.022500", "155638.482500", "155638.942500", "155639.402500", "155639.862500", "155640.322500", "155640.782500", "155641.242500", "155641.702500", "155642.162500", "155642.622500", "155643.082500", "155643.542500", "155644.002500", "155644.462500", "155644.922500", "155645.382500", "155645.842500", "155646.302500", "155646.762500", "155647.222500", "155647.682500", "155648.142500", "155648.602500", "155649.062500", "155649.522500", "155649.982500", "155650.442500", "155650.902500", "155651.362500", "155651.822500", "155652.282500", "155652.742500", "155653.202500", "155653.662500", "155654.122500", "155654.582500", "155655.042500", "155655.502500", "155655.962500", "155656.422500", "155656.882500", "155657.342500", "155657.802500", "155658.262500", "155658.722500", "155659.182500", "155659.642500", "155700.102500", "155700.562500", "155701.022500", "155701.482500", "155701.942500", "155702.402500", "155702.862500", "155703.322500", "155703.782500", "155704.242500", "155704.702500", "155705.162500", "155705.622500", "155706.082500", "155706.542500", "155707.002500", "155707.462500", "155707.922500", "155708.382500", "155708.842500", "155709.302500", "155709.762500", "155710.222500", "155710.682500", "155711.142500", "155711.602500", "155712.062500", "155712.522500", "155712.982500", "155713.442500", "155713.902500", "155714.362500", "155714.822500", "155715.282500", "155715.742500", "155716.202500", "155716.662500", "155717.122500", "155717.582500", "155718.042500", "155718.502500", "155718.962500", "155719.422500", "155719.882500", "155720.342500", "155720.802500", "155721.262500", "155721.722500", "155722.182500", "155722.642500", "155723.102500", "155723.562500", "155724.022500", "155724.482500", "155724.942500", "155725.402500", "155725.862500", "155726.322500", "155726.782500", "155727.242500", "155727.702500", "155728.162500", "155728.622500", "155729.082500", "155729.542500", "155730.002500", "155730.462500", "155730.922500", "155731.382500", "155731.842500", "155732.302500", "155732.762500", "155733.222500", "155733.682500", "155734.142500", "155734.602500", "155735.062500", "155735.522500", "155735.982500", "155736.442500", "155736.902500", "155737.362500", "155737.822500", "155738.282500", "155738.742500", "155739.202500", "155739.662500", "155740.122500", "155740.582500", "155741.042500", "155741.502500", "155741.962500", "155742.422500", "155742.882500", "155743.342500", "155743.802500", "155744.262500", "155744.722500", "155745.182500", "155745.642500", "155746.102500", "155746.562500", "155747.022500", "155747.482500", "155747.942500", "155748.402500", "155748.862500", "155749.322500", "155749.782500", "155750.242500", "155750.702500", "155751.162500", "155751.622500", "155752.082500", "155752.542500", "155753.002500", "155753.462500", "155753.922500", "155754.382500", "155754.842500", "155755.302500", "155755.762500", "155756.222500", "155756.682500", "155757.142500", "155757.602500", "155758.062500", "155758.522500", "155758.982500", "155759.442500", "155759.902500", "155800.362500", "155800.822500", "155801.282500", "155801.742500", "155802.202500", "155802.662500", "155803.122500", "155803.582500", "155804.042500", "155804.502500", "155804.962500", "155805.422500", "155805.882500", "155806.342500", "155806.802500", "155807.262500", "155807.722500", "155808.182500", "155808.642500", "155809.102500", "155809.562500", "155810.022500", "155810.482500", "155810.942500", "155811.402500", "155811.862500", "155812.322500", "155812.782500", "155813.242500", "155813.702500", "155814.162500", "155814.622500", "155815.082500", "155815.542500", "155816.002500", "155816.462500", "155816.922500", "155817.382500", "155817.842500", "155818.302500", "155818.762500", "155819.222500", "155819.682500", "155820.142500", "155820.602500", "155821.062500", "155821.522500", "155821.982500", "155822.442500", "155822.902500", "155823.362500", "155823.822500", "155824.282500", "155824.742500", "155825.202500", "155825.662500", "155826.122500", "155826.582500", "155827.042500", "155827.502500", "155827.962500", "155828.422500", "155828.882500", "155829.342500", "155829.802500", "155830.262500", "155830.722500", "155831.182500", "155831.642500", "155832.102500", "155832.562500", "155833.022500", "155833.482500", "155833.942500", "155834.402500", "155834.862500", "155835.322500", "155835.782500", "155836.242500", "155836.702500", "155837.162500", "155837.622500", "155838.082500", "155838.542500", "155839.002500", "155839.462500", "155839.922500", "155840.382500", "155840.842500", "155841.302500", "155841.762500", "155842.222500", "155842.682500", "155843.142500", "155843.602500", "155844.062500", "155844.522500", "155844.982500", "155845.442500", "155845.902500", "155846.362500", "155846.822500", "155847.282500", "155847.742500", "155848.202500", "155848.662500", "155849.122500", "155849.582500", "155850.042500", "155850.502500", "155850.962500", "155851.422500", "155851.882500", "155852.342500", "155852.802500", "155853.262500", "155853.722500", "155854.182500", "155854.642500", "155855.102500", "155855.562500", "155856.022500", "155856.482500", "155856.942500", "155857.402500", "155857.862500", "155858.322500", "155858.782500", "155859.242500", "155859.702500", "155900.162500", "155900.622500", "155901.082500", "155901.542500", "155902.002500", "155902.462500", "155902.922500", "155903.382500", "155903.842500", "155904.302500", "155904.762500", "155905.222500", "155905.682500", "155906.142500", "155906.602500", "155907.062500", "155907.522500", "155907.982500", "155908.442500", "155908.902500", "155909.362500", "155909.822500", "155910.282500", "155910.742500", "155911.202500", "155911.662500", "155912.122500", "155912.582500", "155913.042500", "155913.502500", "155913.962500", "155914.422500", "155914.882500", "155915.342500", "155915.802500", "155916.262500", "155916.722500", "155917.182500", "155917.642500", "155918.102500", "155918.562500", "155919.022500", "155919.482500", "155919.942500", "155920.402500", "155920.862500", "155921.322500", "155921.782500", "155922.242500", "155922.702500", "155923.162500", "155923.622500", "155924.082500", "155924.542500", "155925.002500", "155925.462500", "155925.922500", "155926.382500", "155926.842500", "155927.302500", "155927.762500", "155928.222500", "155928.682500", "155929.142500", "155929.602500", "155930.062500", "155930.522500", "155930.982500", "155931.442500", "155931.902500", "155932.362500", "155932.822500", "155933.282500", "155933.742500", "155934.202500", "155934.662500", "155935.122500", "155935.582500", "155936.042500", "155936.502500", "155936.962500", "155937.422500", "155937.882500", "155938.342500", "155938.802500", "155939.262500", "155939.722500", "155940.182500", "155940.642500", "155941.102500", "155941.562500", "155942.022500", "155942.482500", "155942.942500", "155943.402500", "155943.862500", "155944.322500", "155944.782500", "155945.242500", "155945.702500", "155946.162500", "155946.622500", "155947.082500", "155947.542500", "155948.002500", "155948.462500", "155948.922500", "155949.382500", "155949.842500", "155950.302500", "155950.762500", "155951.222500", "155951.682500", "155952.142500", "155952.602500", "155953.062500", "155953.522500", "155953.982500", "155954.442500", "155954.902500", "155955.362500", "155955.822500", "155956.282500", "155956.742500", "155957.202500", "155957.662500", "155958.122500", "155958.582500", "155959.042500", "155959.502500", "155959.962500", "160000.422500", "160000.882500", "160001.342500", "160001.802500", "160002.262500", "160002.722500", "160003.182500", "160003.642500", "160004.102500", "160004.562500", "160005.022500", "160005.482500", "160005.942500", "160006.402500", "160006.862500", "160007.322500", "160007.782500", "160008.242500"],
