{
  "AcquisitionMatrixPE": 82,
  "AcquisitionNumber": 1,
  "AcquisitionTime": "16:09:41.787500",
  "BandwidthPerPixelPhaseEncode": 24.888,
  "BaseResolution": 82,
  "BodyPartExamined": "BRAIN",
  "ConsistencyInfo": "N4_VE11C_LATEST_20160120",
  "ConversionSoftware": "dcm2niix",
  "ConversionSoftwareVersion": "v1.0.20201102",
  "DerivedVendorReportedEchoSpacing": 0.00049,
  "DeviceSerialNumber": "66112",
  "DwellTime": 2e-06,
  "EchoTime": 0.0272,
  "EchoTrainLength": 82,
  "EffectiveEchoSpacing": 0.00049,
  "FlipAngle": 44,
  "ImageComments": "Unaliased MB8/PE3",
  "ImageOrientationPatientDICOM": [0.99781, 0.0660992, 0.00233253, -0.0659247, 0.991092, 0.115714],
  "ImageType": [
    "ORIGINAL",
    "PRIMARY",
    "FMRI",
    "NONE",
    "MB",
    "ND",
    "NORM",
    "MOSAIC"
],
  "ImagingFrequency": 123.253,
  "InPlanePhaseEncodingDirectionDICOM": "COL",
  "InstitutionAddress": "Maynard 3,Hanover,NH,US,03755",
  "InstitutionName": "Dartmouth College - PBS",
  "InstitutionalDepartmentName": "Department",
  "MRAcquisitionType": "2D",
  "MagneticFieldStrength": 3,
  "Manufacturer": "Siemens",
  "ManufacturersModelName": "Prisma",
  "Modality": "MR",
  "MultibandAccelerationFactor": 8,
  "PartialFourier": 1,
  "PatientPosition": "HFS",
  "PercentPhaseFOV": 100,
  "PercentSampling": 100,
  "PhaseEncodingDirection": "j-",
  "PhaseEncodingSteps": 82,
  "PhaseResolution": 1,
  "PixelBandwidth": 3050,
  "ProcedureStepDescription": "Wager_Wager^1076_spacetop",
  "ProtocolName": "func_run-06_task-social_acq-ap-mb8",
  "PulseSequenceDetails": "%CustomerSeq%\\cmrr_mbep2d_bold",
  "ReceiveCoilActiveElements": "HEA;HEP",
  "ReceiveCoilName": "Head_32",
  "ReconMatrixPE": 82,
  "RepetitionTime": 0.46,
  "SAR": 0.0845103,
  "ScanOptions": "FS",
  "ScanningSequence": "EP",
  "SequenceName": "epfid2d1_82",
  "SequenceVariant": "SK\\SS",
  "SeriesDescription": "func_run-06_task-social_acq-ap-mb8",
  "SeriesNumber": 46,
  "ShimSetting": [4161, -7789, -7261, 492, 25, -356, 57, 41],
  "SliceThickness": 2.7,
  "SliceTiming": [0, 0.2525, 0.0625, 0.315, 0.1275, 0.3775, 0.19, 0, 0.2525, 0.0625, 0.315, 0.1275, 0.3775, 0.19, 0, 0.2525, 0.0625, 0.315, 0.1275, 0.3775, 0.19, 0, 0.2525, 0.0625, 0.315, 0.1275, 0.3775, 0.19, 0, 0.2525, 0.0625, 0.315, 0.1275, 0.3775, 0.19, 0, 0.2525, 0.0625, 0.315, 0.1275, 0.3775, 0.19, 0, 0.2525, 0.0625, 0.315, 0.1275, 0.3775, 0.19, 0, 0.2525, 0.0625, 0.315, 0.1275, 0.3775, 0.19],
  "SoftwareVersions": "syngo MR E11",
  "SpacingBetweenSlices": 2.7,
  "StationName": "AWP66112",
  "TaskName": "social",
  "TotalReadoutTime": 0.03969,
  "TxRefAmp": 235.085,
  "WipMemBlock": "b6ed2ff9-8b2d-4619-b322-0e3ae1210bdd||Sequence: R016 ve11c/master r/e634e98; Dec 19 2017 11:00:25 by eja",
  "dcmmeta_affine": [
    [-2.6770522594451904, -0.17687101662158966, -0.014409560710191727, 118.67741394042969],
    [-0.17733925580978394, 2.6590282917022705, 0.31216010451316833, -92.51420593261719],
    [0.006258015520870686, -0.3104534149169922, 2.6818554401397705, -51.41645050048828],
    [0.0, 0.0, 0.0, 1.0]
],
  "dcmmeta_reorient_transform": [
    [0.0, -1.0, 0.0, 81.0],
    [1.0, 0.0, 0.0, 0.0],
    [0.0, 0.0, 1.0, 0.0],
    [0.0, 0.0, 0.0, 1.0]
],
  "dcmmeta_shape": [82, 82, 56, 872],
  "dcmmeta_slice_dim": 2,
  "dcmmeta_version": 0.6,
  "global": {
    "const": {
      "AccessionNumber": "A003583",
      "AcquisitionMatrix": [82, 0, 0, 82],
      "AngioFlag": "N",
      "BitsAllocated": 16,
      "BitsStored": 12,
      "BodyPartExamined": "BRAIN",
      "Columns": 656,
      "EchoNumbers": 1,
      "EchoTime": 27.2,
      "EchoTrainLength": 82,
      "FlipAngle": 44.0,
      "HighBit": 11,
      "ImageOrientationPatient": [0.99781033192856, 0.06609917387309, 0.00233253294, -0.0659246484116, 0.99109237970955, 0.11571445723619],
      "ImagePositionPatient": [-821.90285538046, -936.90461338897, -167.45936439085],
      "ImageType": [
        "ORIGINAL",
        "PRIMARY",
        "FMRI",
        "NONE",
        "MB",
        "ND",
        "NORM",
        "MOSAIC"
],
      "ImagedNucleus": "1H",
      "ImagingFrequency": 123.252565,
      "InPlanePhaseEncodingDirection": "COL",
      "MRAcquisitionType": "2D",
      "MagneticFieldStrength": 3.0,
      "Manufacturer": "SIEMENS",
      "ManufacturerModelName": "Prisma",
      "Modality": "MR",
      "NumberOfAverages": 1.0,
      "NumberOfPhaseEncodingSteps": 82,
      "PercentPhaseFieldOfView": 100.0,
      "PercentSampling": 100.0,
      "PerformedProcedureStepStartTime": "144530.354000",
      "PhotometricInterpretation": "MONOCHROME2",
      "PixelBandwidth": 3050.0,
      "PixelRepresentation": 0,
      "PixelSpacing": [2.6829268932343, 2.6829268932343],
      "ProtocolName": "func_run-06_task-social_acq-ap-mb8",
      "RepetitionTime": 460.0,
      "Rows": 656,
      "SAR": 0.08451028941298,
      "SamplesPerPixel": 1,
      "ScanOptions": "FS",
      "ScanningSequence": "EP",
      "SequenceName": "epfid2d1_82",
      "SequenceVariant": [
        "SK",
        "SS"
],
      "SeriesDescription": "func_run-06_task-social_acq-ap-mb8",
      "SeriesNumber": 46,
      "SeriesTime": "160945.029000",
      "SliceLocation": -62.400304542182,
      "SliceThickness": 2.7000000476837,
      "SmallestImagePixelValue": 0,
      "SoftwareVersions": "syngo MR E11",
      "SpacingBetweenSlices": 2.6999999480551,
      "SpecificCharacterSet": "ISO_IR 100",
      "StudyID": "1",
      "StudyTime": "144530.223000",
      "TransmitCoilName": "Body",
      "VariableFlipAngleFlag": "N",
      "WindowCenterWidthExplanation": "Algo1",
      "dBdt": 0.0},
    "slices": {}
  },
  "time": {
    "samples": {
      "AcquisitionNumber": [1, 2, 3, 4, 5, 6, 7, 8, 9, 10, 11, 12, 13, 14, 15, 16, 17, 18, 19, 20, 21, 22, 23, 24, 25, 26, 27, 28, 29, 30, 31, 32, 33, 34, 35, 36, 37, 38, 39, 40, 41, 42, 43, 44, 45, 46, 47, 48, 49, 50, 51, 52, 53, 54, 55, 56, 57, 58, 59, 60, 61, 62, 63, 64, 65, 66, 67, 68, 69, 70, 71, 72, 73, 74, 75, 76, 77, 78, 79, 80, 81, 82, 83, 84, 85, 86, 87, 88, 89, 90, 91, 92, 93, 94, 95, 96, 97, 98, 99, 100, 101, 102, 103, 104, 105, 106, 107, 108, 109, 110, 111, 112, 113, 114, 115, 116, 117, 118, 119, 120, 121, 122, 123, 124, 125, 126, 127, 128, 129, 130, 131, 132, 133, 134, 135, 136, 137, 138, 139, 140, 141, 142, 143, 144, 145, 146, 147, 148, 149, 150, 151, 152, 153, 154, 155, 156, 157, 158, 159, 160, 161, 162, 163, 164, 165, 166, 167, 168, 169, 170, 171, 172, 173, 174, 175, 176, 177, 178, 179, 180, 181, 182, 183, 184, 185, 186, 187, 188, 189, 190, 191, 192, 193, 194, 195, 196, 197, 198, 199, 200, 201, 202, 203, 204, 205, 206, 207, 208, 209, 210, 211, 212, 213, 214, 215, 216, 217, 218, 219, 220, 221, 222, 223, 224, 225, 226, 227, 228, 229, 230, 231, 232, 233, 234, 235, 236, 237, 238, 239, 240, 241, 242, 243, 244, 245, 246, 247, 248, 249, 250, 251, 252, 253, 254, 255, 256, 257, 258, 259, 260, 261, 262, 263, 264, 265, 266, 267, 268, 269, 270, 271, 272, 273, 274, 275, 276, 277, 278, 279, 280, 281, 282, 283, 284, 285, 286, 287, 288, 289, 290, 291, 292, 293, 294, 295, 296, 297, 298, 299, 300, 301, 302, 303, 304, 305, 306, 307, 308, 309, 310, 311, 312, 313, 314, 315, 316, 317, 318, 319, 320, 321, 322, 323, 324, 325, 326, 327, 328, 329, 330, 331, 332, 333, 334, 335, 336, 337, 338, 339, 340, 341, 342, 343, 344, 345, 346, 347, 348, 349, 350, 351, 352, 353, 354, 355, 356, 357, 358, 359, 360, 361, 362, 363, 364, 365, 366, 367, 368, 369, 370, 371, 372, 373, 374, 375, 376, 377, 378, 379, 380, 381, 382, 383, 384, 385, 386, 387, 388, 389, 390, 391, 392, 393, 394, 395, 396, 397, 398, 399, 400, 401, 402, 403, 404, 405, 406, 407, 408, 409, 410, 411, 412, 413, 414, 415, 416, 417, 418, 419, 420, 421, 422, 423, 424, 425, 426, 427, 428, 429, 430, 431, 432, 433, 434, 435, 436, 437, 438, 439, 440, 441, 442, 443, 444, 445, 446, 447, 448, 449, 450, 451, 452, 453, 454, 455, 456, 457, 458, 459, 460, 461, 462, 463, 464, 465, 466, 467, 468, 469, 470, 471, 472, 473, 474, 475, 476, 477, 478, 479, 480, 481, 482, 483, 484, 485, 486, 487, 488, 489, 490, 491, 492, 493, 494, 495, 496, 497, 498, 499, 500, 501, 502, 503, 504, 505, 506, 507, 508, 509, 510, 511, 512, 513, 514, 515, 516, 517, 518, 519, 520, 521, 522, 523, 524, 525, 526, 527, 528, 529, 530, 531, 532, 533, 534, 535, 536, 537, 538, 539, 540, 541, 542, 543, 544, 545, 546, 547, 548, 549, 550, 551, 552, 553, 554, 555, 556, 557, 558, 559, 560, 561, 562, 563, 564, 565, 566, 567, 568, 569, 570, 571, 572, 573, 574, 575, 576, 577, 578, 579, 580, 581, 582, 583, 584, 585, 586, 587, 588, 589, 590, 591, 592, 593, 594, 595, 596, 597, 598, 599, 600, 601, 602, 603, 604, 605, 606, 607, 608, 609, 610, 611, 612, 613, 614, 615, 616, 617, 618, 619, 620, 621, 622, 623, 624, 625, 626, 627, 628, 629, 630, 631, 632, 633, 634, 635, 636, 637, 638, 639, 640, 641, 642, 643, 644, 645, 646, 647, 648, 649, 650, 651, 652, 653, 654, 655, 656, 657, 658, 659, 660, 661, 662, 663, 664, 665, 666, 667, 668, 669, 670, 671, 672, 673, 674, 675, 676, 677, 678, 679, 680, 681, 682, 683, 684, 685, 686, 687, 688, 689, 690, 691, 692, 693, 694, 695, 696, 697, 698, 699, 700, 701, 702, 703, 704, 705, 706, 707, 708, 709, 710, 711, 712, 713, 714, 715, 716, 717, 718, 719, 720, 721, 722, 723, 724, 725, 726, 727, 728, 729, 730, 731, 732, 733, 734, 735, 736, 737, 738, 739, 740, 741, 742, 743, 744, 745, 746, 747, 748, 749, 750, 751, 752, 753, 754, 755, 756, 757, 758, 759, 760, 761, 762, 763, 764, 765, 766, 767, 768, 769, 770, 771, 772, 773, 774, 775, 776, 777, 778, 779, 780, 781, 782, 783, 784, 785, 786, 787, 788, 789, 790, 791, 792, 793, 794, 795, 796, 797, 798, 799, 800, 801, 802, 803, 804, 805, 806, 807, 808, 809, 810, 811, 812, 813, 814, 815, 816, 817, 818, 819, 820, 821, 822, 823, 824, 825, 826, 827, 828, 829, 830, 831, 832, 833, 834, 835, 836, 837, 838, 839, 840, 841, 842, 843, 844, 845, 846, 847, 848, 849, 850, 851, 852, 853, 854, 855, 856, 857, 858, 859, 860, 861, 862, 863, 864, 865, 866, 867, 868, 869, 870, 871, 872],
      "AcquisitionTime": ["160941.787500", "160942.247500", "160942.707500", "160943.167500", "160943.627500", "160944.087500", "160944.547500", "160945.007500", "160945.467500", "160945.927500", "160946.387500", "160946.847500", "160947.307500", "160947.767500", "160948.227500", "160948.687500", "160949.147500", "160949.607500", "160950.067500", "160950.527500", "160950.987500", "160951.447500", "160951.907500", "160952.367500", "160952.827500", "160953.287500", "160953.747500", "160954.207500", "160954.667500", "160955.127500", "160955.587500", "160956.047500", "160956.507500", "160956.967500", "160957.427500", "160957.887500", "160958.347500", "160958.807500", "160959.267500", "160959.727500", "161000.187500", "161000.647500", "161001.107500", "161001.567500", "161002.027500", "161002.487500", "161002.947500", "161003.407500", "161003.867500", "161004.327500", "161004.787500", "161005.247500", "161005.707500", "161006.167500", "161006.627500", "161007.087500", "161007.547500", "161008.007500", "161008.467500", "161008.927500", "161009.387500", "161009.847500", "161010.307500", "161010.767500", "161011.227500", "161011.687500", "161012.147500", "161012.607500", "161013.067500", "161013.527500", "161013.987500", "161014.447500", "161014.907500", "161015.367500", "161015.827500", "161016.287500", "161016.747500", "161017.207500", "161017.667500", "161018.127500", "161018.587500", "161019.047500", "161019.507500", "161019.967500", "161020.427500", "161020.887500", "161021.347500", "161021.807500", "161022.267500", "161022.727500", "161023.187500", "161023.647500", "161024.107500", "161024.567500", "161025.027500", "161025.487500", "161025.947500", "161026.407500", "161026.867500", "161027.327500", "161027.787500", "161028.247500", "161028.707500", "161029.167500", "161029.627500", "161030.087500", "161030.547500", "161031.007500", "161031.467500", "161031.927500", "161032.387500", "161032.847500", "161033.307500", "161033.767500", "161034.227500", "161034.687500", "161035.147500", "161035.607500", "161036.067500", "161036.527500", "161036.987500", "161037.447500", "161037.907500", "161038.367500", "161038.827500", "161039.287500", "161039.747500", "161040.207500", "161040.667500", "161041.127500", "161041.587500", "161042.047500", "161042.507500", "161042.967500", "161043.427500", "161043.887500", "161044.347500", "161044.807500", "161045.267500", "161045.727500", "161046.187500", "161046.647500", "161047.107500", "161047.567500", "161048.027500", "161048.487500", "161048.947500", "161049.407500", "161049.867500", "161050.327500", "161050.787500", "161051.247500", "161051.707500", "161052.167500", "161052.627500", "161053.087500", "161053.547500", "161054.007500", "161054.467500", "161054.927500", "161055.387500", "161055.847500", "161056.307500", "161056.767500", "161057.227500", "161057.687500", "161058.147500", "161058.607500", "161059.067500", "161059.527500", "161059.987500", "161100.447500", "161100.907500", "161101.367500", "161101.827500", "161102.287500", "161102.747500", "161103.207500", "161103.667500", "161104.127500", "161104.587500", "161105.047500", "161105.507500", "161105.967500", "161106.427500", "161106.887500", "161107.347500", "161107.807500", "161108.267500", "161108.727500", "161109.187500", "161109.647500", "161110.107500", "161110.567500", "161111.027500", "161111.487500", "161111.947500", "161112.407500", "161112.867500", "161113.327500", "161113.787500", "161114.247500", "161114.707500", "161115.167500", "161115.627500", "161116.087500", "161116.547500", "161117.007500", "161117.467500", "161117.927500", "161118.387500", "161118.847500", "161119.307500", "161119.767500", "161120.227500", "161120.687500", "161121.147500", "161121.607500", "161122.067500", "161122.527500", "161122.987500", "161123.447500", "161123.907500", "161124.367500", "161124.827500", "161125.287500", "161125.747500", "161126.207500", "161126.667500", "161127.127500", "161127.587500", "161128.047500", "161128.507500", "161128.967500", "161129.427500", "161129.887500", "161130.347500", "161130.807500", "161131.267500", "161131.727500", "161132.187500", "161132.647500", "161133.107500", "161133.567500", "161134.027500", "161134.487500", "161134.947500", "161135.407500", "161135.867500", "161136.327500", "161136.787500", "161137.247500", "161137.707500", "161138.167500", "161138.627500", "161139.087500", "161139.547500", "161140.007500", "161140.467500", "161140.927500", "161141.387500", "161141.847500", "161142.307500", "161142.767500", "161143.227500", "161143.687500", "161144.147500", "161144.607500", "161145.067500", "161145.527500", "161145.987500", "161146.447500", "161146.907500", "161147.367500", "161147.827500", "161148.287500", "161148.747500", "161149.207500", "161149.667500", "161150.127500", "161150.587500", "161151.047500", "161151.507500", "161151.967500", "161152.427500", "161152.887500", "161153.347500", "161153.807500", "161154.267500", "161154.727500", "161155.187500", "161155.647500", "161156.107500", "161156.567500", "161157.027500", "161157.487500", "161157.947500", "161158.407500", "161158.867500", "161159.327500", "161159.787500", "161200.247500", "161200.707500", "161201.167500", "161201.627500", "161202.087500", "161202.547500", "161203.007500", "161203.467500", "161203.927500", "161204.387500", "161204.847500", "161205.307500", "161205.767500", "161206.227500", "161206.687500", "161207.147500", "161207.607500", "161208.067500", "161208.527500", "161208.987500", "161209.447500", "161209.907500", "161210.367500", "161210.827500", "161211.287500", "161211.747500", "161212.207500", "161212.667500", "161213.127500", "161213.587500", "161214.047500", "161214.507500", "161214.967500", "161215.427500", "161215.887500", "161216.347500", "161216.807500", "161217.267500", "161217.727500", "161218.187500", "161218.647500", "161219.107500", "161219.567500", "161220.027500", "161220.487500", "161220.947500", "161221.407500", "161221.867500", "161222.327500", "161222.787500", "161223.247500", "161223.707500", "161224.167500", "161224.627500", "161225.087500", "161225.547500", "161226.007500", "161226.467500", "161226.927500", "161227.387500", "161227.847500", "161228.307500", "161228.767500", "161229.227500", "161229.687500", "161230.147500", "161230.607500", "161231.067500", "161231.527500", "161231.987500", "161232.447500", "161232.907500", "161233.367500", "161233.827500", "161234.287500", "161234.747500", "161235.207500", "161235.667500", "161236.127500", "161236.587500", "161237.047500", "161237.507500", "161237.967500", "161238.427500", "161238.887500", "161239.347500", "161239.807500", "161240.267500", "161240.727500", "161241.187500", "161241.647500", "161242.107500", "161242.567500", "161243.027500", "161243.487500", "161243.947500", "161244.407500", "161244.867500", "161245.327500", "161245.787500", "161246.247500", "161246.707500", "161247.167500", "161247.627500", "161248.087500", "161248.547500", "161249.007500", "161249.467500", "161249.927500", "161250.387500", "161250.847500", "161251.307500", "161251.767500", "161252.227500", "161252.687500", "161253.147500", "161253.607500", "161254.067500", "161254.527500", "161254.987500", "161255.447500", "161255.907500", "161256.367500", "161256.827500", "161257.287500", "161257.747500", "161258.207500", "161258.667500", "161259.127500", "161259.587500", "161300.047500", "161300.507500", "161300.967500", "161301.427500", "161301.887500", "161302.347500", "161302.807500", "161303.267500", "161303.727500", "161304.187500", "161304.647500", "161305.107500", "161305.567500", "161306.027500", "161306.487500", "161306.947500", "161307.407500", "161307.867500", "161308.327500", "161308.787500", "161309.247500", "161309.707500", "161310.167500", "161310.627500", "161311.087500", "161311.547500", "161312.007500", "161312.467500", "161312.927500", "161313.387500", "161313.847500", "161314.307500", "161314.767500", "161315.227500", "161315.687500", "161316.147500", "161316.607500", "161317.067500", "161317.527500", "161317.987500", "161318.447500", "161318.907500", "161319.367500", "161319.827500", "161320.287500", "161320.747500", "161321.207500", "161321.667500", "161322.127500", "161322.587500", "161323.047500", "161323.507500", "161323.967500", "161324.427500", "161324.887500", "161325.347500", "161325.807500", "161326.267500", "161326.727500", "161327.187500", "161327.647500", "161328.107500", "161328.567500", "161329.027500", "161329.487500", "161329.947500", "161330.407500", "161330.867500", "161331.327500", "161331.787500", "161332.247500", "161332.707500", "161333.167500", "161333.627500", "161334.087500", "161334.547500", "161335.007500", "161335.467500", "161335.927500", "161336.387500", "161336.847500", "161337.307500", "161337.767500", "161338.227500", "161338.687500", "161339.147500", "161339.607500", "161340.067500", "161340.527500", "161340.987500", "161341.447500", "161341.907500", "161342.367500", "161342.827500", "161343.287500", "161343.747500", "161344.207500", "161344.667500", "161345.127500", "161345.587500", "161346.047500", "161346.507500", "161346.967500", "161347.427500", "161347.887500", "161348.347500", "161348.807500", "161349.267500", "161349.727500", "161350.187500", "161350.647500", "161351.107500", "161351.567500", "161352.027500", "161352.487500", "161352.947500", "161353.407500", "161353.867500", "161354.327500", "161354.787500", "161355.247500", "161355.707500", "161356.167500", "161356.627500", "161357.087500", "161357.547500", "161358.007500", "161358.467500", "161358.927500", "161359.387500", "161359.847500", "161400.307500", "161400.767500", "161401.227500", "161401.687500", "161402.147500", "161402.607500", "161403.067500", "161403.527500", "161403.987500", "161404.447500", "161404.907500", "161405.367500", "161405.827500", "161406.287500", "161406.747500", "161407.207500", "161407.667500", "161408.127500", "161408.587500", "161409.047500", "161409.507500", "161409.967500", "161410.427500", "161410.887500", "161411.347500", "161411.807500", "161412.267500", "161412.727500", "161413.187500", "161413.647500", "161414.107500", "161414.567500", "161415.027500", "161415.487500", "161415.947500", "161416.407500", "161416.867500", "161417.327500", "161417.787500", "161418.247500", "161418.707500", "161419.167500", "161419.627500", "161420.087500", "161420.547500", "161421.007500", "161421.467500", "161421.927500", "161422.387500", "161422.847500", "161423.307500", "161423.767500", "161424.227500", "161424.687500", "161425.147500", "161425.607500", "161426.067500", "161426.527500", "161426.987500", "161427.447500", "161427.907500", "161428.367500", "161428.827500", "161429.287500", "161429.747500", "161430.207500", "161430.667500", "161431.127500", "161431.587500", "161432.047500", "161432.507500", "161432.967500", "161433.427500", "161433.887500", "161434.347500", "161434.807500", "161435.267500", "161435.727500", "161436.187500", "161436.647500", "161437.107500", "161437.567500", "161438.027500", "161438.487500", "161438.947500", "161439.407500", "161439.867500", "161440.327500", "161440.787500", "161441.247500", "161441.707500", "161442.167500", "161442.627500", "161443.087500", "161443.547500", "161444.007500", "161444.467500", "161444.927500", "161445.387500", "161445.847500", "161446.307500", "161446.767500", "161447.227500", "161447.687500", "161448.147500", "161448.607500", "161449.067500", "161449.527500", "161449.987500", "161450.447500", "161450.907500", "161451.367500", "161451.827500", "161452.287500", "161452.747500", "161453.207500", "161453.667500", "161454.127500", "161454.587500", "161455.047500", "161455.507500", "161455.967500", "161456.427500", "161456.887500", "161457.347500", "161457.807500", "161458.267500", "161458.727500", "161459.187500", "161459.647500", "161500.107500", "161500.567500", "161501.027500", "161501.487500", "161501.947500", "161502.407500", "161502.867500", "161503.327500", "161503.787500", "161504.247500", "161504.707500", "161505.167500", "161505.627500", "161506.087500", "161506.547500", "161507.007500", "161507.467500", "161507.927500", "161508.387500", "161508.847500", "161509.307500", "161509.767500", "161510.227500", "161510.687500", "161511.147500", "161511.607500", "161512.067500", "161512.527500", "161512.987500", "161513.447500", "161513.907500", "161514.367500", "161514.827500", "161515.287500", "161515.747500", "161516.207500", "161516.667500", "161517.127500", "161517.587500", "161518.047500", "161518.507500", "161518.967500", "161519.427500", "161519.887500", "161520.347500", "161520.807500", "161521.267500", "161521.727500", "161522.187500", "161522.647500", "161523.107500", "161523.567500", "161524.027500", "161524.487500", "161524.947500", "161525.407500", "161525.867500", "161526.327500", "161526.787500", "161527.247500", "161527.707500", "161528.167500", "161528.627500", "161529.087500", "161529.547500", "161530.007500", "161530.467500", "161530.927500", "161531.387500", "161531.847500", "161532.307500", "161532.767500", "161533.227500", "161533.687500", "161534.147500", "161534.607500", "161535.067500", "161535.527500", "161535.987500", "161536.447500", "161536.907500", "161537.367500", "161537.827500", "161538.287500", "161538.747500", "161539.207500", "161539.667500", "161540.127500", "161540.587500", "161541.047500", "161541.507500", "161541.967500", "161542.427500", "161542.887500", "161543.347500", "161543.807500", "161544.267500", "161544.727500", "161545.187500", "161545.647500", "161546.107500", "161546.567500", "161547.027500", "161547.487500", "161547.947500", "161548.407500", "161548.867500", "161549.327500", "161549.787500", "161550.247500", "161550.707500", "161551.167500", "161551.627500", "161552.087500", "161552.547500", "161553.007500", "161553.467500", "161553.927500", "161554.387500", "161554.847500", "161555.307500", "161555.767500", "161556.227500", "161556.687500", "161557.147500", "161557.607500", "161558.067500", "161558.527500", "161558.987500", "161559.447500", "161559.907500", "161600.367500", "161600.827500", "161601.287500", "161601.747500", "161602.207500", "161602.667500", "161603.127500", "161603.587500", "161604.047500", "161604.507500", "161604.967500", "161605.427500", "161605.887500", "161606.347500", "161606.807500", "161607.267500", "161607.727500", "161608.187500", "161608.647500", "161609.107500", "161609.567500", "161610.027500", "161610.487500", "161610.947500", "161611.407500", "161611.867500", "161612.327500", "161612.787500", "161613.247500", "161613.707500", "161614.167500", "161614.627500", "161615.087500", "161615.547500", "161616.007500", "161616.467500", "161616.927500", "161617.387500", "161617.847500", "161618.307500", "161618.767500", "161619.227500", "161619.687500", "161620.147500", "161620.607500", "161621.067500", "161621.527500", "161621.987500", "161622.447500"],
