{
  "AcquisitionMatrixPE": 140,
  "AcquisitionNumber": 1,
  "AcquisitionTime": "10:47:11.632500",
  "BandwidthPerPixelPhaseEncode": 10.352,
  "BaseResolution": 140,
  "BodyPartExamined": "BRAIN",
  "ConsistencyInfo": "N4_VE11E_LATEST_20181129",
  "ConversionSoftware": "dcm2niix",
  "ConversionSoftwareVersion": "v1.0.20201102",
  "DerivedVendorReportedEchoSpacing": 0.000689998,
  "DeviceSerialNumber": "66112",
  "DiffusionScheme": "Monopolar",
  "DwellTime": 2.1e-06,
  "EchoTime": 0.088,
  "EchoTrainLength": 105,
  "EffectiveEchoSpacing": 0.000689998,
  "FlipAngle": 90,
  "ImageComments": "Unaliased MB3/PE3",
  "ImageOrientationPatientDICOM": [0.999523, -0.0154605, -0.026733, 0.0242532, 0.928869, 0.369613],
  "ImageType": [
    "ORIGINAL",
    "PRIMARY",
    "DIFFUSION",
    "NONE",
    "MB",
    "ND"
],
  "ImagingFrequency": 123.259,
  "InPlanePhaseEncodingDirectionDICOM": "COL",
  "InstitutionAddress": "Maynard 3,Hanover,NH,US,03755",
  "InstitutionName": "Dartmouth College - PBS",
  "InstitutionalDepartmentName": "Department",
  "IntendedFor": [
    "ses-01/dwi/sub-0120_ses-01_acq-96dirX6b0Xmb_dwi.nii.gz"
],
  "MRAcquisitionType": "2D",
  "MagneticFieldStrength": 3,
  "Manufacturer": "Siemens",
  "ManufacturersModelName": "Prisma",
  "Modality": "MR",
  "MultibandAccelerationFactor": 3,
  "PartialFourier": 0.75,
  "PatientPosition": "HFS",
  "PercentPhaseFOV": 100,
  "PercentSampling": 100,
  "PhaseEncodingDirection": "j",
  "PhaseEncodingSteps": 105,
  "PhaseResolution": 1,
  "PixelBandwidth": 1700,
  "ProcedureStepDescription": "Wager_Wager^1076_spacetop",
  "ProtocolName": "dwi_acq-discorr-PA",
  "PulseSequenceDetails": "%CustomerSeq%\\cmrr_mbep2d_diff",
  "ReceiveCoilActiveElements": "HEA;HEP",
  "ReceiveCoilName": "Head_32",
  "ReconMatrixPE": 140,
  "RepetitionTime": 4.1,
  "SAR": 0.230068,
  "ScanOptions": "PFP\\FS",
  "ScanningSequence": "EP",
  "SequenceName": "ep_b0",
  "SequenceVariant": "SK\\SS",
  "SeriesDescription": "dwi_acq-discorr-PA",
  "SeriesNumber": 6,
  "ShimSetting": [4238, -7802, -7230, 258, -61, 3, 58, 79],
  "SliceThickness": 1.7,
  "SliceTiming": [0, 2.11719, 0.14844, 2.26562, 0.30469, 2.42188, 0.45312, 2.57031, 0.60156, 2.71875, 0.75781, 2.875, 0.90625, 3.02344, 1.0625, 3.17188, 1.21094, 3.32812, 1.35938, 3.47656, 1.51562, 3.625, 1.66406, 3.78125, 1.8125, 3.92969, 1.96094, 0, 2.11719, 0.14844, 2.26562, 0.30469, 2.42188, 0.45312, 2.57031, 0.60156, 2.71875, 0.75781, 2.875, 0.90625, 3.02344, 1.0625, 3.17188, 1.21094, 3.32812, 1.35938, 3.47656, 1.51562, 3.625, 1.66406, 3.78125, 1.8125, 3.92969, 1.96094, 0, 2.11719, 0.14844, 2.26562, 0.30469, 2.42188, 0.45312, 2.57031, 0.60156, 2.71875, 0.75781, 2.875, 0.90625, 3.02344, 1.0625, 3.17188, 1.21094, 3.32812, 1.35938, 3.47656, 1.51562, 3.625, 1.66406, 3.78125, 1.8125, 3.92969, 1.96094],
  "SoftwareVersions": "syngo MR E11",
  "SpacingBetweenSlices": 1.7,
  "StationName": "AWP66112",
  "TotalReadoutTime": 0.0959097,
  "TxRefAmp": 302.649,
  "WipMemBlock": "f4529208-1a50-4915-b903-96a061cbaa83||Sequence: R016 ve11e/master r/434b28f1; Aug  7 2019 19:06:17 by eja",
  "dcmmeta_affine": [
    [-1.713468074798584, 0.041576992720365524, -0.032498955726623535, 121.3689956665039],
    [0.02650376223027706, 1.5923473834991455, 0.6291427612304688, -113.33201599121094],
    [-0.04582803696393967, -0.6336219906806946, 1.5789642333984375, 0.7132638096809387],
    [0.0, 0.0, 0.0, 1.0]
],
  "dcmmeta_reorient_transform": [
    [0.0, -1.0, 0.0, 139.0],
    [1.0, 0.0, 0.0, 0.0],
    [0.0, 0.0, -1.0, 80.0],
    [0.0, 0.0, 0.0, 1.0]
],
  "dcmmeta_shape": [140, 140, 81],
  "dcmmeta_slice_dim": 2,
  "dcmmeta_version": 0.6,
  "global": {
    "const": {
      "AccessionNumber": "A004540",
      "AcquisitionMatrix": [140, 0, 0, 140],
      "AcquisitionNumber": 1,
      "AngioFlag": "N",
      "BitsAllocated": 16,
      "BitsStored": 16,
      "BodyPartExamined": "BRAIN",
      "Columns": 140,
      "EchoNumbers": 1,
      "EchoTime": 88.0,
      "EchoTrainLength": 105,
      "FlipAngle": 90.0,
      "HighBit": 15,
      "ImageOrientationPatient": [0.99952304509319, -0.0154605283438, -0.0267330206106, 0.0242532445874, 0.92886928446082, 0.36961281432363],
      "ImageType": [
        "ORIGINAL",
        "PRIMARY",
        "DIFFUSION",
        "NONE",
        "MB",
        "ND"
],
      "ImagedNucleus": "1H",
      "ImagingFrequency": 123.258996,
      "InPlanePhaseEncodingDirection": "COL",
      "MRAcquisitionType": "2D",
      "MagneticFieldStrength": 3.0,
      "Manufacturer": "SIEMENS",
      "ManufacturerModelName": "Prisma",
      "Modality": "MR",
      "NumberOfAverages": 1.0,
      "NumberOfPhaseEncodingSteps": 105,
      "PercentPhaseFieldOfView": 100.0,
      "PercentSampling": 100.0,
      "PerformedProcedureStepStartTime": "103655.341000",
      "PhotometricInterpretation": "MONOCHROME2",
      "PixelBandwidth": 1700.0,
      "PixelRepresentation": 0,
      "PixelSpacing": [1.7142857313156, 1.7142857313156],
      "ProtocolName": "dwi_acq-discorr-PA",
      "RepetitionTime": 4100.0,
      "Rows": 140,
      "SAR": 0.23006838982773,
      "SamplesPerPixel": 1,
      "ScanOptions": [
        "PFP",
        "FS"
],
      "ScanningSequence": "EP",
      "SequenceName": "ep_b0",
      "SequenceVariant": [
        "SK",
        "SS"
],
      "SeriesDescription": "dwi_acq-discorr-PA",
      "SeriesNumber": 6,
      "SeriesTime": "104716.809000",
      "SliceThickness": 1.7000000476837,
      "SmallestImagePixelValue": 0,
      "SoftwareVersions": "syngo MR E11",
      "SpacingBetweenSlices": 1.7,
      "SpecificCharacterSet": "ISO_IR 100",
      "StudyID": "1",
      "StudyTime": "103655.278000",
      "TransmitCoilName": "Body",
      "VariableFlipAngleFlag": "N",
      "WindowCenterWidthExplanation": "Algo1"
    },
    "slices": {
      "AcquisitionTime": ["104711.632500", "104713.750000", "104711.785000", "104713.900000", "104711.935000", "104714.052500", "104712.087500", "104714.202500", "104712.237500", "104714.352500", "104712.390000", "104714.505000", "104712.540000", "104714.655000", "104712.692500", "104714.807500", "104712.842500", "104714.957500", "104712.992500", "104715.110000", "104713.145000", "104715.260000", "104713.295000", "104715.412500", "104713.447500", "104715.562500", "104713.597500", "104711.632500", "104713.750000", "104711.785000", "104713.900000", "104711.935000", "104714.052500", "104712.087500", "104714.202500", "104712.237500", "104714.352500", "104712.390000", "104714.505000", "104712.540000", "104714.655000", "104712.692500", "104714.807500", "104712.842500", "104714.957500", "104712.992500", "104715.110000", "104713.145000", "104715.260000", "104713.295000", "104715.412500", "104713.447500", "104715.562500", "104713.597500", "104711.632500", "104713.750000", "104711.785000", "104713.900000", "104711.935000", "104714.052500", "104712.087500", "104714.202500", "104712.237500", "104714.352500", "104712.390000", "104714.505000", "104712.540000", "104714.655000", "104712.692500", "104714.807500", "104712.842500", "104714.957500", "104712.992500", "104715.110000", "104713.145000", "104715.260000", "104713.295000", "104715.412500", "104713.447500", "104715.562500", "104713.597500"],
      "ContentTime": ["104716.812000", "104716.908000", "104716.829000", "104716.914000", "104716.835000", "104716.920000", "104716.841000", "104716.926000", "104716.847000", "104716.940000", "104716.853000", "104716.947000", "104716.859000", "104716.953000", "104716.865000", "104716.960000", "104716.871000", "104716.966000", "104716.877000", "104716.972000", "104716.884000", "104716.978000", "104716.890000", "104716.985000", "104716.896000", "104716.991000", "104716.902000", "104716.815000", "104716.910000", "104716.831000", "104716.916000", "104716.837000", "104716.922000", "104716.843000", "104716.936000", "104716.849000", "104716.942000", "104716.855000", "104716.949000", "104716.861000", "104716.956000", "104716.867000", "104716.962000", "104716.873000", "104716.968000", "104716.880000", "104716.974000", "104716.886000", "104716.981000", "104716.892000", "104716.987000", "104716.898000", "104716.993000", "104716.904000", "104716.817000", "104716.912000", "104716.833000", "104716.918000", "104716.839000", "104716.924000", "104716.845000", "104716.938000", "104716.851000", "104716.945000", "104716.857000", "104716.951000", "104716.863000", "104716.958000", "104716.869000", "104716.964000", "104716.875000", "104716.970000", "104716.882000", "104716.976000", "104716.888000", "104716.983000", "104716.894000", "104716.989000", "104716.900000", "104716.995000", "104716.906000"],
      "CsaImage.GSWDDataType": [
        "predicted",
        "predicted",
        "predicted",
        "predicted",
        "predicted",
        "predicted",
        "predicted",
        "predicted",
        "predicted",
        "predicted",
        "predicted",
        "predicted",
        "predicted",
        "predicted",
        "predicted",
        "predicted",
        "predicted",
        "predicted",
        "predicted",
        "predicted",
        "predicted",
        "predicted",
        "predicted",
        "measured",
        "predicted",
        "measured",
        "predicted",
        "predicted",
        "predicted",
        "predicted",
        "predicted",
        "predicted",
        "predicted",
        "predicted",
        "predicted",
        "predicted",
        "predicted",
        "predicted",
        "predicted",
        "predicted",
        "predicted",
        "predicted",
        "predicted",
        "predicted",
        "predicted",
        "predicted",
        "predicted",
        "predicted",
        "predicted",
        "predicted",
        "measured",
        "predicted",
        "measured",
        "predicted",
        "predicted",
        "predicted",
        "predicted",
        "predicted",
        "predicted",
        "predicted",
        "predicted",
        "predicted",
        "predicted",
        "predicted",
        "predicted",
        "predicted",
        "predicted",
        "predicted",
        "predicted",
        "predicted",
        "predicted",
        "predicted",
        "predicted",
        "predicted",
        "predicted",
        "predicted",
        "predicted",
        "measured",
        "predicted",
        "measured",
        "predicted"
],
      "CsaImage.ICE_Dims": [
        "X_1_1_1_1_1_1_1_1_1_1_1_31",
        "X_1_1_1_1_1_1_42_1_1_2_1_31",
        "X_1_1_1_1_1_1_2_1_1_3_1_31",
        "X_1_1_1_1_1_1_43_1_1_4_1_31",
        "X_1_1_1_1_1_1_3_1_1_5_1_31",
        "X_1_1_1_1_1_1_44_1_1_6_1_31",
        "X_1_1_1_1_1_1_4_1_1_7_1_31",
        "X_1_1_1_1_1_1_45_1_1_8_1_31",
        "X_1_1_1_1_1_1_5_1_1_9_1_31",
        "X_1_1_1_1_1_1_46_1_1_10_1_31",
        "X_1_1_1_1_1_1_6_1_1_11_1_31",
        "X_1_1_1_1_1_1_47_1_1_12_1_31",
        "X_1_1_1_1_1_1_7_1_1_13_1_31",
        "X_1_1_1_1_1_1_48_1_1_14_1_31",
        "X_1_1_1_1_1_1_8_1_1_15_1_31",
        "X_1_1_1_1_1_1_49_1_1_16_1_31",
        "X_1_1_1_1_1_1_9_1_1_17_1_31",
        "X_1_1_1_1_1_1_50_1_1_18_1_31",
        "X_1_1_1_1_1_1_10_1_1_19_1_31",
        "X_1_1_1_1_1_1_51_1_1_20_1_31",
        "X_1_1_1_1_1_1_11_1_1_21_1_31",
        "X_1_1_1_1_1_1_52_1_1_22_1_31",
        "X_1_1_1_1_1_1_12_1_1_23_1_31",
        "X_1_1_1_1_1_1_53_1_1_24_1_31",
        "X_1_1_1_1_1_1_13_1_1_25_1_31",
        "X_1_1_1_1_1_1_54_1_1_26_1_31",
        "X_1_1_1_1_1_1_14_1_1_27_1_31",
        "X_1_1_1_1_1_1_55_1_1_28_1_31",
        "X_1_1_1_1_1_1_15_1_1_29_1_31",
        "X_1_1_1_1_1_1_56_1_1_30_1_31",
        "X_1_1_1_1_1_1_16_1_1_31_1_31",
        "X_1_1_1_1_1_1_57_1_1_32_1_31",
        "X_1_1_1_1_1_1_17_1_1_33_1_31",
        "X_1_1_1_1_1_1_58_1_1_34_1_31",
        "X_1_1_1_1_1_1_18_1_1_35_1_31",
        "X_1_1_1_1_1_1_59_1_1_36_1_31",
        "X_1_1_1_1_1_1_19_1_1_37_1_31",
        "X_1_1_1_1_1_1_60_1_1_38_1_31",
        "X_1_1_1_1_1_1_20_1_1_39_1_31",
        "X_1_1_1_1_1_1_61_1_1_40_1_31",
        "X_1_1_1_1_1_1_21_1_1_41_1_31",
        "X_1_1_1_1_1_1_62_1_1_42_1_31",
        "X_1_1_1_1_1_1_22_1_1_43_1_31",
        "X_1_1_1_1_1_1_63_1_1_44_1_31",
        "X_1_1_1_1_1_1_23_1_1_45_1_31",
        "X_1_1_1_1_1_1_64_1_1_46_1_31",
        "X_1_1_1_1_1_1_24_1_1_47_1_31",
        "X_1_1_1_1_1_1_65_1_1_48_1_31",
        "X_1_1_1_1_1_1_25_1_1_49_1_31",
        "X_1_1_1_1_1_1_66_1_1_50_1_31",
        "X_1_1_1_1_1_1_26_1_1_51_1_31",
        "X_1_1_1_1_1_1_67_1_1_52_1_31",
        "X_1_1_1_1_1_1_27_1_1_53_1_31",
        "X_1_1_1_1_1_1_68_1_1_54_1_31",
        "X_1_1_1_1_1_1_28_1_1_55_1_31",
        "X_1_1_1_1_1_1_69_1_1_56_1_31",
        "X_1_1_1_1_1_1_29_1_1_57_1_31",
        "X_1_1_1_1_1_1_70_1_1_58_1_31",
        "X_1_1_1_1_1_1_30_1_1_59_1_31",
        "X_1_1_1_1_1_1_71_1_1_60_1_31",
        "X_1_1_1_1_1_1_31_1_1_61_1_31",
        "X_1_1_1_1_1_1_72_1_1_62_1_31",
        "X_1_1_1_1_1_1_32_1_1_63_1_31",
        "X_1_1_1_1_1_1_73_1_1_64_1_31",
        "X_1_1_1_1_1_1_33_1_1_65_1_31",
        "X_1_1_1_1_1_1_74_1_1_66_1_31",
        "X_1_1_1_1_1_1_34_1_1_67_1_31",
        "X_1_1_1_1_1_1_75_1_1_68_1_31",
        "X_1_1_1_1_1_1_35_1_1_69_1_31",
        "X_1_1_1_1_1_1_76_1_1_70_1_31",
        "X_1_1_1_1_1_1_36_1_1_71_1_31",
        "X_1_1_1_1_1_1_77_1_1_72_1_31",
        "X_1_1_1_1_1_1_37_1_1_73_1_31",
        "X_1_1_1_1_1_1_78_1_1_74_1_31",
        "X_1_1_1_1_1_1_38_1_1_75_1_31",
        "X_1_1_1_1_1_1_79_1_1_76_1_31",
        "X_1_1_1_1_1_1_39_1_1_77_1_31",
        "X_1_1_1_1_1_1_80_1_1_78_1_31",
        "X_1_1_1_1_1_1_40_1_1_79_1_31",
        "X_1_1_1_1_1_1_81_1_1_80_1_31",
        "X_1_1_1_1_1_1_41_1_1_81_1_31"
],
      "CsaImage.ProtocolSliceNumber": [0, 1, 2, 3, 4, 5, 6, 7, 8, 9, 10, 11, 12, 13, 14, 15, 16, 17, 18, 19, 20, 21, 22, 23, 24, 25, 26, 27, 28, 29, 30, 31, 32, 33, 34, 35, 36, 37, 38, 39, 40, 41, 42, 43, 44, 45, 46, 47, 48, 49, 50, 51, 52, 53, 54, 55, 56, 57, 58, 59, 60, 61, 62, 63, 64, 65, 66, 67, 68, 69, 70, 71, 72, 73, 74, 75, 76, 77, 78, 79, 80],
      "CsaImage.RFSWDDataType": [
        "predicted",
        "predicted",
        "predicted",
        "predicted",
        "predicted",
        "predicted",
        "predicted",
        "predicted",
        "predicted",
        "predicted",
        "predicted",
        "predicted",
        "predicted",
        "predicted",
        "predicted",
        "predicted",
        "predicted",
        "predicted",
        "predicted",
        "predicted",
        "predicted",
        "predicted",
        "predicted",
        "measured",
        "predicted",
        "measured",
        "predicted",
        "predicted",
        "predicted",
        "predicted",
        "predicted",
        "predicted",
        "predicted",
        "predicted",
        "predicted",
        "predicted",
        "predicted",
        "predicted",
        "predicted",
        "predicted",
        "predicted",
        "predicted",
        "predicted",
        "predicted",
        "predicted",
        "predicted",
        "predicted",
        "predicted",
        "predicted",
        "predicted",
        "measured",
        "predicted",
        "measured",
        "predicted",
        "predicted",
        "predicted",
        "predicted",
        "predicted",
        "predicted",
        "predicted",
        "predicted",
        "predicted",
        "predicted",
        "predicted",
        "predicted",
        "predicted",
        "predicted",
        "predicted",
        "predicted",
        "predicted",
        "predicted",
        "predicted",
        "predicted",
        "predicted",
        "predicted",
        "predicted",
        "predicted",
        "measured",
        "predicted",
        "measured",
        "predicted"
],
      "CsaImage.SlicePosition_PCS": [
        [-127.14820279, -108.0041455, -87.36002268],
        [-127.11570348, -108.63328981, -85.78105844],
        [-127.08320464, -109.26243412, -84.20209802],
        [-127.0507058, -109.89157846, -82.62313379],
        [-127.01820649, -110.52072281, -81.04417337],
        [-126.98570765, -111.14986718, -79.46520914],
        [-126.95320834, -111.77901137, -77.88624872],
        [-126.9207095, -112.4081558, -76.3072883],
        [-126.88821067, -113.03730023, -74.72832407],
        [-126.85571135, -113.66644442, -73.14936365],
        [-126.82321252, -114.29558861, -71.57040132],
        [-126.79071344, -114.92473328, -69.991439],
        [-126.75821437, -115.55387747, -68.41247667],
        [-126.72571529, -116.18302166, -66.83351434],
        [-126.69321622, -116.81216633, -65.25455202],
        [-126.66071738, -117.44131052, -63.67558969],
        [-126.6282183, -118.07045472, -62.09662737],
        [-126.59571923, -118.69959938, -60.51766504],
        [-126.56322015, -119.3287431, -58.93870462],
        [-126.53072108, -119.95788777, -57.3597423],
        [-126.498222, -120.58703244, -55.78077997],
        [-126.46572317, -121.21617615, -54.20181764],
        [-126.43322409, -121.84532082, -52.62285532],
        [-126.40072502, -122.47446549, -51.04389395],
        [-126.36822594, -123.1036092, -49.46493162],
        [-126.33572687, -123.73275387, -47.88596929],
        [-126.30322803, -124.36189854, -46.30700744],
        [-126.27072896, -124.99104226, -44.72804536],
        [-126.23822988, -125.62018692, -43.14908327],
        [-126.20573081, -126.24933159, -41.57012112],
        [-126.17323173, -126.87847626, -39.99115909],
        [-126.14073266, -127.50761902, -38.41219701],
        [-126.10823382, -128.13676369, -36.83323492],
        [-126.07573475, -128.76590836, -35.25427307],
        [-126.04323567, -129.39505303, -33.67531074],
        [-126.0107366, -130.0241977, -32.09634889],
        [-125.97823752, -130.65334237, -30.51738657],
        [-125.94573868, -131.28248513, -28.93842424],
        [-125.91323961, -131.9116298, -27.35946287],
        [-125.88074053, -132.54077446, -25.78050054],
        [-125.84824146, -133.16991913, -24.20153917],
        [-125.81574239, -133.7990638, -22.62257684],
        [-125.78324331, -134.42820847, -21.04361452],
        [-125.75074447, -135.05735123, -19.46465219],
        [-125.7182454, -135.6864959, -17.88568987],
        [-125.68574632, -136.31564057, -16.30672754],
        [-125.65324725, -136.94478524, -14.72776521],
        [-125.62074817, -137.57392991, -13.1488048],
        [-125.58824934, -138.20307267, -11.56984247],
        [-125.55575026, -138.83221733, -9.99088014],
        [-125.52325119, -139.461362, -8.41191782],
        [-125.49075211, -140.09050667, -6.8329574],
        [-125.45825304, -140.71965134, -5.25399317],
        [-125.42575396, -141.34879601, -3.67503275],
        [-125.39325513, -141.97794068, -2.09606851],
        [-125.36075605, -142.60708344, -0.51710809],
        [-125.32825698, -143.23623002, 1.06185614],
        [-125.2957579, -143.86537278, 2.64081656],
        [-125.26325883, -144.49451554, 4.21978079],
        [-125.23075999, -145.12366211, 5.79874121],
        [-125.19826091, -145.75280487, 7.37770163],
        [-125.16576184, -146.38195145, 8.95666586],
        [-125.13326277, -147.01109421, 10.53562628],
        [-125.10076369, -147.64023697, 12.11459051],
        [-125.06826462, -148.26938355, 13.69355093],
        [-125.03576578, -148.89852631, 15.27251517],
        [-125.0032667, -149.52767289, 16.85147558],
        [-124.97076763, -150.15681565, 18.430436],
        [-124.93826855, -150.78595841, 20.00940024],
        [-124.90576948, -151.41510498, 21.58836066],
        [-124.8732704, -152.04424775, 23.16732107],
        [-124.84077145, -152.67339432, 24.74628531],
        [-124.80827249, -153.30253708, 26.32524954],
        [-124.77577342, -153.93168366, 27.90420615],
        [-124.74327434, -154.56082642, 29.48317038],
        [-124.71077539, -155.18996918, 31.06213461],
        [-124.67827631, -155.81911576, 32.64109885],
        [-124.64577736, -156.44825852, 34.22005545],
        [-124.61327828, -157.07740509, 35.79901968],
        [-124.58077921, -157.70654786, 37.37798392],
        [-124.54828025, -158.33569062, 38.95694815]
],
      "CsaImage.TimeAfterStart": [16.4, 18.515, 16.5525, 18.6675, 16.7025, 18.8175, 16.855, 18.97, 17.005, 19.12, 17.155, 19.2725, 17.3075, 19.4225, 17.4575, 19.575, 17.61, 19.725, 17.76, 19.875, 17.9125, 20.0275, 18.0625, 20.1775, 18.215, 20.33, 18.365, 16.4, 18.515, 16.5525, 18.6675, 16.7025, 18.8175, 16.855, 18.97, 17.005, 19.12, 17.155, 19.2725, 17.3075, 19.4225, 17.4575, 19.575, 17.61, 19.725, 17.76, 19.875, 17.9125, 20.0275, 18.0625, 20.1775, 18.215, 20.33, 18.365, 16.4, 18.515, 16.5525, 18.6675, 16.7025, 18.8175, 16.855, 18.97, 17.005, 19.12, 17.155, 19.2725, 17.3075, 19.4225, 17.4575, 19.575, 17.61, 19.725, 17.76, 19.875, 17.9125, 20.0275, 18.0625, 20.1775, 18.215, 20.33, 18.365],
      "ImagePositionPatient": [
        [-127.14820278844, -108.00414550233, -87.360022675788],
        [-127.11570347509, -108.63328981329, -85.78105844239],
        [-127.08320463857, -109.26243412424, -84.202098023689],
        [-127.05070580205, -109.89157846499, -82.62313379029],
        [-127.0182064887, -110.52072280574, -81.044173371589],
        [-126.98570765218, -111.1498671763, -79.465209138191],
        [-126.95320833883, -111.77901136804, -77.88624871949],
        [-126.92070950231, -112.4081557982, -76.307288300788],
        [-126.88821066579, -113.03730022836, -74.72832406739],
        [-126.85571135244, -113.66644442011, -73.149363648689],
        [-126.82321251592, -114.29558861185, -71.570401322639],
        [-126.79071344098, -114.92473328043, -69.991438996589],
        [-126.75821436605, -115.55387747217, -68.412476670539],
        [-126.72571529111, -116.18302166391, -66.83351434449],
        [-126.69321621618, -116.81216633249, -65.25455201844],
        [-126.66071737966, -117.44131052423, -63.67558969239],
        [-126.62821830472, -118.07045471597, -62.09662736634],
        [-126.59571922979, -118.69959938455, -60.51766504029],
        [-126.56322015485, -119.32874309946, -58.938704621589],
        [-126.53072107992, -119.95788776804, -57.359742295539],
        [-126.49822200498, -120.58703243662, -55.78077996949],
        [-126.46572316846, -121.21617615152, -54.20181764344],
        [-126.43322409353, -121.8453208201, -52.62285531739],
        [-126.40072501859, -122.47446548868, -51.043893945015],
        [-126.36822594366, -123.10360920358, -49.464931618965],
        [-126.33572686872, -123.73275387216, -47.885969292915],
        [-126.3032280322, -124.36189854074, -46.307007443702],
        [-126.27072895727, -124.99104225565, -44.728045356071],
        [-126.23822988233, -125.62018692423, -43.14908326844],
        [-126.20573080739, -126.2493315928, -41.570121121204],
        [-126.17323173246, -126.87847626138, -39.991159093177],
        [-126.14073265752, -127.50761902261, -38.412197005546],
        [-126.108233821, -128.13676369119, -36.833234917915],
        [-126.07573474607, -128.76590835977, -35.254273068702],
        [-126.04323567113, -129.39505302835, -33.675310742652],
        [-126.0107365962, -130.02419769693, -32.09634889344],
        [-125.97823752126, -130.65334236551, -30.51738656739],
        [-125.94573868474, -131.28248512674, -28.93842424134],
        [-125.91323960981, -131.91162979532, -27.359462868965],
        [-125.88074053487, -132.5407744639, -25.780500542915],
        [-125.84824145994, -133.16991913248, -24.201539170539],
        [-125.815742385, -133.79906380106, -22.62257684449],
        [-125.78324331006, -134.42820846964, -21.04361451844],
        [-125.75074447355, -135.05735123087, -19.46465219239],
        [-125.71824539861, -135.68649589944, -17.88568986634],
        [-125.68574632368, -136.31564056802, -16.30672754029],
        [-125.65324724874, -136.9447852366, -14.727765214241],
        [-125.6207481738, -137.57392990518, -13.148804795539],
        [-125.58824933729, -138.20307266641, -11.56984246949],
        [-125.55575026235, -138.83221733499, -9.9908801434398],
        [-125.52325118741, -139.46136200357, -8.41191781739],
        [-125.49075211248, -140.09050667215, -6.8329573986889],
        [-125.45825303754, -140.71965134073, -5.2539931652904],
        [-125.42575396261, -141.34879600931, -3.6750327465892],
        [-125.39325512609, -141.97794067789, -2.0960685131908],
        [-125.36075605115, -142.60708343912, -0.5171080944896],
        [-125.32825697622, -143.23623001505, 1.0618561389088],
        [-125.29575790128, -143.86537277628, 2.64081655761],
        [-125.26325882635, -144.49451553751, 4.2197807910084],
        [-125.23075998983, -145.12366211343, 5.7987412097096],
        [-125.19826091489, -145.75280487466, 7.3777016284108],
        [-125.16576183996, -146.38195145059, 8.9566658618092],
        [-125.13326276502, -147.01109421182, 10.53562628051],
        [-125.10076369008, -147.64023697305, 12.114590513909],
        [-125.06826461515, -148.26938354898, 13.69355093261],
        [-125.03576577863, -148.89852631021, 15.272515166008],
        [-125.0032667037, -149.52767288614, 16.85147558471],
        [-124.97076762876, -150.15681564737, 18.430436003411],
        [-124.93826855382, -150.7859584086, 20.009400236809],
        [-124.90576947889, -151.41510498453, 21.58836065551],
        [-124.87327040395, -152.04424774576, 23.167321074212],
        [-124.84077144823, -152.67339432169, 24.74628530761],
        [-124.8082724925, -153.30253708292, 26.325249541008],
        [-124.77577341756, -153.93168365884, 27.904206145012],
        [-124.74327434263, -154.56082642007, 29.483170378411],
        [-124.7107753869, -155.18996918131, 31.062134611809],
        [-124.67827631196, -155.81911575723, 32.641098845208],
        [-124.64577735624, -156.44825851846, 34.220055449212],
        [-124.6132782813, -157.07740509439, 35.79901968261],
        [-124.58077920637, -157.70654785562, 37.377983916008],
        [-124.54828025064, -158.33569061685, 38.956948149407]
],
      "InstanceCreationTime": ["104716.812000", "104716.908000", "104716.829000", "104716.914000", "104716.835000", "104716.920000", "104716.841000", "104716.926000", "104716.847000", "104716.940000", "104716.853000", "104716.947000", "104716.859000", "104716.953000", "104716.865000", "104716.960000", "104716.871000", "104716.966000", "104716.877000", "104716.972000", "104716.884000", "104716.978000", "104716.890000", "104716.985000", "104716.896000", "104716.991000", "104716.902000", "104716.815000", "104716.910000", "104716.831000", "104716.916000", "104716.837000", "104716.922000", "104716.843000", "104716.936000", "104716.849000", "104716.942000", "104716.855000", "104716.949000", "104716.861000", "104716.956000", "104716.867000", "104716.962000", "104716.873000", "104716.968000", "104716.880000", "104716.974000", "104716.886000", "104716.981000", "104716.892000", "104716.987000", "104716.898000", "104716.993000", "104716.904000", "104716.817000", "104716.912000", "104716.833000", "104716.918000", "104716.839000", "104716.924000", "104716.845000", "104716.938000", "104716.851000", "104716.945000", "104716.857000", "104716.951000", "104716.863000", "104716.958000", "104716.869000", "104716.964000", "104716.875000", "104716.970000", "104716.882000", "104716.976000", "104716.888000", "104716.983000", "104716.894000", "104716.989000", "104716.900000", "104716.995000", "104716.906000"],
      "InstanceNumber": [1, 2, 3, 4, 5, 6, 7, 8, 9, 10, 11, 12, 13, 14, 15, 16, 17, 18, 19, 20, 21, 22, 23, 24, 25, 26, 27, 28, 29, 30, 31, 32, 33, 34, 35, 36, 37, 38, 39, 40, 41, 42, 43, 44, 45, 46, 47, 48, 49, 50, 51, 52, 53, 54, 55, 56, 57, 58, 59, 60, 61, 62, 63, 64, 65, 66, 67, 68, 69, 70, 71, 72, 73, 74, 75, 76, 77, 78, 79, 80, 81],
      "LargestImagePixelValue": [44714, 43515, 41590, 46491, 48541, 42146, 28057, 36262, 34792, 37568, 40758, 43672, 53810, 48250, 33272, 41802, 46403, 45578, 28291, 28642, 36378, 35071, 44558, 43649, 51410, 65535, 65535, 62323, 48571, 50481, 50193, 61016, 62491, 65535, 65535, 65535, 65535, 65535, 65535, 65535, 65535, 65535, 41852, 43191, 37158, 37155, 37507, 38216, 46147, 42818, 45057, 49668, 53159, 45890, 42417, 37381, 39084, 45523, 41609, 46703, 56935, 60334, 53530, 44991, 47533, 46354, 46870, 41574, 36967, 46496, 51347, 51097, 44792, 53568, 55924, 58607, 65535, 54884, 33332, 12817, 13483],
      "SliceLocation": [-43.600095241574, -41.900093235774, -40.200094782186, -38.500092774473, -36.80009430074, -35.100092281998, -33.400093863412, -31.700095365706, -30.000093324905, -28.300094906319, -26.6000947253, -24.900094363254, -23.200094177678, -21.500093992102, -19.800093630055, -18.100093449037, -16.400093263461, -14.700092901415, -13.000094663856, -11.30009430181, -9.6000939397638, -7.9000939352157, -6.2000935731694, -4.5000940968969, -2.800094087791, -1.1000937257446, 0.59990618885694, 2.2999059765194, 3.9999061171223, 5.699906313086, 7.399906398328, 9.09990583305, 10.799905969095, 12.499905888254, 14.199906250301, 15.89990616946, 17.599906531507, 19.299906183114, 20.999905659387, 22.699906021433, 24.399905497706, 26.099905859752, 27.799906221798, 29.499905873406, 31.199906235452, 32.899906597499, 34.599906959545, 36.299905550044, 37.999905201651, 39.699905563697, 41.399905925744, 43.099904516242, 44.799906649837, 46.499905240335, 48.199907369371, 49.899905253989, 51.599908093464, 53.299905978082, 54.999907405795, 56.699906697617, 58.399904582234, 60.099907421709, 61.799905306327, 63.49990673404, 65.19990603042, 66.899907453575, 68.599906749955, 70.299904634572, 71.999906062286, 73.699905358665, 75.399903243283, 77.099906080479, 78.799907505913, 80.499903259197, 82.19990468691, 83.899906112345, 85.59990895182, 87.299903291063, 88.999906130538, 90.699907558251, 92.399908983685],
