{
  "AcquisitionMatrixPE": 82,
  "AcquisitionNumber": 1,
  "AcquisitionTime": "13:54:18.210000",
  "BandwidthPerPixelPhaseEncode": 24.888,
  "BaseResolution": 82,
  "BodyPartExamined": "BRAIN",
  "ConsistencyInfo": "N4_VE11C_LATEST_20160120",
  "ConversionSoftware": "dcm2niix",
  "ConversionSoftwareVersion": "v1.0.20201102",
  "DerivedVendorReportedEchoSpacing": 0.00049,
  "DeviceSerialNumber": "66112",
  "DwellTime": 2e-06,
  "EchoTime": 0.0272,
  "EchoTrainLength": 82,
  "EffectiveEchoSpacing": 0.00049,
  "FlipAngle": 44,
  "ImageComments": "Unaliased MB8/PE3",
  "ImageOrientationPatientDICOM": [0.999328, 0.0168172, 0.0325801, -0.0193626, 0.99665, 0.079455],
  "ImageType": [
    "ORIGINAL",
    "PRIMARY",
    "M",
    "MB",
    "ND",
    "NORM",
    "MOSAIC"
],
  "ImagingFrequency": 123.252,
  "InPlanePhaseEncodingDirectionDICOM": "COL",
  "InstitutionAddress": "Maynard 3,Hanover,NH,US,03755",
  "InstitutionName": "Dartmouth College - PBS",
  "InstitutionalDepartmentName": "Department",
  "MRAcquisitionType": "2D",
  "MagneticFieldStrength": 3,
  "Manufacturer": "Siemens",
  "ManufacturersModelName": "Prisma",
  "Modality": "MR",
  "MultibandAccelerationFactor": 8,
  "PartialFourier": 1,
  "PatientPosition": "HFS",
  "PercentPhaseFOV": 100,
  "PercentSampling": 100,
  "PhaseEncodingDirection": "j-",
  "PhaseEncodingSteps": 82,
  "PhaseResolution": 1,
  "PixelBandwidth": 3050,
  "ProcedureStepDescription": "Wager_Wager^1076_spacetop",
  "ProtocolName": "func_run-03_task-alignvideo_acq-ap-mb8",
  "PulseSequenceDetails": "%CustomerSeq%\\cmrr_mbep2d_bold",
  "ReceiveCoilActiveElements": "HEA;HEP",
  "ReceiveCoilName": "Head_32",
  "ReconMatrixPE": 82,
  "RepetitionTime": 0.46,
  "SAR": 0.0948913,
  "ScanOptions": "FS",
  "ScanningSequence": "EP",
  "SequenceName": "epfid2d1_82",
  "SequenceVariant": "SK\\SS",
  "SeriesDescription": "func_run-03_task-alignvideo_acq-ap-mb8",
  "SeriesNumber": 32,
  "ShimSetting": [4164, -7727, -7246, 604, -31, -94, 111, 52],
  "SliceThickness": 2.7,
  "SliceTiming": [0, 0.25, 0.0625, 0.315, 0.125, 0.3775, 0.1875, 0, 0.25, 0.0625, 0.315, 0.125, 0.3775, 0.1875, 0, 0.25, 0.0625, 0.315, 0.125, 0.3775, 0.1875, 0, 0.25, 0.0625, 0.315, 0.125, 0.3775, 0.1875, 0, 0.25, 0.0625, 0.315, 0.125, 0.3775, 0.1875, 0, 0.25, 0.0625, 0.315, 0.125, 0.3775, 0.1875, 0, 0.25, 0.0625, 0.315, 0.125, 0.3775, 0.1875, 0, 0.25, 0.0625, 0.315, 0.125, 0.3775, 0.1875],
  "SoftwareVersions": "syngo MR E11",
  "SpacingBetweenSlices": 2.7,
  "StationName": "AWP66112",
  "TaskName": "alignvideo",
  "TotalReadoutTime": 0.03969,
  "TxRefAmp": 242.109,
  "WipMemBlock": "ef7cc9b0-6f91-4ee3-a9ce-e5da6e722550||Sequence: R016 ve11c/master r/e634e98; Dec 19 2017 11:00:25 by eja",
  "dcmmeta_affine": [
    [-2.6811230182647705, -0.05194838345050812, 0.08406386524438858, 115.45146942138672],
    [-0.04511942341923714, 2.6739401817321777, 0.21608750522136688, -88.6832504272461],
    [0.08741004765033722, -0.21317194402217865, 2.690025806427002, -35.92355728149414],
    [0.0, 0.0, 0.0, 1.0]
],
  "dcmmeta_reorient_transform": [
    [0.0, -1.0, 0.0, 81.0],
    [1.0, 0.0, 0.0, 0.0],
    [0.0, 0.0, 1.0, 0.0],
    [0.0, 0.0, 0.0, 1.0]
],
  "dcmmeta_shape": [82, 82, 56, 1065],
  "dcmmeta_slice_dim": 2,
  "dcmmeta_version": 0.6,
  "global": {
    "const": {
      "AccessionNumber": "A003477",
      "AcquisitionMatrix": [82, 0, 0, 82],
      "AngioFlag": "N",
      "BitsAllocated": 16,
      "BitsStored": 16,
      "BodyPartExamined": "BRAIN",
      "Columns": 656,
      "EchoNumbers": 1,
      "EchoTime": 27.2,
      "EchoTrainLength": 82,
      "FlipAngle": 44.0,
      "HighBit": 15,
      "ImageOrientationPatient": [0.99932763246036, 0.01681723864269, 0.03258010874147, -0.0193625786066, 0.99665038706592, 0.07945499676577],
      "ImagePositionPatient": [-865.81675840548, -908.27598943703, -139.45751812176],
      "ImageType": [
        "ORIGINAL",
        "PRIMARY",
        "M",
        "MB",
        "ND",
        "NORM",
        "MOSAIC"
],
      "ImagedNucleus": "1H",
      "ImagingFrequency": 123.252129,
      "InPlanePhaseEncodingDirection": "COL",
      "MRAcquisitionType": "2D",
      "MagneticFieldStrength": 3.0,
      "Manufacturer": "SIEMENS",
      "ManufacturerModelName": "Prisma",
      "Modality": "MR",
      "NumberOfAverages": 1.0,
      "NumberOfPhaseEncodingSteps": 82,
      "PercentPhaseFieldOfView": 100.0,
      "PercentSampling": 100.0,
      "PerformedProcedureStepStartTime": "115233.178000",
      "PhotometricInterpretation": "MONOCHROME2",
      "PixelBandwidth": 3050.0,
      "PixelRepresentation": 0,
      "PixelSpacing": [2.6829268932343, 2.6829268932343],
      "ProtocolName": "func_run-03_task-alignvideo_acq-ap-mb8",
      "RepetitionTime": 460.0,
      "Rows": 656,
      "SAR": 0.09489126899088,
      "SamplesPerPixel": 1,
      "ScanOptions": "FS",
      "ScanningSequence": "EP",
      "SequenceName": "epfid2d1_82",
      "SequenceVariant": [
        "SK",
        "SS"
],
      "SeriesDescription": "func_run-03_task-alignvideo_acq-ap-mb8",
      "SeriesNumber": 32,
      "SeriesTime": "135445.412000",
      "SliceLocation": -39.293831699848,
      "SliceThickness": 2.7000000476837,
      "SmallestImagePixelValue": 0,
      "SoftwareVersions": "syngo MR E11",
      "SpacingBetweenSlices": 2.6999999646579,
      "SpecificCharacterSet": "ISO_IR 100",
      "StudyID": "1",
      "StudyTime": "115233.050000",
      "TransmitCoilName": "Body",
      "VariableFlipAngleFlag": "N",
      "WindowCenterWidthExplanation": "Algo1",
      "dBdt": 0.0},
    "slices": {}
  },
  "time": {
    "samples": {
      "AcquisitionNumber": [1, 2, 3, 4, 5, 6, 7, 8, 9, 10, 11, 12, 13, 14, 15, 16, 17, 18, 19, 20, 21, 22, 23, 24, 25, 26, 27, 28, 29, 30, 31, 32, 33, 34, 35, 36, 37, 38, 39, 40, 41, 42, 43, 44, 45, 46, 47, 48, 49, 50, 51, 52, 53, 54, 55, 56, 57, 58, 59, 60, 61, 62, 63, 64, 65, 66, 67, 68, 69, 70, 71, 72, 73, 74, 75, 76, 77, 78, 79, 80, 81, 82, 83, 84, 85, 86, 87, 88, 89, 90, 91, 92, 93, 94, 95, 96, 97, 98, 99, 100, 101, 102, 103, 104, 105, 106, 107, 108, 109, 110, 111, 112, 113, 114, 115, 116, 117, 118, 119, 120, 121, 122, 123, 124, 125, 126, 127, 128, 129, 130, 131, 132, 133, 134, 135, 136, 137, 138, 139, 140, 141, 142, 143, 144, 145, 146, 147, 148, 149, 150, 151, 152, 153, 154, 155, 156, 157, 158, 159, 160, 161, 162, 163, 164, 165, 166, 167, 168, 169, 170, 171, 172, 173, 174, 175, 176, 177, 178, 179, 180, 181, 182, 183, 184, 185, 186, 187, 188, 189, 190, 191, 192, 193, 194, 195, 196, 197, 198, 199, 200, 201, 202, 203, 204, 205, 206, 207, 208, 209, 210, 211, 212, 213, 214, 215, 216, 217, 218, 219, 220, 221, 222, 223, 224, 225, 226, 227, 228, 229, 230, 231, 232, 233, 234, 235, 236, 237, 238, 239, 240, 241, 242, 243, 244, 245, 246, 247, 248, 249, 250, 251, 252, 253, 254, 255, 256, 257, 258, 259, 260, 261, 262, 263, 264, 265, 266, 267, 268, 269, 270, 271, 272, 273, 274, 275, 276, 277, 278, 279, 280, 281, 282, 283, 284, 285, 286, 287, 288, 289, 290, 291, 292, 293, 294, 295, 296, 297, 298, 299, 300, 301, 302, 303, 304, 305, 306, 307, 308, 309, 310, 311, 312, 313, 314, 315, 316, 317, 318, 319, 320, 321, 322, 323, 324, 325, 326, 327, 328, 329, 330, 331, 332, 333, 334, 335, 336, 337, 338, 339, 340, 341, 342, 343, 344, 345, 346, 347, 348, 349, 350, 351, 352, 353, 354, 355, 356, 357, 358, 359, 360, 361, 362, 363, 364, 365, 366, 367, 368, 369, 370, 371, 372, 373, 374, 375, 376, 377, 378, 379, 380, 381, 382, 383, 384, 385, 386, 387, 388, 389, 390, 391, 392, 393, 394, 395, 396, 397, 398, 399, 400, 401, 402, 403, 404, 405, 406, 407, 408, 409, 410, 411, 412, 413, 414, 415, 416, 417, 418, 419, 420, 421, 422, 423, 424, 425, 426, 427, 428, 429, 430, 431, 432, 433, 434, 435, 436, 437, 438, 439, 440, 441, 442, 443, 444, 445, 446, 447, 448, 449, 450, 451, 452, 453, 454, 455, 456, 457, 458, 459, 460, 461, 462, 463, 464, 465, 466, 467, 468, 469, 470, 471, 472, 473, 474, 475, 476, 477, 478, 479, 480, 481, 482, 483, 484, 485, 486, 487, 488, 489, 490, 491, 492, 493, 494, 495, 496, 497, 498, 499, 500, 501, 502, 503, 504, 505, 506, 507, 508, 509, 510, 511, 512, 513, 514, 515, 516, 517, 518, 519, 520, 521, 522, 523, 524, 525, 526, 527, 528, 529, 530, 531, 532, 533, 534, 535, 536, 537, 538, 539, 540, 541, 542, 543, 544, 545, 546, 547, 548, 549, 550, 551, 552, 553, 554, 555, 556, 557, 558, 559, 560, 561, 562, 563, 564, 565, 566, 567, 568, 569, 570, 571, 572, 573, 574, 575, 576, 577, 578, 579, 580, 581, 582, 583, 584, 585, 586, 587, 588, 589, 590, 591, 592, 593, 594, 595, 596, 597, 598, 599, 600, 601, 602, 603, 604, 605, 606, 607, 608, 609, 610, 611, 612, 613, 614, 615, 616, 617, 618, 619, 620, 621, 622, 623, 624, 625, 626, 627, 628, 629, 630, 631, 632, 633, 634, 635, 636, 637, 638, 639, 640, 641, 642, 643, 644, 645, 646, 647, 648, 649, 650, 651, 652, 653, 654, 655, 656, 657, 658, 659, 660, 661, 662, 663, 664, 665, 666, 667, 668, 669, 670, 671, 672, 673, 674, 675, 676, 677, 678, 679, 680, 681, 682, 683, 684, 685, 686, 687, 688, 689, 690, 691, 692, 693, 694, 695, 696, 697, 698, 699, 700, 701, 702, 703, 704, 705, 706, 707, 708, 709, 710, 711, 712, 713, 714, 715, 716, 717, 718, 719, 720, 721, 722, 723, 724, 725, 726, 727, 728, 729, 730, 731, 732, 733, 734, 735, 736, 737, 738, 739, 740, 741, 742, 743, 744, 745, 746, 747, 748, 749, 750, 751, 752, 753, 754, 755, 756, 757, 758, 759, 760, 761, 762, 763, 764, 765, 766, 767, 768, 769, 770, 771, 772, 773, 774, 775, 776, 777, 778, 779, 780, 781, 782, 783, 784, 785, 786, 787, 788, 789, 790, 791, 792, 793, 794, 795, 796, 797, 798, 799, 800, 801, 802, 803, 804, 805, 806, 807, 808, 809, 810, 811, 812, 813, 814, 815, 816, 817, 818, 819, 820, 821, 822, 823, 824, 825, 826, 827, 828, 829, 830, 831, 832, 833, 834, 835, 836, 837, 838, 839, 840, 841, 842, 843, 844, 845, 846, 847, 848, 849, 850, 851, 852, 853, 854, 855, 856, 857, 858, 859, 860, 861, 862, 863, 864, 865, 866, 867, 868, 869, 870, 871, 872, 873, 874, 875, 876, 877, 878, 879, 880, 881, 882, 883, 884, 885, 886, 887, 888, 889, 890, 891, 892, 893, 894, 895, 896, 897, 898, 899, 900, 901, 902, 903, 904, 905, 906, 907, 908, 909, 910, 911, 912, 913, 914, 915, 916, 917, 918, 919, 920, 921, 922, 923, 924, 925, 926, 927, 928, 929, 930, 931, 932, 933, 934, 935, 936, 937, 938, 939, 940, 941, 942, 943, 944, 945, 946, 947, 948, 949, 950, 951, 952, 953, 954, 955, 956, 957, 958, 959, 960, 961, 962, 963, 964, 965, 966, 967, 968, 969, 970, 971, 972, 973, 974, 975, 976, 977, 978, 979, 980, 981, 982, 983, 984, 985, 986, 987, 988, 989, 990, 991, 992, 993, 994, 995, 996, 997, 998, 999, 1000, 1001, 1002, 1003, 1004, 1005, 1006, 1007, 1008, 1009, 1010, 1011, 1012, 1013, 1014, 1015, 1016, 1017, 1018, 1019, 1020, 1021, 1022, 1023, 1024, 1025, 1026, 1027, 1028, 1029, 1030, 1031, 1032, 1033, 1034, 1035, 1036, 1037, 1038, 1039, 1040, 1041, 1042, 1043, 1044, 1045, 1046, 1047, 1048, 1049, 1050, 1051, 1052, 1053, 1054, 1055, 1056, 1057, 1058, 1059, 1060, 1061, 1062, 1063, 1064, 1065],
      "AcquisitionTime": ["135418.210000", "135418.670000", "135419.130000", "135419.590000", "135420.050000", "135420.510000", "135420.970000", "135421.430000", "135421.890000", "135422.350000", "135422.810000", "135423.270000", "135423.730000", "135424.190000", "135424.650000", "135425.110000", "135425.570000", "135426.030000", "135426.490000", "135426.950000", "135427.410000", "135427.870000", "135428.330000", "135428.790000", "135429.250000", "135429.710000", "135430.170000", "135430.630000", "135431.090000", "135431.550000", "135432.010000", "135432.470000", "135432.930000", "135433.390000", "135433.850000", "135434.310000", "135434.770000", "135435.230000", "135435.690000", "135436.150000", "135436.610000", "135437.070000", "135437.530000", "135437.990000", "135438.450000", "135438.910000", "135439.370000", "135439.830000", "135440.290000", "135440.750000", "135441.210000", "135441.670000", "135442.130000", "135442.590000", "135443.050000", "135443.510000", "135443.970000", "135444.430000", "135444.890000", "135445.350000", "135445.810000", "135446.270000", "135446.730000", "135447.190000", "135447.650000", "135448.110000", "135448.570000", "135449.030000", "135449.490000", "135449.950000", "135450.410000", "135450.870000", "135451.330000", "135451.790000", "135452.250000", "135452.710000", "135453.170000", "135453.630000", "135454.090000", "135454.550000", "135455.010000", "135455.470000", "135455.930000", "135456.390000", "135456.850000", "135457.310000", "135457.770000", "135458.230000", "135458.690000", "135459.150000", "135459.610000", "135500.070000", "135500.530000", "135500.990000", "135501.450000", "135501.910000", "135502.370000", "135502.830000", "135503.290000", "135503.750000", "135504.210000", "135504.670000", "135505.130000", "135505.590000", "135506.050000", "135506.510000", "135506.970000", "135507.430000", "135507.890000", "135508.350000", "135508.810000", "135509.270000", "135509.730000", "135510.190000", "135510.650000", "135511.110000", "135511.570000", "135512.030000", "135512.490000", "135512.950000", "135513.410000", "135513.870000", "135514.330000", "135514.790000", "135515.250000", "135515.710000", "135516.170000", "135516.630000", "135517.090000", "135517.550000", "135518.010000", "135518.470000", "135518.930000", "135519.390000", "135519.850000", "135520.310000", "135520.770000", "135521.230000", "135521.690000", "135522.150000", "135522.610000", "135523.070000", "135523.530000", "135523.990000", "135524.450000", "135524.910000", "135525.370000", "135525.830000", "135526.290000", "135526.750000", "135527.210000", "135527.670000", "135528.130000", "135528.590000", "135529.050000", "135529.510000", "135529.970000", "135530.430000", "135530.890000", "135531.350000", "135531.810000", "135532.270000", "135532.730000", "135533.190000", "135533.650000", "135534.110000", "135534.570000", "135535.030000", "135535.490000", "135535.950000", "135536.410000", "135536.870000", "135537.330000", "135537.790000", "135538.250000", "135538.710000", "135539.170000", "135539.630000", "135540.090000", "135540.550000", "135541.010000", "135541.470000", "135541.930000", "135542.390000", "135542.850000", "135543.310000", "135543.770000", "135544.230000", "135544.690000", "135545.150000", "135545.610000", "135546.070000", "135546.530000", "135546.990000", "135547.450000", "135547.910000", "135548.370000", "135548.830000", "135549.290000", "135549.750000", "135550.210000", "135550.670000", "135551.130000", "135551.590000", "135552.050000", "135552.510000", "135552.970000", "135553.430000", "135553.890000", "135554.350000", "135554.810000", "135555.270000", "135555.730000", "135556.190000", "135556.650000", "135557.110000", "135557.570000", "135558.030000", "135558.490000", "135558.950000", "135559.410000", "135559.870000", "135600.330000", "135600.790000", "135601.250000", "135601.710000", "135602.170000", "135602.630000", "135603.090000", "135603.550000", "135604.010000", "135604.470000", "135604.930000", "135605.390000", "135605.850000", "135606.310000", "135606.770000", "135607.230000", "135607.690000", "135608.150000", "135608.610000", "135609.070000", "135609.530000", "135609.990000", "135610.450000", "135610.910000", "135611.370000", "135611.830000", "135612.290000", "135612.750000", "135613.210000", "135613.670000", "135614.130000", "135614.590000", "135615.050000", "135615.510000", "135615.970000", "135616.430000", "135616.890000", "135617.350000", "135617.810000", "135618.270000", "135618.730000", "135619.190000", "135619.650000", "135620.110000", "135620.570000", "135621.030000", "135621.490000", "135621.950000", "135622.410000", "135622.870000", "135623.330000", "135623.790000", "135624.250000", "135624.710000", "135625.170000", "135625.630000", "135626.090000", "135626.550000", "135627.010000", "135627.470000", "135627.930000", "135628.390000", "135628.850000", "135629.310000", "135629.770000", "135630.230000", "135630.690000", "135631.150000", "135631.610000", "135632.070000", "135632.530000", "135632.990000", "135633.450000", "135633.910000", "135634.370000", "135634.830000", "135635.290000", "135635.750000", "135636.210000", "135636.670000", "135637.130000", "135637.590000", "135638.050000", "135638.510000", "135638.970000", "135639.430000", "135639.890000", "135640.350000", "135640.810000", "135641.270000", "135641.730000", "135642.190000", "135642.650000", "135643.110000", "135643.570000", "135644.030000", "135644.490000", "135644.950000", "135645.410000", "135645.870000", "135646.330000", "135646.790000", "135647.250000", "135647.710000", "135648.170000", "135648.630000", "135649.090000", "135649.550000", "135650.010000", "135650.470000", "135650.930000", "135651.390000", "135651.850000", "135652.310000", "135652.770000", "135653.230000", "135653.690000", "135654.150000", "135654.610000", "135655.070000", "135655.530000", "135655.990000", "135656.450000", "135656.910000", "135657.370000", "135657.830000", "135658.290000", "135658.750000", "135659.210000", "135659.670000", "135700.130000", "135700.590000", "135701.050000", "135701.510000", "135701.970000", "135702.430000", "135702.890000", "135703.350000", "135703.810000", "135704.270000", "135704.730000", "135705.190000", "135705.650000", "135706.110000", "135706.570000", "135707.030000", "135707.490000", "135707.950000", "135708.410000", "135708.870000", "135709.330000", "135709.790000", "135710.250000", "135710.710000", "135711.170000", "135711.630000", "135712.090000", "135712.550000", "135713.010000", "135713.470000", "135713.930000", "135714.390000", "135714.850000", "135715.310000", "135715.770000", "135716.230000", "135716.690000", "135717.150000", "135717.610000", "135718.070000", "135718.530000", "135718.990000", "135719.450000", "135719.910000", "135720.370000", "135720.830000", "135721.290000", "135721.750000", "135722.210000", "135722.670000", "135723.130000", "135723.590000", "135724.050000", "135724.510000", "135724.970000", "135725.430000", "135725.890000", "135726.350000", "135726.810000", "135727.270000", "135727.730000", "135728.190000", "135728.650000", "135729.110000", "135729.570000", "135730.030000", "135730.490000", "135730.950000", "135731.410000", "135731.870000", "135732.330000", "135732.790000", "135733.250000", "135733.710000", "135734.170000", "135734.630000", "135735.090000", "135735.550000", "135736.010000", "135736.470000", "135736.930000", "135737.390000", "135737.850000", "135738.310000", "135738.770000", "135739.230000", "135739.690000", "135740.150000", "135740.610000", "135741.070000", "135741.530000", "135741.990000", "135742.450000", "135742.910000", "135743.370000", "135743.830000", "135744.290000", "135744.750000", "135745.210000", "135745.670000", "135746.130000", "135746.590000", "135747.050000", "135747.510000", "135747.970000", "135748.430000", "135748.890000", "135749.350000", "135749.810000", "135750.270000", "135750.730000", "135751.190000", "135751.650000", "135752.110000", "135752.570000", "135753.030000", "135753.490000", "135753.950000", "135754.410000", "135754.870000", "135755.330000", "135755.790000", "135756.250000", "135756.710000", "135757.170000", "135757.630000", "135758.090000", "135758.550000", "135759.010000", "135759.470000", "135759.930000", "135800.390000", "135800.850000", "135801.310000", "135801.770000", "135802.230000", "135802.690000", "135803.150000", "135803.610000", "135804.070000", "135804.530000", "135804.990000", "135805.450000", "135805.910000", "135806.370000", "135806.830000", "135807.290000", "135807.750000", "135808.210000", "135808.670000", "135809.130000", "135809.590000", "135810.050000", "135810.510000", "135810.970000", "135811.430000", "135811.890000", "135812.350000", "135812.810000", "135813.270000", "135813.730000", "135814.190000", "135814.650000", "135815.110000", "135815.570000", "135816.030000", "135816.490000", "135816.950000", "135817.410000", "135817.870000", "135818.330000", "135818.790000", "135819.250000", "135819.710000", "135820.170000", "135820.630000", "135821.090000", "135821.550000", "135822.010000", "135822.470000", "135822.930000", "135823.390000", "135823.850000", "135824.310000", "135824.770000", "135825.230000", "135825.690000", "135826.150000", "135826.610000", "135827.070000", "135827.530000", "135827.990000", "135828.450000", "135828.910000", "135829.370000", "135829.830000", "135830.290000", "135830.750000", "135831.210000", "135831.670000", "135832.130000", "135832.590000", "135833.050000", "135833.510000", "135833.970000", "135834.430000", "135834.890000", "135835.350000", "135835.810000", "135836.270000", "135836.730000", "135837.190000", "135837.650000", "135838.110000", "135838.570000", "135839.030000", "135839.490000", "135839.950000", "135840.410000", "135840.870000", "135841.330000", "135841.790000", "135842.250000", "135842.710000", "135843.170000", "135843.630000", "135844.090000", "135844.550000", "135845.010000", "135845.470000", "135845.930000", "135846.390000", "135846.850000", "135847.310000", "135847.770000", "135848.230000", "135848.690000", "135849.150000", "135849.610000", "135850.070000", "135850.530000", "135850.990000", "135851.450000", "135851.910000", "135852.370000", "135852.830000", "135853.290000", "135853.750000", "135854.210000", "135854.670000", "135855.130000", "135855.590000", "135856.050000", "135856.510000", "135856.970000", "135857.430000", "135857.890000", "135858.350000", "135858.810000", "135859.270000", "135859.730000", "135900.190000", "135900.650000", "135901.110000", "135901.570000", "135902.030000", "135902.490000", "135902.950000", "135903.410000", "135903.870000", "135904.330000", "135904.790000", "135905.250000", "135905.710000", "135906.170000", "135906.630000", "135907.090000", "135907.550000", "135908.010000", "135908.470000", "135908.930000", "135909.390000", "135909.850000", "135910.310000", "135910.770000", "135911.230000", "135911.690000", "135912.150000", "135912.610000", "135913.070000", "135913.530000", "135913.990000", "135914.450000", "135914.910000", "135915.370000", "135915.830000", "135916.290000", "135916.750000", "135917.210000", "135917.670000", "135918.130000", "135918.590000", "135919.050000", "135919.510000", "135919.970000", "135920.430000", "135920.890000", "135921.350000", "135921.810000", "135922.270000", "135922.730000", "135923.190000", "135923.650000", "135924.110000", "135924.570000", "135925.030000", "135925.490000", "135925.950000", "135926.410000", "135926.870000", "135927.330000", "135927.790000", "135928.250000", "135928.710000", "135929.170000", "135929.630000", "135930.090000", "135930.550000", "135931.010000", "135931.470000", "135931.930000", "135932.390000", "135932.850000", "135933.310000", "135933.770000", "135934.230000", "135934.690000", "135935.150000", "135935.610000", "135936.070000", "135936.530000", "135936.990000", "135937.450000", "135937.910000", "135938.370000", "135938.830000", "135939.290000", "135939.750000", "135940.210000", "135940.670000", "135941.130000", "135941.590000", "135942.050000", "135942.510000", "135942.970000", "135943.430000", "135943.890000", "135944.350000", "135944.810000", "135945.270000", "135945.730000", "135946.190000", "135946.650000", "135947.110000", "135947.570000", "135948.030000", "135948.490000", "135948.950000", "135949.410000", "135949.870000", "135950.330000", "135950.790000", "135951.250000", "135951.710000", "135952.170000", "135952.630000", "135953.090000", "135953.550000", "135954.010000", "135954.470000", "135954.930000", "135955.390000", "135955.850000", "135956.310000", "135956.770000", "135957.230000", "135957.690000", "135958.150000", "135958.610000", "135959.070000", "135959.530000", "135959.990000", "140000.450000", "140000.910000", "140001.370000", "140001.830000", "140002.290000", "140002.750000", "140003.210000", "140003.670000", "140004.130000", "140004.590000", "140005.050000", "140005.510000", "140005.970000", "140006.430000", "140006.890000", "140007.350000", "140007.810000", "140008.270000", "140008.730000", "140009.190000", "140009.650000", "140010.110000", "140010.570000", "140011.030000", "140011.490000", "140011.950000", "140012.410000", "140012.870000", "140013.330000", "140013.790000", "140014.250000", "140014.710000", "140015.170000", "140015.630000", "140016.090000", "140016.550000", "140017.010000", "140017.470000", "140017.930000", "140018.390000", "140018.850000", "140019.310000", "140019.770000", "140020.230000", "140020.690000", "140021.150000", "140021.610000", "140022.070000", "140022.530000", "140022.990000", "140023.450000", "140023.910000", "140024.370000", "140024.830000", "140025.290000", "140025.750000", "140026.210000", "140026.670000", "140027.130000", "140027.590000", "140028.050000", "140028.510000", "140028.970000", "140029.430000", "140029.890000", "140030.350000", "140030.810000", "140031.270000", "140031.730000", "140032.190000", "140032.650000", "140033.110000", "140033.570000", "140034.030000", "140034.490000", "140034.950000", "140035.410000", "140035.870000", "140036.330000", "140036.790000", "140037.250000", "140037.710000", "140038.170000", "140038.630000", "140039.090000", "140039.550000", "140040.010000", "140040.470000", "140040.930000", "140041.390000", "140041.850000", "140042.310000", "140042.770000", "140043.230000", "140043.690000", "140044.150000", "140044.610000", "140045.070000", "140045.530000", "140045.990000", "140046.450000", "140046.910000", "140047.370000", "140047.830000", "140048.290000", "140048.750000", "140049.210000", "140049.670000", "140050.130000", "140050.590000", "140051.050000", "140051.510000", "140051.970000", "140052.430000", "140052.890000", "140053.350000", "140053.810000", "140054.270000", "140054.730000", "140055.190000", "140055.650000", "140056.110000", "140056.570000", "140057.030000", "140057.490000", "140057.950000", "140058.410000", "140058.870000", "140059.330000", "140059.790000", "140100.250000", "140100.710000", "140101.170000", "140101.630000", "140102.090000", "140102.550000", "140103.010000", "140103.470000", "140103.930000", "140104.390000", "140104.850000", "140105.310000", "140105.770000", "140106.230000", "140106.690000", "140107.150000", "140107.610000", "140108.070000", "140108.530000", "140108.990000", "140109.450000", "140109.910000", "140110.370000", "140110.830000", "140111.290000", "140111.750000", "140112.210000", "140112.670000", "140113.130000", "140113.590000", "140114.050000", "140114.510000", "140114.970000", "140115.430000", "140115.890000", "140116.350000", "140116.810000", "140117.270000", "140117.730000", "140118.190000", "140118.650000", "140119.110000", "140119.570000", "140120.030000", "140120.490000", "140120.950000", "140121.410000", "140121.870000", "140122.330000", "140122.790000", "140123.250000", "140123.710000", "140124.170000", "140124.630000", "140125.090000", "140125.550000", "140126.010000", "140126.470000", "140126.930000", "140127.390000", "140127.850000", "140128.310000", "140128.770000", "140129.230000", "140129.690000", "140130.150000", "140130.610000", "140131.070000", "140131.530000", "140131.990000", "140132.450000", "140132.910000", "140133.370000", "140133.830000", "140134.290000", "140134.750000", "140135.210000", "140135.670000", "140136.130000", "140136.590000", "140137.050000", "140137.510000", "140137.970000", "140138.430000", "140138.890000", "140139.350000", "140139.810000", "140140.270000", "140140.730000", "140141.190000", "140141.650000", "140142.110000", "140142.570000", "140143.030000", "140143.490000", "140143.950000", "140144.410000", "140144.870000", "140145.330000", "140145.790000", "140146.250000", "140146.710000", "140147.170000", "140147.630000", "140148.090000", "140148.550000", "140149.010000", "140149.470000", "140149.930000", "140150.390000", "140150.850000", "140151.310000", "140151.770000", "140152.230000", "140152.690000", "140153.150000", "140153.610000", "140154.070000", "140154.530000", "140154.990000", "140155.450000", "140155.910000", "140156.370000", "140156.830000", "140157.290000", "140157.750000", "140158.210000", "140158.670000", "140159.130000", "140159.590000", "140200.050000", "140200.510000", "140200.970000", "140201.430000", "140201.890000", "140202.350000", "140202.810000", "140203.270000", "140203.730000", "140204.190000", "140204.650000", "140205.110000", "140205.570000", "140206.030000", "140206.490000", "140206.950000", "140207.410000", "140207.870000", "140208.330000", "140208.790000", "140209.250000", "140209.710000", "140210.170000", "140210.630000", "140211.090000", "140211.550000", "140212.010000", "140212.470000", "140212.930000", "140213.390000", "140213.850000", "140214.310000", "140214.770000", "140215.230000", "140215.690000", "140216.150000", "140216.610000", "140217.070000", "140217.530000", "140217.990000", "140218.450000", "140218.910000", "140219.370000", "140219.830000", "140220.290000", "140220.750000", "140221.210000", "140221.670000", "140222.130000", "140222.590000", "140223.050000", "140223.510000", "140223.970000", "140224.430000", "140224.890000", "140225.350000", "140225.810000", "140226.270000", "140226.730000", "140227.190000", "140227.650000"],
