{
  "AcquisitionMatrixPE": 82,
  "AcquisitionNumber": 1,
  "AcquisitionTime": "13:02:6.882500",
  "BandwidthPerPixelPhaseEncode": 24.888,
  "BaseResolution": 82,
  "BodyPartExamined": "BRAIN",
  "ConsistencyInfo": "N4_VE11C_LATEST_20160120",
  "ConversionSoftware": "dcm2niix",
  "ConversionSoftwareVersion": "v1.0.20201102",
  "DerivedVendorReportedEchoSpacing": 0.00049,
  "DeviceSerialNumber": "66112",
  "DwellTime": 2e-06,
  "EchoTime": 0.0272,
  "EchoTrainLength": 82,
  "EffectiveEchoSpacing": 0.00049,
  "FlipAngle": 44,
  "ImageComments": "Unaliased MB8/PE3",
  "ImageOrientationPatientDICOM": [0.999661, 0.0220967, 0.0138045, -0.0225109, 0.999278, 0.0306117],
  "ImageType": [
    "ORIGINAL",
    "PRIMARY",
    "M",
    "MB",
    "ND",
    "NORM",
    "MOSAIC"
],
  "ImagingFrequency": 123.252,
  "InPlanePhaseEncodingDirectionDICOM": "COL",
  "InstitutionAddress": "Maynard 3,Hanover,NH,US,03755",
  "InstitutionName": "Dartmouth College - PBS",
  "InstitutionalDepartmentName": "Department",
  "MRAcquisitionType": "2D",
  "MagneticFieldStrength": 3,
  "Manufacturer": "Siemens",
  "ManufacturersModelName": "Prisma",
  "Modality": "MR",
  "MultibandAccelerationFactor": 8,
  "PartialFourier": 1,
  "PatientPosition": "HFS",
  "PercentPhaseFOV": 100,
  "PercentSampling": 100,
  "PhaseEncodingDirection": "j-",
  "PhaseEncodingSteps": 82,
  "PhaseResolution": 1,
  "PixelBandwidth": 3050,
  "ProcedureStepDescription": "Wager_Wager^1076_spacetop",
  "ProtocolName": "func_run-05_task-social_acq-ap-mb8",
  "PulseSequenceDetails": "%CustomerSeq%\\cmrr_mbep2d_bold",
  "ReceiveCoilActiveElements": "HEA;HEP",
  "ReceiveCoilName": "Head_32",
  "ReconMatrixPE": 82,
  "RepetitionTime": 0.46,
  "SAR": 0.0947843,
  "ScanOptions": "FS",
  "ScanningSequence": "EP",
  "SequenceName": "epfid2d1_82",
  "SequenceVariant": "SK\\SS",
  "SeriesDescription": "func_run-05_task-social_acq-ap-mb8",
  "SeriesNumber": 16,
  "ShimSetting": [4162, -7727, -7245, 608, -38, -95, 115, 54],
  "SliceThickness": 2.7,
  "SliceTiming": [0, 0.25, 0.0625, 0.3125, 0.125, 0.375, 0.1875, 0, 0.25, 0.0625, 0.3125, 0.125, 0.375, 0.1875, 0, 0.25, 0.0625, 0.3125, 0.125, 0.375, 0.1875, 0, 0.25, 0.0625, 0.3125, 0.125, 0.375, 0.1875, 0, 0.25, 0.0625, 0.3125, 0.125, 0.375, 0.1875, 0, 0.25, 0.0625, 0.3125, 0.125, 0.375, 0.1875, 0, 0.25, 0.0625, 0.3125, 0.125, 0.375, 0.1875, 0, 0.25, 0.0625, 0.3125, 0.125, 0.375, 0.1875],
  "SoftwareVersions": "syngo MR E11",
  "SpacingBetweenSlices": 2.7,
  "StationName": "AWP66112",
  "TaskName": "social",
  "TotalReadoutTime": 0.03969,
  "TxRefAmp": 242.109,
  "WipMemBlock": "eacc6a7e-af29-40f4-839b-4718da4c69db||Sequence: R016 ve11c/master r/e634e98; Dec 19 2017 11:00:25 by eja",
  "dcmmeta_affine": [
    [-2.682016134262085, -0.060395170003175735, 0.03541898727416992, 116.84759521484375],
    [-0.05928372964262962, 2.6809892654418945, 0.08346246927976608, -85.62066650390625],
    [0.03703653812408447, -0.0821288600564003, 2.698477268218994, -38.0308837890625],
    [0.0, 0.0, 0.0, 1.0]
],
  "dcmmeta_reorient_transform": [
    [0.0, -1.0, 0.0, 81.0],
    [1.0, 0.0, 0.0, 0.0],
    [0.0, 0.0, 1.0, 0.0],
    [0.0, 0.0, 0.0, 1.0]
],
  "dcmmeta_shape": [82, 82, 56, 872],
  "dcmmeta_slice_dim": 2,
  "dcmmeta_version": 0.6,
  "global": {
    "const": {
      "AccessionNumber": "A003477",
      "AcquisitionMatrix": [82, 0, 0, 82],
      "AngioFlag": "N",
      "BitsAllocated": 16,
      "BitsStored": 16,
      "BodyPartExamined": "BRAIN",
      "Columns": 656,
      "EchoNumbers": 1,
      "EchoTime": 27.2,
      "EchoTrainLength": 82,
      "FlipAngle": 44.0,
      "HighBit": 15,
      "ImageOrientationPatient": [0.99966052864604, 0.02209666199279, 0.01380452809383, -0.0225109258827, 0.99927783132013, 0.03061166522817],
      "ImagePositionPatient": [-864.36079525033, -917.99784802085, -78.883789812577],
      "ImageType": [
        "ORIGINAL",
        "PRIMARY",
        "M",
        "MB",
        "ND",
        "NORM",
        "MOSAIC"
],
      "ImagedNucleus": "1H",
      "ImagingFrequency": 123.252112,
      "InPlanePhaseEncodingDirection": "COL",
      "MRAcquisitionType": "2D",
      "MagneticFieldStrength": 3.0,
      "Manufacturer": "SIEMENS",
      "ManufacturerModelName": "Prisma",
      "Modality": "MR",
      "NumberOfAverages": 1.0,
      "NumberOfPhaseEncodingSteps": 82,
      "PercentPhaseFieldOfView": 100.0,
      "PercentSampling": 100.0,
      "PerformedProcedureStepStartTime": "115233.178000",
      "PhotometricInterpretation": "MONOCHROME2",
      "PixelBandwidth": 3050.0,
      "PixelRepresentation": 0,
      "PixelSpacing": [2.6829268932343, 2.6829268932343],
      "ProtocolName": "func_run-05_task-social_acq-ap-mb8",
      "RepetitionTime": 460.0,
      "Rows": 656,
      "SAR": 0.09478434094173,
      "SamplesPerPixel": 1,
      "ScanOptions": "FS",
      "ScanningSequence": "EP",
      "SequenceName": "epfid2d1_82",
      "SequenceVariant": [
        "SK",
        "SS"
],
      "SeriesDescription": "func_run-05_task-social_acq-ap-mb8",
      "SeriesNumber": 16,
      "SeriesTime": "130225.412000",
      "SliceLocation": -39.123318805072,
      "SliceThickness": 2.7000000476837,
      "SmallestImagePixelValue": 0,
      "SoftwareVersions": "syngo MR E11",
      "SpacingBetweenSlices": 2.6999999145305,
      "SpecificCharacterSet": "ISO_IR 100",
      "StudyID": "1",
      "StudyTime": "115233.050000",
      "TransmitCoilName": "Body",
      "VariableFlipAngleFlag": "N",
      "WindowCenterWidthExplanation": "Algo1",
      "dBdt": 0.0},
    "slices": {}
  },
  "time": {
    "samples": {
      "AcquisitionNumber": [1, 2, 3, 4, 5, 6, 7, 8, 9, 10, 11, 12, 13, 14, 15, 16, 17, 18, 19, 20, 21, 22, 23, 24, 25, 26, 27, 28, 29, 30, 31, 32, 33, 34, 35, 36, 37, 38, 39, 40, 41, 42, 43, 44, 45, 46, 47, 48, 49, 50, 51, 52, 53, 54, 55, 56, 57, 58, 59, 60, 61, 62, 63, 64, 65, 66, 67, 68, 69, 70, 71, 72, 73, 74, 75, 76, 77, 78, 79, 80, 81, 82, 83, 84, 85, 86, 87, 88, 89, 90, 91, 92, 93, 94, 95, 96, 97, 98, 99, 100, 101, 102, 103, 104, 105, 106, 107, 108, 109, 110, 111, 112, 113, 114, 115, 116, 117, 118, 119, 120, 121, 122, 123, 124, 125, 126, 127, 128, 129, 130, 131, 132, 133, 134, 135, 136, 137, 138, 139, 140, 141, 142, 143, 144, 145, 146, 147, 148, 149, 150, 151, 152, 153, 154, 155, 156, 157, 158, 159, 160, 161, 162, 163, 164, 165, 166, 167, 168, 169, 170, 171, 172, 173, 174, 175, 176, 177, 178, 179, 180, 181, 182, 183, 184, 185, 186, 187, 188, 189, 190, 191, 192, 193, 194, 195, 196, 197, 198, 199, 200, 201, 202, 203, 204, 205, 206, 207, 208, 209, 210, 211, 212, 213, 214, 215, 216, 217, 218, 219, 220, 221, 222, 223, 224, 225, 226, 227, 228, 229, 230, 231, 232, 233, 234, 235, 236, 237, 238, 239, 240, 241, 242, 243, 244, 245, 246, 247, 248, 249, 250, 251, 252, 253, 254, 255, 256, 257, 258, 259, 260, 261, 262, 263, 264, 265, 266, 267, 268, 269, 270, 271, 272, 273, 274, 275, 276, 277, 278, 279, 280, 281, 282, 283, 284, 285, 286, 287, 288, 289, 290, 291, 292, 293, 294, 295, 296, 297, 298, 299, 300, 301, 302, 303, 304, 305, 306, 307, 308, 309, 310, 311, 312, 313, 314, 315, 316, 317, 318, 319, 320, 321, 322, 323, 324, 325, 326, 327, 328, 329, 330, 331, 332, 333, 334, 335, 336, 337, 338, 339, 340, 341, 342, 343, 344, 345, 346, 347, 348, 349, 350, 351, 352, 353, 354, 355, 356, 357, 358, 359, 360, 361, 362, 363, 364, 365, 366, 367, 368, 369, 370, 371, 372, 373, 374, 375, 376, 377, 378, 379, 380, 381, 382, 383, 384, 385, 386, 387, 388, 389, 390, 391, 392, 393, 394, 395, 396, 397, 398, 399, 400, 401, 402, 403, 404, 405, 406, 407, 408, 409, 410, 411, 412, 413, 414, 415, 416, 417, 418, 419, 420, 421, 422, 423, 424, 425, 426, 427, 428, 429, 430, 431, 432, 433, 434, 435, 436, 437, 438, 439, 440, 441, 442, 443, 444, 445, 446, 447, 448, 449, 450, 451, 452, 453, 454, 455, 456, 457, 458, 459, 460, 461, 462, 463, 464, 465, 466, 467, 468, 469, 470, 471, 472, 473, 474, 475, 476, 477, 478, 479, 480, 481, 482, 483, 484, 485, 486, 487, 488, 489, 490, 491, 492, 493, 494, 495, 496, 497, 498, 499, 500, 501, 502, 503, 504, 505, 506, 507, 508, 509, 510, 511, 512, 513, 514, 515, 516, 517, 518, 519, 520, 521, 522, 523, 524, 525, 526, 527, 528, 529, 530, 531, 532, 533, 534, 535, 536, 537, 538, 539, 540, 541, 542, 543, 544, 545, 546, 547, 548, 549, 550, 551, 552, 553, 554, 555, 556, 557, 558, 559, 560, 561, 562, 563, 564, 565, 566, 567, 568, 569, 570, 571, 572, 573, 574, 575, 576, 577, 578, 579, 580, 581, 582, 583, 584, 585, 586, 587, 588, 589, 590, 591, 592, 593, 594, 595, 596, 597, 598, 599, 600, 601, 602, 603, 604, 605, 606, 607, 608, 609, 610, 611, 612, 613, 614, 615, 616, 617, 618, 619, 620, 621, 622, 623, 624, 625, 626, 627, 628, 629, 630, 631, 632, 633, 634, 635, 636, 637, 638, 639, 640, 641, 642, 643, 644, 645, 646, 647, 648, 649, 650, 651, 652, 653, 654, 655, 656, 657, 658, 659, 660, 661, 662, 663, 664, 665, 666, 667, 668, 669, 670, 671, 672, 673, 674, 675, 676, 677, 678, 679, 680, 681, 682, 683, 684, 685, 686, 687, 688, 689, 690, 691, 692, 693, 694, 695, 696, 697, 698, 699, 700, 701, 702, 703, 704, 705, 706, 707, 708, 709, 710, 711, 712, 713, 714, 715, 716, 717, 718, 719, 720, 721, 722, 723, 724, 725, 726, 727, 728, 729, 730, 731, 732, 733, 734, 735, 736, 737, 738, 739, 740, 741, 742, 743, 744, 745, 746, 747, 748, 749, 750, 751, 752, 753, 754, 755, 756, 757, 758, 759, 760, 761, 762, 763, 764, 765, 766, 767, 768, 769, 770, 771, 772, 773, 774, 775, 776, 777, 778, 779, 780, 781, 782, 783, 784, 785, 786, 787, 788, 789, 790, 791, 792, 793, 794, 795, 796, 797, 798, 799, 800, 801, 802, 803, 804, 805, 806, 807, 808, 809, 810, 811, 812, 813, 814, 815, 816, 817, 818, 819, 820, 821, 822, 823, 824, 825, 826, 827, 828, 829, 830, 831, 832, 833, 834, 835, 836, 837, 838, 839, 840, 841, 842, 843, 844, 845, 846, 847, 848, 849, 850, 851, 852, 853, 854, 855, 856, 857, 858, 859, 860, 861, 862, 863, 864, 865, 866, 867, 868, 869, 870, 871, 872],
      "AcquisitionTime": ["130206.882500", "130207.342500", "130207.802500", "130208.262500", "130208.722500", "130209.182500", "130209.642500", "130210.102500", "130210.562500", "130211.022500", "130211.482500", "130211.942500", "130212.402500", "130212.862500", "130213.322500", "130213.782500", "130214.242500", "130214.702500", "130215.162500", "130215.622500", "130216.082500", "130216.542500", "130217.002500", "130217.462500", "130217.922500", "130218.382500", "130218.842500", "130219.302500", "130219.762500", "130220.222500", "130220.682500", "130221.142500", "130221.602500", "130222.062500", "130222.522500", "130222.982500", "130223.442500", "130223.902500", "130224.362500", "130224.822500", "130225.282500", "130225.742500", "130226.202500", "130226.662500", "130227.122500", "130227.582500", "130228.042500", "130228.502500", "130228.962500", "130229.422500", "130229.882500", "130230.342500", "130230.802500", "130231.262500", "130231.722500", "130232.182500", "130232.642500", "130233.102500", "130233.562500", "130234.022500", "130234.482500", "130234.942500", "130235.402500", "130235.862500", "130236.322500", "130236.782500", "130237.242500", "130237.702500", "130238.162500", "130238.622500", "130239.082500", "130239.542500", "130240.002500", "130240.462500", "130240.922500", "130241.382500", "130241.842500", "130242.302500", "130242.762500", "130243.222500", "130243.682500", "130244.142500", "130244.602500", "130245.062500", "130245.522500", "130245.982500", "130246.442500", "130246.902500", "130247.362500", "130247.822500", "130248.282500", "130248.742500", "130249.202500", "130249.662500", "130250.122500", "130250.582500", "130251.042500", "130251.502500", "130251.962500", "130252.422500", "130252.882500", "130253.342500", "130253.802500", "130254.262500", "130254.722500", "130255.182500", "130255.642500", "130256.102500", "130256.562500", "130257.022500", "130257.482500", "130257.942500", "130258.402500", "130258.862500", "130259.322500", "130259.782500", "130300.242500", "130300.702500", "130301.162500", "130301.622500", "130302.082500", "130302.542500", "130303.002500", "130303.462500", "130303.922500", "130304.382500", "130304.842500", "130305.302500", "130305.762500", "130306.222500", "130306.682500", "130307.142500", "130307.602500", "130308.062500", "130308.522500", "130308.982500", "130309.442500", "130309.902500", "130310.362500", "130310.822500", "130311.282500", "130311.742500", "130312.202500", "130312.662500", "130313.122500", "130313.582500", "130314.042500", "130314.502500", "130314.962500", "130315.422500", "130315.882500", "130316.342500", "130316.802500", "130317.262500", "130317.722500", "130318.182500", "130318.642500", "130319.102500", "130319.562500", "130320.022500", "130320.482500", "130320.942500", "130321.402500", "130321.862500", "130322.322500", "130322.782500", "130323.242500", "130323.702500", "130324.162500", "130324.622500", "130325.082500", "130325.542500", "130326.002500", "130326.462500", "130326.922500", "130327.382500", "130327.842500", "130328.302500", "130328.762500", "130329.222500", "130329.682500", "130330.142500", "130330.602500", "130331.062500", "130331.522500", "130331.982500", "130332.442500", "130332.902500", "130333.362500", "130333.822500", "130334.282500", "130334.742500", "130335.202500", "130335.662500", "130336.122500", "130336.582500", "130337.042500", "130337.502500", "130337.962500", "130338.422500", "130338.882500", "130339.342500", "130339.802500", "130340.262500", "130340.722500", "130341.182500", "130341.642500", "130342.102500", "130342.562500", "130343.022500", "130343.482500", "130343.942500", "130344.402500", "130344.862500", "130345.322500", "130345.782500", "130346.242500", "130346.702500", "130347.162500", "130347.622500", "130348.082500", "130348.542500", "130349.002500", "130349.462500", "130349.922500", "130350.382500", "130350.842500", "130351.302500", "130351.762500", "130352.222500", "130352.682500", "130353.142500", "130353.602500", "130354.062500", "130354.522500", "130354.982500", "130355.442500", "130355.902500", "130356.362500", "130356.822500", "130357.282500", "130357.742500", "130358.202500", "130358.662500", "130359.122500", "130359.582500", "130400.042500", "130400.502500", "130400.962500", "130401.422500", "130401.882500", "130402.342500", "130402.802500", "130403.262500", "130403.722500", "130404.182500", "130404.642500", "130405.102500", "130405.562500", "130406.022500", "130406.482500", "130406.942500", "130407.402500", "130407.862500", "130408.322500", "130408.782500", "130409.242500", "130409.702500", "130410.162500", "130410.622500", "130411.082500", "130411.542500", "130412.002500", "130412.462500", "130412.922500", "130413.382500", "130413.842500", "130414.302500", "130414.762500", "130415.222500", "130415.682500", "130416.142500", "130416.602500", "130417.062500", "130417.522500", "130417.982500", "130418.442500", "130418.902500", "130419.362500", "130419.822500", "130420.282500", "130420.742500", "130421.202500", "130421.662500", "130422.122500", "130422.582500", "130423.042500", "130423.502500", "130423.962500", "130424.422500", "130424.882500", "130425.342500", "130425.802500", "130426.262500", "130426.722500", "130427.182500", "130427.642500", "130428.102500", "130428.562500", "130429.022500", "130429.482500", "130429.942500", "130430.402500", "130430.862500", "130431.322500", "130431.782500", "130432.242500", "130432.702500", "130433.162500", "130433.622500", "130434.082500", "130434.542500", "130435.002500", "130435.462500", "130435.922500", "130436.382500", "130436.842500", "130437.302500", "130437.762500", "130438.222500", "130438.682500", "130439.142500", "130439.602500", "130440.062500", "130440.522500", "130440.982500", "130441.442500", "130441.902500", "130442.362500", "130442.822500", "130443.282500", "130443.742500", "130444.202500", "130444.662500", "130445.122500", "130445.582500", "130446.042500", "130446.502500", "130446.962500", "130447.422500", "130447.882500", "130448.342500", "130448.802500", "130449.262500", "130449.722500", "130450.182500", "130450.642500", "130451.102500", "130451.562500", "130452.022500", "130452.482500", "130452.942500", "130453.402500", "130453.862500", "130454.322500", "130454.782500", "130455.242500", "130455.702500", "130456.162500", "130456.622500", "130457.082500", "130457.542500", "130458.002500", "130458.462500", "130458.922500", "130459.382500", "130459.842500", "130500.302500", "130500.762500", "130501.222500", "130501.682500", "130502.142500", "130502.602500", "130503.062500", "130503.522500", "130503.982500", "130504.442500", "130504.902500", "130505.362500", "130505.822500", "130506.282500", "130506.742500", "130507.202500", "130507.662500", "130508.122500", "130508.582500", "130509.042500", "130509.502500", "130509.962500", "130510.422500", "130510.882500", "130511.342500", "130511.802500", "130512.262500", "130512.722500", "130513.182500", "130513.642500", "130514.102500", "130514.562500", "130515.022500", "130515.482500", "130515.942500", "130516.402500", "130516.862500", "130517.322500", "130517.782500", "130518.242500", "130518.702500", "130519.162500", "130519.622500", "130520.082500", "130520.542500", "130521.002500", "130521.462500", "130521.922500", "130522.382500", "130522.842500", "130523.302500", "130523.762500", "130524.222500", "130524.682500", "130525.142500", "130525.602500", "130526.062500", "130526.522500", "130526.982500", "130527.442500", "130527.902500", "130528.362500", "130528.822500", "130529.282500", "130529.742500", "130530.202500", "130530.662500", "130531.122500", "130531.582500", "130532.042500", "130532.502500", "130532.962500", "130533.422500", "130533.882500", "130534.342500", "130534.802500", "130535.262500", "130535.722500", "130536.182500", "130536.642500", "130537.102500", "130537.562500", "130538.022500", "130538.482500", "130538.942500", "130539.402500", "130539.862500", "130540.322500", "130540.782500", "130541.242500", "130541.702500", "130542.162500", "130542.622500", "130543.082500", "130543.542500", "130544.002500", "130544.462500", "130544.922500", "130545.382500", "130545.842500", "130546.302500", "130546.762500", "130547.222500", "130547.682500", "130548.142500", "130548.602500", "130549.062500", "130549.522500", "130549.982500", "130550.442500", "130550.902500", "130551.362500", "130551.822500", "130552.282500", "130552.742500", "130553.202500", "130553.662500", "130554.122500", "130554.582500", "130555.042500", "130555.502500", "130555.962500", "130556.422500", "130556.882500", "130557.342500", "130557.802500", "130558.262500", "130558.722500", "130559.182500", "130559.642500", "130600.102500", "130600.562500", "130601.022500", "130601.482500", "130601.942500", "130602.402500", "130602.862500", "130603.322500", "130603.782500", "130604.242500", "130604.702500", "130605.162500", "130605.622500", "130606.082500", "130606.542500", "130607.002500", "130607.462500", "130607.922500", "130608.382500", "130608.842500", "130609.302500", "130609.762500", "130610.222500", "130610.682500", "130611.142500", "130611.602500", "130612.062500", "130612.522500", "130612.982500", "130613.442500", "130613.902500", "130614.362500", "130614.822500", "130615.282500", "130615.742500", "130616.202500", "130616.662500", "130617.122500", "130617.582500", "130618.042500", "130618.502500", "130618.962500", "130619.422500", "130619.882500", "130620.342500", "130620.802500", "130621.262500", "130621.722500", "130622.182500", "130622.642500", "130623.102500", "130623.562500", "130624.022500", "130624.482500", "130624.942500", "130625.402500", "130625.862500", "130626.322500", "130626.782500", "130627.242500", "130627.702500", "130628.162500", "130628.622500", "130629.082500", "130629.542500", "130630.002500", "130630.462500", "130630.922500", "130631.382500", "130631.842500", "130632.302500", "130632.762500", "130633.222500", "130633.682500", "130634.142500", "130634.602500", "130635.062500", "130635.522500", "130635.982500", "130636.442500", "130636.902500", "130637.362500", "130637.822500", "130638.282500", "130638.742500", "130639.202500", "130639.662500", "130640.122500", "130640.582500", "130641.042500", "130641.502500", "130641.962500", "130642.422500", "130642.882500", "130643.342500", "130643.802500", "130644.262500", "130644.722500", "130645.182500", "130645.642500", "130646.102500", "130646.562500", "130647.022500", "130647.482500", "130647.942500", "130648.402500", "130648.862500", "130649.322500", "130649.782500", "130650.242500", "130650.702500", "130651.162500", "130651.622500", "130652.082500", "130652.542500", "130653.002500", "130653.462500", "130653.922500", "130654.382500", "130654.842500", "130655.302500", "130655.762500", "130656.222500", "130656.682500", "130657.142500", "130657.602500", "130658.062500", "130658.522500", "130658.982500", "130659.442500", "130659.902500", "130700.362500", "130700.822500", "130701.282500", "130701.742500", "130702.202500", "130702.662500", "130703.122500", "130703.582500", "130704.042500", "130704.502500", "130704.962500", "130705.422500", "130705.882500", "130706.342500", "130706.802500", "130707.262500", "130707.722500", "130708.182500", "130708.642500", "130709.102500", "130709.562500", "130710.022500", "130710.482500", "130710.942500", "130711.402500", "130711.862500", "130712.322500", "130712.782500", "130713.242500", "130713.702500", "130714.162500", "130714.622500", "130715.082500", "130715.542500", "130716.002500", "130716.462500", "130716.922500", "130717.382500", "130717.842500", "130718.302500", "130718.762500", "130719.222500", "130719.682500", "130720.142500", "130720.602500", "130721.062500", "130721.522500", "130721.982500", "130722.442500", "130722.902500", "130723.362500", "130723.822500", "130724.282500", "130724.742500", "130725.202500", "130725.662500", "130726.122500", "130726.582500", "130727.042500", "130727.502500", "130727.962500", "130728.422500", "130728.882500", "130729.342500", "130729.802500", "130730.262500", "130730.722500", "130731.182500", "130731.642500", "130732.102500", "130732.562500", "130733.022500", "130733.482500", "130733.942500", "130734.402500", "130734.862500", "130735.322500", "130735.782500", "130736.242500", "130736.702500", "130737.162500", "130737.622500", "130738.082500", "130738.542500", "130739.002500", "130739.462500", "130739.922500", "130740.382500", "130740.842500", "130741.302500", "130741.762500", "130742.222500", "130742.682500", "130743.142500", "130743.602500", "130744.062500", "130744.522500", "130744.982500", "130745.442500", "130745.902500", "130746.362500", "130746.822500", "130747.282500", "130747.742500", "130748.202500", "130748.662500", "130749.122500", "130749.582500", "130750.042500", "130750.502500", "130750.962500", "130751.422500", "130751.882500", "130752.342500", "130752.802500", "130753.262500", "130753.722500", "130754.182500", "130754.642500", "130755.102500", "130755.562500", "130756.022500", "130756.482500", "130756.942500", "130757.402500", "130757.862500", "130758.322500", "130758.782500", "130759.242500", "130759.702500", "130800.162500", "130800.622500", "130801.082500", "130801.542500", "130802.002500", "130802.462500", "130802.922500", "130803.382500", "130803.842500", "130804.302500", "130804.762500", "130805.222500", "130805.682500", "130806.142500", "130806.602500", "130807.062500", "130807.522500", "130807.982500", "130808.442500", "130808.902500", "130809.362500", "130809.822500", "130810.282500", "130810.742500", "130811.202500", "130811.662500", "130812.122500", "130812.582500", "130813.042500", "130813.502500", "130813.962500", "130814.422500", "130814.882500", "130815.342500", "130815.802500", "130816.262500", "130816.722500", "130817.182500", "130817.642500", "130818.102500", "130818.562500", "130819.022500", "130819.482500", "130819.942500", "130820.402500", "130820.862500", "130821.322500", "130821.782500", "130822.242500", "130822.702500", "130823.162500", "130823.622500", "130824.082500", "130824.542500", "130825.002500", "130825.462500", "130825.922500", "130826.382500", "130826.842500", "130827.302500", "130827.762500", "130828.222500", "130828.682500", "130829.142500", "130829.602500", "130830.062500", "130830.522500", "130830.982500", "130831.442500", "130831.902500", "130832.362500", "130832.822500", "130833.282500", "130833.742500", "130834.202500", "130834.662500", "130835.122500", "130835.582500", "130836.042500", "130836.502500", "130836.962500", "130837.422500", "130837.882500", "130838.342500", "130838.802500", "130839.262500", "130839.722500", "130840.182500", "130840.642500", "130841.102500", "130841.562500", "130842.022500", "130842.482500", "130842.942500", "130843.402500", "130843.862500", "130844.322500", "130844.782500", "130845.242500", "130845.702500", "130846.162500", "130846.622500", "130847.082500", "130847.542500"],
