{
  "AcquisitionMatrixPE": 82,
  "AcquisitionNumber": 1,
  "AcquisitionTime": "12:55:12.017500",
  "BandwidthPerPixelPhaseEncode": 24.888,
  "BaseResolution": 82,
  "BodyPartExamined": "BRAIN",
  "ConsistencyInfo": "N4_VE11C_LATEST_20160120",
  "ConversionSoftware": "dcm2niix",
  "ConversionSoftwareVersion": "v1.0.20201102",
  "DerivedVendorReportedEchoSpacing": 0.00049,
  "DeviceSerialNumber": "66112",
  "DwellTime": 2e-06,
  "EchoTime": 0.0272,
  "EchoTrainLength": 82,
  "EffectiveEchoSpacing": 0.00049,
  "FlipAngle": 44,
  "ImageComments": "Unaliased MB8/PE3",
  "ImageOrientationPatientDICOM": [0.999661, 0.0220967, 0.0138045, -0.0225109, 0.999278, 0.0306117],
  "ImageType": [
    "ORIGINAL",
    "PRIMARY",
    "M",
    "MB",
    "ND",
    "NORM",
    "MOSAIC"
],
  "ImagingFrequency": 123.252,
  "InPlanePhaseEncodingDirectionDICOM": "COL",
  "InstitutionAddress": "Maynard 3,Hanover,NH,US,03755",
  "InstitutionName": "Dartmouth College - PBS",
  "InstitutionalDepartmentName": "Department",
  "MRAcquisitionType": "2D",
  "MagneticFieldStrength": 3,
  "Manufacturer": "Siemens",
  "ManufacturersModelName": "Prisma",
  "Modality": "MR",
  "MultibandAccelerationFactor": 8,
  "PartialFourier": 1,
  "PatientPosition": "HFS",
  "PercentPhaseFOV": 100,
  "PercentSampling": 100,
  "PhaseEncodingDirection": "j-",
  "PhaseEncodingSteps": 82,
  "PhaseResolution": 1,
  "PixelBandwidth": 3050,
  "ProcedureStepDescription": "Wager_Wager^1076_spacetop",
  "ProtocolName": "func_run-04_task-social_acq-ap-mb8",
  "PulseSequenceDetails": "%CustomerSeq%\\cmrr_mbep2d_bold",
  "ReceiveCoilActiveElements": "HEA;HEP",
  "ReceiveCoilName": "Head_32",
  "ReconMatrixPE": 82,
  "RepetitionTime": 0.46,
  "SAR": 0.0947843,
  "ScanOptions": "FS",
  "ScanningSequence": "EP",
  "SequenceName": "epfid2d1_82",
  "SequenceVariant": "SK\\SS",
  "SeriesDescription": "func_run-04_task-social_acq-ap-mb8",
  "SeriesNumber": 14,
  "ShimSetting": [4162, -7727, -7245, 608, -38, -95, 115, 54],
  "SliceThickness": 2.7,
  "SliceTiming": [0, 0.2525, 0.0625, 0.315, 0.125, 0.3775, 0.19, 0, 0.2525, 0.0625, 0.315, 0.125, 0.3775, 0.19, 0, 0.2525, 0.0625, 0.315, 0.125, 0.3775, 0.19, 0, 0.2525, 0.0625, 0.315, 0.125, 0.3775, 0.19, 0, 0.2525, 0.0625, 0.315, 0.125, 0.3775, 0.19, 0, 0.2525, 0.0625, 0.315, 0.125, 0.3775, 0.19, 0, 0.2525, 0.0625, 0.315, 0.125, 0.3775, 0.19, 0, 0.2525, 0.0625, 0.315, 0.125, 0.3775, 0.19],
  "SoftwareVersions": "syngo MR E11",
  "SpacingBetweenSlices": 2.7,
  "StationName": "AWP66112",
  "TaskName": "social",
  "TotalReadoutTime": 0.03969,
  "TxRefAmp": 242.109,
  "WipMemBlock": "5bcc5691-9bae-4bf0-ba8c-f0da56808796||Sequence: R016 ve11c/master r/e634e98; Dec 19 2017 11:00:25 by eja",
  "dcmmeta_affine": [
    [-2.682016134262085, -0.060395170003175735, 0.03541898727416992, 116.84759521484375],
    [-0.05928372964262962, 2.6809892654418945, 0.08346246927976608, -85.62066650390625],
    [0.03703653812408447, -0.0821288600564003, 2.698477268218994, -38.0308837890625],
    [0.0, 0.0, 0.0, 1.0]
],
  "dcmmeta_reorient_transform": [
    [0.0, -1.0, 0.0, 81.0],
    [1.0, 0.0, 0.0, 0.0],
    [0.0, 0.0, 1.0, 0.0],
    [0.0, 0.0, 0.0, 1.0]
],
  "dcmmeta_shape": [82, 82, 56, 872],
  "dcmmeta_slice_dim": 2,
  "dcmmeta_version": 0.6,
  "global": {
    "const": {
      "AccessionNumber": "A003477",
      "AcquisitionMatrix": [82, 0, 0, 82],
      "AngioFlag": "N",
      "BitsAllocated": 16,
      "BitsStored": 16,
      "BodyPartExamined": "BRAIN",
      "Columns": 656,
      "EchoNumbers": 1,
      "EchoTime": 27.2,
      "EchoTrainLength": 82,
      "FlipAngle": 44.0,
      "HighBit": 15,
      "ImageOrientationPatient": [0.99966052864604, 0.02209666199279, 0.01380452809383, -0.0225109258827, 0.99927783132013, 0.03061166522817],
      "ImagePositionPatient": [-864.36079525033, -917.99784802085, -78.883789812577],
      "ImageType": [
        "ORIGINAL",
        "PRIMARY",
        "M",
        "MB",
        "ND",
        "NORM",
        "MOSAIC"
],
      "ImagedNucleus": "1H",
      "ImagingFrequency": 123.252108,
      "InPlanePhaseEncodingDirection": "COL",
      "MRAcquisitionType": "2D",
      "MagneticFieldStrength": 3.0,
      "Manufacturer": "SIEMENS",
      "ManufacturerModelName": "Prisma",
      "Modality": "MR",
      "NumberOfAverages": 1.0,
      "NumberOfPhaseEncodingSteps": 82,
      "PercentPhaseFieldOfView": 100.0,
      "PercentSampling": 100.0,
      "PerformedProcedureStepStartTime": "115233.178000",
      "PhotometricInterpretation": "MONOCHROME2",
      "PixelBandwidth": 3050.0,
      "PixelRepresentation": 0,
      "PixelSpacing": [2.6829268932343, 2.6829268932343],
      "ProtocolName": "func_run-04_task-social_acq-ap-mb8",
      "RepetitionTime": 460.0,
      "Rows": 656,
      "SAR": 0.09478434094173,
      "SamplesPerPixel": 1,
      "ScanOptions": "FS",
      "ScanningSequence": "EP",
      "SequenceName": "epfid2d1_82",
      "SequenceVariant": [
        "SK",
        "SS"
],
      "SeriesDescription": "func_run-04_task-social_acq-ap-mb8",
      "SeriesNumber": 14,
      "SeriesTime": "125525.331000",
      "SliceLocation": -39.123318805072,
      "SliceThickness": 2.7000000476837,
      "SmallestImagePixelValue": 0,
      "SoftwareVersions": "syngo MR E11",
      "SpacingBetweenSlices": 2.6999999145305,
      "SpecificCharacterSet": "ISO_IR 100",
      "StudyID": "1",
      "StudyTime": "115233.050000",
      "TransmitCoilName": "Body",
      "VariableFlipAngleFlag": "N",
      "WindowCenterWidthExplanation": "Algo1",
      "dBdt": 0.0},
    "slices": {}
  },
  "time": {
    "samples": {
      "AcquisitionNumber": [1, 2, 3, 4, 5, 6, 7, 8, 9, 10, 11, 12, 13, 14, 15, 16, 17, 18, 19, 20, 21, 22, 23, 24, 25, 26, 27, 28, 29, 30, 31, 32, 33, 34, 35, 36, 37, 38, 39, 40, 41, 42, 43, 44, 45, 46, 47, 48, 49, 50, 51, 52, 53, 54, 55, 56, 57, 58, 59, 60, 61, 62, 63, 64, 65, 66, 67, 68, 69, 70, 71, 72, 73, 74, 75, 76, 77, 78, 79, 80, 81, 82, 83, 84, 85, 86, 87, 88, 89, 90, 91, 92, 93, 94, 95, 96, 97, 98, 99, 100, 101, 102, 103, 104, 105, 106, 107, 108, 109, 110, 111, 112, 113, 114, 115, 116, 117, 118, 119, 120, 121, 122, 123, 124, 125, 126, 127, 128, 129, 130, 131, 132, 133, 134, 135, 136, 137, 138, 139, 140, 141, 142, 143, 144, 145, 146, 147, 148, 149, 150, 151, 152, 153, 154, 155, 156, 157, 158, 159, 160, 161, 162, 163, 164, 165, 166, 167, 168, 169, 170, 171, 172, 173, 174, 175, 176, 177, 178, 179, 180, 181, 182, 183, 184, 185, 186, 187, 188, 189, 190, 191, 192, 193, 194, 195, 196, 197, 198, 199, 200, 201, 202, 203, 204, 205, 206, 207, 208, 209, 210, 211, 212, 213, 214, 215, 216, 217, 218, 219, 220, 221, 222, 223, 224, 225, 226, 227, 228, 229, 230, 231, 232, 233, 234, 235, 236, 237, 238, 239, 240, 241, 242, 243, 244, 245, 246, 247, 248, 249, 250, 251, 252, 253, 254, 255, 256, 257, 258, 259, 260, 261, 262, 263, 264, 265, 266, 267, 268, 269, 270, 271, 272, 273, 274, 275, 276, 277, 278, 279, 280, 281, 282, 283, 284, 285, 286, 287, 288, 289, 290, 291, 292, 293, 294, 295, 296, 297, 298, 299, 300, 301, 302, 303, 304, 305, 306, 307, 308, 309, 310, 311, 312, 313, 314, 315, 316, 317, 318, 319, 320, 321, 322, 323, 324, 325, 326, 327, 328, 329, 330, 331, 332, 333, 334, 335, 336, 337, 338, 339, 340, 341, 342, 343, 344, 345, 346, 347, 348, 349, 350, 351, 352, 353, 354, 355, 356, 357, 358, 359, 360, 361, 362, 363, 364, 365, 366, 367, 368, 369, 370, 371, 372, 373, 374, 375, 376, 377, 378, 379, 380, 381, 382, 383, 384, 385, 386, 387, 388, 389, 390, 391, 392, 393, 394, 395, 396, 397, 398, 399, 400, 401, 402, 403, 404, 405, 406, 407, 408, 409, 410, 411, 412, 413, 414, 415, 416, 417, 418, 419, 420, 421, 422, 423, 424, 425, 426, 427, 428, 429, 430, 431, 432, 433, 434, 435, 436, 437, 438, 439, 440, 441, 442, 443, 444, 445, 446, 447, 448, 449, 450, 451, 452, 453, 454, 455, 456, 457, 458, 459, 460, 461, 462, 463, 464, 465, 466, 467, 468, 469, 470, 471, 472, 473, 474, 475, 476, 477, 478, 479, 480, 481, 482, 483, 484, 485, 486, 487, 488, 489, 490, 491, 492, 493, 494, 495, 496, 497, 498, 499, 500, 501, 502, 503, 504, 505, 506, 507, 508, 509, 510, 511, 512, 513, 514, 515, 516, 517, 518, 519, 520, 521, 522, 523, 524, 525, 526, 527, 528, 529, 530, 531, 532, 533, 534, 535, 536, 537, 538, 539, 540, 541, 542, 543, 544, 545, 546, 547, 548, 549, 550, 551, 552, 553, 554, 555, 556, 557, 558, 559, 560, 561, 562, 563, 564, 565, 566, 567, 568, 569, 570, 571, 572, 573, 574, 575, 576, 577, 578, 579, 580, 581, 582, 583, 584, 585, 586, 587, 588, 589, 590, 591, 592, 593, 594, 595, 596, 597, 598, 599, 600, 601, 602, 603, 604, 605, 606, 607, 608, 609, 610, 611, 612, 613, 614, 615, 616, 617, 618, 619, 620, 621, 622, 623, 624, 625, 626, 627, 628, 629, 630, 631, 632, 633, 634, 635, 636, 637, 638, 639, 640, 641, 642, 643, 644, 645, 646, 647, 648, 649, 650, 651, 652, 653, 654, 655, 656, 657, 658, 659, 660, 661, 662, 663, 664, 665, 666, 667, 668, 669, 670, 671, 672, 673, 674, 675, 676, 677, 678, 679, 680, 681, 682, 683, 684, 685, 686, 687, 688, 689, 690, 691, 692, 693, 694, 695, 696, 697, 698, 699, 700, 701, 702, 703, 704, 705, 706, 707, 708, 709, 710, 711, 712, 713, 714, 715, 716, 717, 718, 719, 720, 721, 722, 723, 724, 725, 726, 727, 728, 729, 730, 731, 732, 733, 734, 735, 736, 737, 738, 739, 740, 741, 742, 743, 744, 745, 746, 747, 748, 749, 750, 751, 752, 753, 754, 755, 756, 757, 758, 759, 760, 761, 762, 763, 764, 765, 766, 767, 768, 769, 770, 771, 772, 773, 774, 775, 776, 777, 778, 779, 780, 781, 782, 783, 784, 785, 786, 787, 788, 789, 790, 791, 792, 793, 794, 795, 796, 797, 798, 799, 800, 801, 802, 803, 804, 805, 806, 807, 808, 809, 810, 811, 812, 813, 814, 815, 816, 817, 818, 819, 820, 821, 822, 823, 824, 825, 826, 827, 828, 829, 830, 831, 832, 833, 834, 835, 836, 837, 838, 839, 840, 841, 842, 843, 844, 845, 846, 847, 848, 849, 850, 851, 852, 853, 854, 855, 856, 857, 858, 859, 860, 861, 862, 863, 864, 865, 866, 867, 868, 869, 870, 871, 872],
      "AcquisitionTime": ["125512.017500", "125512.477500", "125512.937500", "125513.397500", "125513.857500", "125514.317500", "125514.777500", "125515.237500", "125515.697500", "125516.157500", "125516.617500", "125517.077500", "125517.537500", "125517.997500", "125518.457500", "125518.917500", "125519.377500", "125519.837500", "125520.297500", "125520.757500", "125521.217500", "125521.677500", "125522.137500", "125522.597500", "125523.057500", "125523.517500", "125523.977500", "125524.437500", "125524.897500", "125525.357500", "125525.817500", "125526.277500", "125526.737500", "125527.197500", "125527.657500", "125528.117500", "125528.577500", "125529.037500", "125529.497500", "125529.957500", "125530.417500", "125530.877500", "125531.337500", "125531.797500", "125532.257500", "125532.717500", "125533.177500", "125533.637500", "125534.097500", "125534.557500", "125535.017500", "125535.477500", "125535.937500", "125536.397500", "125536.857500", "125537.317500", "125537.777500", "125538.237500", "125538.697500", "125539.157500", "125539.617500", "125540.077500", "125540.537500", "125540.997500", "125541.457500", "125541.917500", "125542.377500", "125542.837500", "125543.297500", "125543.757500", "125544.217500", "125544.677500", "125545.137500", "125545.597500", "125546.057500", "125546.517500", "125546.977500", "125547.437500", "125547.897500", "125548.357500", "125548.817500", "125549.277500", "125549.737500", "125550.197500", "125550.657500", "125551.117500", "125551.577500", "125552.037500", "125552.497500", "125552.957500", "125553.417500", "125553.877500", "125554.337500", "125554.797500", "125555.257500", "125555.717500", "125556.177500", "125556.637500", "125557.097500", "125557.557500", "125558.017500", "125558.477500", "125558.937500", "125559.397500", "125559.857500", "125600.317500", "125600.777500", "125601.237500", "125601.697500", "125602.157500", "125602.617500", "125603.077500", "125603.537500", "125603.997500", "125604.457500", "125604.917500", "125605.377500", "125605.837500", "125606.297500", "125606.757500", "125607.217500", "125607.677500", "125608.137500", "125608.597500", "125609.057500", "125609.517500", "125609.977500", "125610.437500", "125610.897500", "125611.357500", "125611.817500", "125612.277500", "125612.737500", "125613.197500", "125613.657500", "125614.117500", "125614.577500", "125615.037500", "125615.497500", "125615.957500", "125616.417500", "125616.877500", "125617.337500", "125617.797500", "125618.257500", "125618.717500", "125619.177500", "125619.637500", "125620.097500", "125620.557500", "125621.017500", "125621.477500", "125621.937500", "125622.397500", "125622.857500", "125623.317500", "125623.777500", "125624.237500", "125624.697500", "125625.157500", "125625.617500", "125626.077500", "125626.537500", "125626.997500", "125627.457500", "125627.917500", "125628.377500", "125628.837500", "125629.297500", "125629.757500", "125630.217500", "125630.677500", "125631.137500", "125631.597500", "125632.057500", "125632.517500", "125632.977500", "125633.437500", "125633.897500", "125634.357500", "125634.817500", "125635.277500", "125635.737500", "125636.197500", "125636.657500", "125637.117500", "125637.577500", "125638.037500", "125638.497500", "125638.957500", "125639.417500", "125639.877500", "125640.337500", "125640.797500", "125641.257500", "125641.717500", "125642.177500", "125642.637500", "125643.097500", "125643.557500", "125644.017500", "125644.477500", "125644.937500", "125645.397500", "125645.857500", "125646.317500", "125646.777500", "125647.237500", "125647.697500", "125648.157500", "125648.617500", "125649.077500", "125649.537500", "125649.997500", "125650.457500", "125650.917500", "125651.377500", "125651.837500", "125652.297500", "125652.757500", "125653.217500", "125653.677500", "125654.137500", "125654.597500", "125655.057500", "125655.517500", "125655.977500", "125656.437500", "125656.897500", "125657.357500", "125657.817500", "125658.277500", "125658.737500", "125659.197500", "125659.657500", "125700.117500", "125700.577500", "125701.037500", "125701.497500", "125701.957500", "125702.417500", "125702.877500", "125703.337500", "125703.797500", "125704.257500", "125704.717500", "125705.177500", "125705.637500", "125706.097500", "125706.557500", "125707.017500", "125707.477500", "125707.937500", "125708.397500", "125708.857500", "125709.317500", "125709.777500", "125710.237500", "125710.697500", "125711.157500", "125711.617500", "125712.077500", "125712.537500", "125712.997500", "125713.457500", "125713.917500", "125714.377500", "125714.837500", "125715.297500", "125715.757500", "125716.217500", "125716.677500", "125717.137500", "125717.597500", "125718.057500", "125718.517500", "125718.977500", "125719.437500", "125719.897500", "125720.357500", "125720.817500", "125721.277500", "125721.737500", "125722.197500", "125722.657500", "125723.117500", "125723.577500", "125724.037500", "125724.497500", "125724.957500", "125725.417500", "125725.877500", "125726.337500", "125726.797500", "125727.257500", "125727.717500", "125728.177500", "125728.637500", "125729.097500", "125729.557500", "125730.017500", "125730.477500", "125730.937500", "125731.397500", "125731.857500", "125732.317500", "125732.777500", "125733.237500", "125733.697500", "125734.157500", "125734.617500", "125735.077500", "125735.537500", "125735.997500", "125736.457500", "125736.917500", "125737.377500", "125737.837500", "125738.297500", "125738.757500", "125739.217500", "125739.677500", "125740.137500", "125740.597500", "125741.057500", "125741.517500", "125741.977500", "125742.437500", "125742.897500", "125743.357500", "125743.817500", "125744.277500", "125744.737500", "125745.197500", "125745.657500", "125746.117500", "125746.577500", "125747.037500", "125747.497500", "125747.957500", "125748.417500", "125748.877500", "125749.337500", "125749.797500", "125750.257500", "125750.717500", "125751.177500", "125751.637500", "125752.097500", "125752.557500", "125753.017500", "125753.477500", "125753.937500", "125754.397500", "125754.857500", "125755.317500", "125755.777500", "125756.237500", "125756.697500", "125757.157500", "125757.617500", "125758.077500", "125758.537500", "125758.997500", "125759.457500", "125759.917500", "125800.377500", "125800.837500", "125801.297500", "125801.757500", "125802.217500", "125802.677500", "125803.137500", "125803.597500", "125804.057500", "125804.517500", "125804.977500", "125805.437500", "125805.897500", "125806.357500", "125806.817500", "125807.277500", "125807.737500", "125808.197500", "125808.657500", "125809.117500", "125809.577500", "125810.037500", "125810.497500", "125810.957500", "125811.417500", "125811.877500", "125812.337500", "125812.797500", "125813.257500", "125813.717500", "125814.177500", "125814.637500", "125815.097500", "125815.557500", "125816.017500", "125816.477500", "125816.937500", "125817.397500", "125817.857500", "125818.317500", "125818.777500", "125819.237500", "125819.697500", "125820.157500", "125820.617500", "125821.077500", "125821.537500", "125821.997500", "125822.457500", "125822.917500", "125823.377500", "125823.837500", "125824.297500", "125824.757500", "125825.217500", "125825.677500", "125826.137500", "125826.597500", "125827.057500", "125827.517500", "125827.977500", "125828.437500", "125828.897500", "125829.357500", "125829.817500", "125830.277500", "125830.737500", "125831.197500", "125831.657500", "125832.117500", "125832.577500", "125833.037500", "125833.497500", "125833.957500", "125834.417500", "125834.877500", "125835.337500", "125835.797500", "125836.257500", "125836.717500", "125837.177500", "125837.637500", "125838.097500", "125838.557500", "125839.017500", "125839.477500", "125839.937500", "125840.397500", "125840.857500", "125841.317500", "125841.777500", "125842.237500", "125842.697500", "125843.157500", "125843.617500", "125844.077500", "125844.537500", "125844.997500", "125845.457500", "125845.917500", "125846.377500", "125846.837500", "125847.297500", "125847.757500", "125848.217500", "125848.677500", "125849.137500", "125849.597500", "125850.057500", "125850.517500", "125850.977500", "125851.437500", "125851.897500", "125852.357500", "125852.817500", "125853.277500", "125853.737500", "125854.197500", "125854.657500", "125855.117500", "125855.577500", "125856.037500", "125856.497500", "125856.957500", "125857.417500", "125857.877500", "125858.337500", "125858.797500", "125859.257500", "125859.717500", "125900.177500", "125900.637500", "125901.097500", "125901.557500", "125902.017500", "125902.477500", "125902.937500", "125903.397500", "125903.857500", "125904.317500", "125904.777500", "125905.237500", "125905.697500", "125906.157500", "125906.617500", "125907.077500", "125907.537500", "125907.997500", "125908.457500", "125908.917500", "125909.377500", "125909.837500", "125910.297500", "125910.757500", "125911.217500", "125911.677500", "125912.137500", "125912.597500", "125913.057500", "125913.517500", "125913.977500", "125914.437500", "125914.897500", "125915.357500", "125915.817500", "125916.277500", "125916.737500", "125917.197500", "125917.657500", "125918.117500", "125918.577500", "125919.037500", "125919.497500", "125919.957500", "125920.417500", "125920.877500", "125921.337500", "125921.797500", "125922.257500", "125922.717500", "125923.177500", "125923.637500", "125924.097500", "125924.557500", "125925.017500", "125925.477500", "125925.937500", "125926.397500", "125926.857500", "125927.317500", "125927.777500", "125928.237500", "125928.697500", "125929.157500", "125929.617500", "125930.077500", "125930.537500", "125930.997500", "125931.457500", "125931.917500", "125932.377500", "125932.837500", "125933.297500", "125933.757500", "125934.217500", "125934.677500", "125935.137500", "125935.597500", "125936.057500", "125936.517500", "125936.977500", "125937.437500", "125937.897500", "125938.357500", "125938.817500", "125939.277500", "125939.737500", "125940.197500", "125940.657500", "125941.117500", "125941.577500", "125942.037500", "125942.497500", "125942.957500", "125943.417500", "125943.877500", "125944.337500", "125944.797500", "125945.257500", "125945.717500", "125946.177500", "125946.637500", "125947.097500", "125947.557500", "125948.017500", "125948.477500", "125948.937500", "125949.397500", "125949.857500", "125950.317500", "125950.777500", "125951.237500", "125951.697500", "125952.157500", "125952.617500", "125953.077500", "125953.537500", "125953.997500", "125954.457500", "125954.917500", "125955.377500", "125955.837500", "125956.297500", "125956.757500", "125957.217500", "125957.677500", "125958.137500", "125958.597500", "125959.057500", "125959.517500", "125959.977500", "130000.437500", "130000.897500", "130001.357500", "130001.817500", "130002.277500", "130002.737500", "130003.197500", "130003.657500", "130004.117500", "130004.577500", "130005.037500", "130005.497500", "130005.957500", "130006.417500", "130006.877500", "130007.337500", "130007.797500", "130008.257500", "130008.717500", "130009.177500", "130009.637500", "130010.097500", "130010.557500", "130011.017500", "130011.477500", "130011.937500", "130012.397500", "130012.857500", "130013.317500", "130013.777500", "130014.237500", "130014.697500", "130015.157500", "130015.617500", "130016.077500", "130016.537500", "130016.997500", "130017.457500", "130017.917500", "130018.377500", "130018.837500", "130019.297500", "130019.757500", "130020.217500", "130020.677500", "130021.137500", "130021.597500", "130022.057500", "130022.517500", "130022.977500", "130023.437500", "130023.897500", "130024.357500", "130024.817500", "130025.277500", "130025.737500", "130026.197500", "130026.657500", "130027.117500", "130027.577500", "130028.037500", "130028.497500", "130028.957500", "130029.417500", "130029.877500", "130030.337500", "130030.797500", "130031.257500", "130031.717500", "130032.177500", "130032.637500", "130033.097500", "130033.557500", "130034.017500", "130034.477500", "130034.937500", "130035.397500", "130035.857500", "130036.317500", "130036.777500", "130037.237500", "130037.697500", "130038.157500", "130038.617500", "130039.077500", "130039.537500", "130039.997500", "130040.457500", "130040.917500", "130041.377500", "130041.837500", "130042.297500", "130042.757500", "130043.217500", "130043.677500", "130044.137500", "130044.597500", "130045.057500", "130045.517500", "130045.977500", "130046.437500", "130046.897500", "130047.357500", "130047.817500", "130048.277500", "130048.737500", "130049.197500", "130049.657500", "130050.117500", "130050.577500", "130051.037500", "130051.497500", "130051.957500", "130052.417500", "130052.877500", "130053.337500", "130053.797500", "130054.257500", "130054.717500", "130055.177500", "130055.637500", "130056.097500", "130056.557500", "130057.017500", "130057.477500", "130057.937500", "130058.397500", "130058.857500", "130059.317500", "130059.777500", "130100.237500", "130100.697500", "130101.157500", "130101.617500", "130102.077500", "130102.537500", "130102.997500", "130103.457500", "130103.917500", "130104.377500", "130104.837500", "130105.297500", "130105.757500", "130106.217500", "130106.677500", "130107.137500", "130107.597500", "130108.057500", "130108.517500", "130108.977500", "130109.437500", "130109.897500", "130110.357500", "130110.817500", "130111.277500", "130111.737500", "130112.197500", "130112.657500", "130113.117500", "130113.577500", "130114.037500", "130114.497500", "130114.957500", "130115.417500", "130115.877500", "130116.337500", "130116.797500", "130117.257500", "130117.717500", "130118.177500", "130118.637500", "130119.097500", "130119.557500", "130120.017500", "130120.477500", "130120.937500", "130121.397500", "130121.857500", "130122.317500", "130122.777500", "130123.237500", "130123.697500", "130124.157500", "130124.617500", "130125.077500", "130125.537500", "130125.997500", "130126.457500", "130126.917500", "130127.377500", "130127.837500", "130128.297500", "130128.757500", "130129.217500", "130129.677500", "130130.137500", "130130.597500", "130131.057500", "130131.517500", "130131.977500", "130132.437500", "130132.897500", "130133.357500", "130133.817500", "130134.277500", "130134.737500", "130135.197500", "130135.657500", "130136.117500", "130136.577500", "130137.037500", "130137.497500", "130137.957500", "130138.417500", "130138.877500", "130139.337500", "130139.797500", "130140.257500", "130140.717500", "130141.177500", "130141.637500", "130142.097500", "130142.557500", "130143.017500", "130143.477500", "130143.937500", "130144.397500", "130144.857500", "130145.317500", "130145.777500", "130146.237500", "130146.697500", "130147.157500", "130147.617500", "130148.077500", "130148.537500", "130148.997500", "130149.457500", "130149.917500", "130150.377500", "130150.837500", "130151.297500", "130151.757500", "130152.217500", "130152.677500"],
