{
  "AcquisitionMatrixPE": 82,
  "AcquisitionNumber": 1,
  "AcquisitionTime": "12:48:12.302500",
  "BandwidthPerPixelPhaseEncode": 24.888,
  "BaseResolution": 82,
  "BodyPartExamined": "BRAIN",
  "ConsistencyInfo": "N4_VE11C_LATEST_20160120",
  "ConversionSoftware": "dcm2niix",
  "ConversionSoftwareVersion": "v1.0.20201102",
  "DerivedVendorReportedEchoSpacing": 0.00049,
  "DeviceSerialNumber": "66112",
  "DwellTime": 2e-06,
  "EchoTime": 0.0272,
  "EchoTrainLength": 82,
  "EffectiveEchoSpacing": 0.00049,
  "FlipAngle": 44,
  "ImageComments": "Unaliased MB8/PE3",
  "ImageOrientationPatientDICOM": [0.999661, 0.0220967, 0.0138045, -0.0225109, 0.999278, 0.0306117],
  "ImageType": [
    "ORIGINAL",
    "PRIMARY",
    "M",
    "MB",
    "ND",
    "NORM",
    "MOSAIC"
],
  "ImagingFrequency": 123.252,
  "InPlanePhaseEncodingDirectionDICOM": "COL",
  "InstitutionAddress": "Maynard 3,Hanover,NH,US,03755",
  "InstitutionName": "Dartmouth College - PBS",
  "InstitutionalDepartmentName": "Department",
  "MRAcquisitionType": "2D",
  "MagneticFieldStrength": 3,
  "Manufacturer": "Siemens",
  "ManufacturersModelName": "Prisma",
  "Modality": "MR",
  "MultibandAccelerationFactor": 8,
  "PartialFourier": 1,
  "PatientPosition": "HFS",
  "PercentPhaseFOV": 100,
  "PercentSampling": 100,
  "PhaseEncodingDirection": "j-",
  "PhaseEncodingSteps": 82,
  "PhaseResolution": 1,
  "PixelBandwidth": 3050,
  "ProcedureStepDescription": "Wager_Wager^1076_spacetop",
  "ProtocolName": "func_run-03_task-social_acq-ap-mb8",
  "PulseSequenceDetails": "%CustomerSeq%\\cmrr_mbep2d_bold",
  "ReceiveCoilActiveElements": "HEA;HEP",
  "ReceiveCoilName": "Head_32",
  "ReconMatrixPE": 82,
  "RepetitionTime": 0.46,
  "SAR": 0.0947843,
  "ScanOptions": "FS",
  "ScanningSequence": "EP",
  "SequenceName": "epfid2d1_82",
  "SequenceVariant": "SK\\SS",
  "SeriesDescription": "func_run-03_task-social_acq-ap-mb8",
  "SeriesNumber": 12,
  "ShimSetting": [4162, -7727, -7245, 608, -38, -95, 115, 54],
  "SliceThickness": 2.7,
  "SliceTiming": [0, 0.25, 0.0625, 0.3125, 0.125, 0.3775, 0.1875, 0, 0.25, 0.0625, 0.3125, 0.125, 0.3775, 0.1875, 0, 0.25, 0.0625, 0.3125, 0.125, 0.3775, 0.1875, 0, 0.25, 0.0625, 0.3125, 0.125, 0.3775, 0.1875, 0, 0.25, 0.0625, 0.3125, 0.125, 0.3775, 0.1875, 0, 0.25, 0.0625, 0.3125, 0.125, 0.3775, 0.1875, 0, 0.25, 0.0625, 0.3125, 0.125, 0.3775, 0.1875, 0, 0.25, 0.0625, 0.3125, 0.125, 0.3775, 0.1875],
  "SoftwareVersions": "syngo MR E11",
  "SpacingBetweenSlices": 2.7,
  "StationName": "AWP66112",
  "TaskName": "social",
  "TotalReadoutTime": 0.03969,
  "TxRefAmp": 242.109,
  "WipMemBlock": "dc7a3e6f-f6d0-467a-8c20-793d1b4902ba||Sequence: R016 ve11c/master r/e634e98; Dec 19 2017 11:00:25 by eja",
  "dcmmeta_affine": [
    [-2.682016134262085, -0.060395170003175735, 0.03541898727416992, 116.84759521484375],
    [-0.05928372964262962, 2.6809892654418945, 0.08346246927976608, -85.62066650390625],
    [0.03703653812408447, -0.0821288600564003, 2.698477268218994, -38.0308837890625],
    [0.0, 0.0, 0.0, 1.0]
],
  "dcmmeta_reorient_transform": [
    [0.0, -1.0, 0.0, 81.0],
    [1.0, 0.0, 0.0, 0.0],
    [0.0, 0.0, 1.0, 0.0],
    [0.0, 0.0, 0.0, 1.0]
],
  "dcmmeta_shape": [82, 82, 56, 872],
  "dcmmeta_slice_dim": 2,
  "dcmmeta_version": 0.6,
  "global": {
    "const": {
      "AccessionNumber": "A003477",
      "AcquisitionMatrix": [82, 0, 0, 82],
      "AngioFlag": "N",
      "BitsAllocated": 16,
      "BitsStored": 16,
      "BodyPartExamined": "BRAIN",
      "Columns": 656,
      "EchoNumbers": 1,
      "EchoTime": 27.2,
      "EchoTrainLength": 82,
      "FlipAngle": 44.0,
      "HighBit": 15,
      "ImageOrientationPatient": [0.99966052864604, 0.02209666199279, 0.01380452809383, -0.0225109258827, 0.99927783132013, 0.03061166522817],
      "ImagePositionPatient": [-864.36079525033, -917.99784802085, -78.883789812577],
      "ImageType": [
        "ORIGINAL",
        "PRIMARY",
        "M",
        "MB",
        "ND",
        "NORM",
        "MOSAIC"
],
      "ImagedNucleus": "1H",
      "ImagingFrequency": 123.252105,
      "InPlanePhaseEncodingDirection": "COL",
      "MRAcquisitionType": "2D",
      "MagneticFieldStrength": 3.0,
      "Manufacturer": "SIEMENS",
      "ManufacturerModelName": "Prisma",
      "Modality": "MR",
      "NumberOfAverages": 1.0,
      "NumberOfPhaseEncodingSteps": 82,
      "PercentPhaseFieldOfView": 100.0,
      "PercentSampling": 100.0,
      "PerformedProcedureStepStartTime": "115233.178000",
      "PhotometricInterpretation": "MONOCHROME2",
      "PixelBandwidth": 3050.0,
      "PixelRepresentation": 0,
      "PixelSpacing": [2.6829268932343, 2.6829268932343],
      "ProtocolName": "func_run-03_task-social_acq-ap-mb8",
      "RepetitionTime": 460.0,
      "Rows": 656,
      "SAR": 0.09478434094173,
      "SamplesPerPixel": 1,
      "ScanOptions": "FS",
      "ScanningSequence": "EP",
      "SequenceName": "epfid2d1_82",
      "SequenceVariant": [
        "SK",
        "SS"
],
      "SeriesDescription": "func_run-03_task-social_acq-ap-mb8",
      "SeriesNumber": 12,
      "SeriesTime": "124825.284000",
      "SliceLocation": -39.123318805072,
      "SliceThickness": 2.7000000476837,
      "SmallestImagePixelValue": 0,
      "SoftwareVersions": "syngo MR E11",
      "SpacingBetweenSlices": 2.6999999145305,
      "SpecificCharacterSet": "ISO_IR 100",
      "StudyID": "1",
      "StudyTime": "115233.050000",
      "TransmitCoilName": "Body",
      "VariableFlipAngleFlag": "N",
      "WindowCenterWidthExplanation": "Algo1",
      "dBdt": 0.0},
    "slices": {}
  },
  "time": {
    "samples": {
      "AcquisitionNumber": [1, 2, 3, 4, 5, 6, 7, 8, 9, 10, 11, 12, 13, 14, 15, 16, 17, 18, 19, 20, 21, 22, 23, 24, 25, 26, 27, 28, 29, 30, 31, 32, 33, 34, 35, 36, 37, 38, 39, 40, 41, 42, 43, 44, 45, 46, 47, 48, 49, 50, 51, 52, 53, 54, 55, 56, 57, 58, 59, 60, 61, 62, 63, 64, 65, 66, 67, 68, 69, 70, 71, 72, 73, 74, 75, 76, 77, 78, 79, 80, 81, 82, 83, 84, 85, 86, 87, 88, 89, 90, 91, 92, 93, 94, 95, 96, 97, 98, 99, 100, 101, 102, 103, 104, 105, 106, 107, 108, 109, 110, 111, 112, 113, 114, 115, 116, 117, 118, 119, 120, 121, 122, 123, 124, 125, 126, 127, 128, 129, 130, 131, 132, 133, 134, 135, 136, 137, 138, 139, 140, 141, 142, 143, 144, 145, 146, 147, 148, 149, 150, 151, 152, 153, 154, 155, 156, 157, 158, 159, 160, 161, 162, 163, 164, 165, 166, 167, 168, 169, 170, 171, 172, 173, 174, 175, 176, 177, 178, 179, 180, 181, 182, 183, 184, 185, 186, 187, 188, 189, 190, 191, 192, 193, 194, 195, 196, 197, 198, 199, 200, 201, 202, 203, 204, 205, 206, 207, 208, 209, 210, 211, 212, 213, 214, 215, 216, 217, 218, 219, 220, 221, 222, 223, 224, 225, 226, 227, 228, 229, 230, 231, 232, 233, 234, 235, 236, 237, 238, 239, 240, 241, 242, 243, 244, 245, 246, 247, 248, 249, 250, 251, 252, 253, 254, 255, 256, 257, 258, 259, 260, 261, 262, 263, 264, 265, 266, 267, 268, 269, 270, 271, 272, 273, 274, 275, 276, 277, 278, 279, 280, 281, 282, 283, 284, 285, 286, 287, 288, 289, 290, 291, 292, 293, 294, 295, 296, 297, 298, 299, 300, 301, 302, 303, 304, 305, 306, 307, 308, 309, 310, 311, 312, 313, 314, 315, 316, 317, 318, 319, 320, 321, 322, 323, 324, 325, 326, 327, 328, 329, 330, 331, 332, 333, 334, 335, 336, 337, 338, 339, 340, 341, 342, 343, 344, 345, 346, 347, 348, 349, 350, 351, 352, 353, 354, 355, 356, 357, 358, 359, 360, 361, 362, 363, 364, 365, 366, 367, 368, 369, 370, 371, 372, 373, 374, 375, 376, 377, 378, 379, 380, 381, 382, 383, 384, 385, 386, 387, 388, 389, 390, 391, 392, 393, 394, 395, 396, 397, 398, 399, 400, 401, 402, 403, 404, 405, 406, 407, 408, 409, 410, 411, 412, 413, 414, 415, 416, 417, 418, 419, 420, 421, 422, 423, 424, 425, 426, 427, 428, 429, 430, 431, 432, 433, 434, 435, 436, 437, 438, 439, 440, 441, 442, 443, 444, 445, 446, 447, 448, 449, 450, 451, 452, 453, 454, 455, 456, 457, 458, 459, 460, 461, 462, 463, 464, 465, 466, 467, 468, 469, 470, 471, 472, 473, 474, 475, 476, 477, 478, 479, 480, 481, 482, 483, 484, 485, 486, 487, 488, 489, 490, 491, 492, 493, 494, 495, 496, 497, 498, 499, 500, 501, 502, 503, 504, 505, 506, 507, 508, 509, 510, 511, 512, 513, 514, 515, 516, 517, 518, 519, 520, 521, 522, 523, 524, 525, 526, 527, 528, 529, 530, 531, 532, 533, 534, 535, 536, 537, 538, 539, 540, 541, 542, 543, 544, 545, 546, 547, 548, 549, 550, 551, 552, 553, 554, 555, 556, 557, 558, 559, 560, 561, 562, 563, 564, 565, 566, 567, 568, 569, 570, 571, 572, 573, 574, 575, 576, 577, 578, 579, 580, 581, 582, 583, 584, 585, 586, 587, 588, 589, 590, 591, 592, 593, 594, 595, 596, 597, 598, 599, 600, 601, 602, 603, 604, 605, 606, 607, 608, 609, 610, 611, 612, 613, 614, 615, 616, 617, 618, 619, 620, 621, 622, 623, 624, 625, 626, 627, 628, 629, 630, 631, 632, 633, 634, 635, 636, 637, 638, 639, 640, 641, 642, 643, 644, 645, 646, 647, 648, 649, 650, 651, 652, 653, 654, 655, 656, 657, 658, 659, 660, 661, 662, 663, 664, 665, 666, 667, 668, 669, 670, 671, 672, 673, 674, 675, 676, 677, 678, 679, 680, 681, 682, 683, 684, 685, 686, 687, 688, 689, 690, 691, 692, 693, 694, 695, 696, 697, 698, 699, 700, 701, 702, 703, 704, 705, 706, 707, 708, 709, 710, 711, 712, 713, 714, 715, 716, 717, 718, 719, 720, 721, 722, 723, 724, 725, 726, 727, 728, 729, 730, 731, 732, 733, 734, 735, 736, 737, 738, 739, 740, 741, 742, 743, 744, 745, 746, 747, 748, 749, 750, 751, 752, 753, 754, 755, 756, 757, 758, 759, 760, 761, 762, 763, 764, 765, 766, 767, 768, 769, 770, 771, 772, 773, 774, 775, 776, 777, 778, 779, 780, 781, 782, 783, 784, 785, 786, 787, 788, 789, 790, 791, 792, 793, 794, 795, 796, 797, 798, 799, 800, 801, 802, 803, 804, 805, 806, 807, 808, 809, 810, 811, 812, 813, 814, 815, 816, 817, 818, 819, 820, 821, 822, 823, 824, 825, 826, 827, 828, 829, 830, 831, 832, 833, 834, 835, 836, 837, 838, 839, 840, 841, 842, 843, 844, 845, 846, 847, 848, 849, 850, 851, 852, 853, 854, 855, 856, 857, 858, 859, 860, 861, 862, 863, 864, 865, 866, 867, 868, 869, 870, 871, 872],
      "AcquisitionTime": ["124812.302500", "124812.762500", "124813.222500", "124813.682500", "124814.142500", "124814.602500", "124815.062500", "124815.522500", "124815.982500", "124816.442500", "124816.902500", "124817.362500", "124817.822500", "124818.282500", "124818.742500", "124819.202500", "124819.662500", "124820.122500", "124820.582500", "124821.042500", "124821.502500", "124821.962500", "124822.422500", "124822.882500", "124823.342500", "124823.802500", "124824.262500", "124824.722500", "124825.182500", "124825.642500", "124826.102500", "124826.562500", "124827.022500", "124827.482500", "124827.942500", "124828.402500", "124828.862500", "124829.322500", "124829.782500", "124830.242500", "124830.702500", "124831.162500", "124831.622500", "124832.082500", "124832.542500", "124833.002500", "124833.462500", "124833.922500", "124834.382500", "124834.842500", "124835.302500", "124835.762500", "124836.222500", "124836.682500", "124837.142500", "124837.602500", "124838.062500", "124838.522500", "124838.982500", "124839.442500", "124839.902500", "124840.362500", "124840.822500", "124841.282500", "124841.742500", "124842.202500", "124842.662500", "124843.122500", "124843.582500", "124844.042500", "124844.502500", "124844.962500", "124845.422500", "124845.882500", "124846.342500", "124846.802500", "124847.262500", "124847.722500", "124848.182500", "124848.642500", "124849.102500", "124849.562500", "124850.022500", "124850.482500", "124850.942500", "124851.402500", "124851.862500", "124852.322500", "124852.782500", "124853.242500", "124853.702500", "124854.162500", "124854.622500", "124855.082500", "124855.542500", "124856.002500", "124856.462500", "124856.922500", "124857.382500", "124857.842500", "124858.302500", "124858.762500", "124859.222500", "124859.682500", "124900.142500", "124900.602500", "124901.062500", "124901.522500", "124901.982500", "124902.442500", "124902.902500", "124903.362500", "124903.822500", "124904.282500", "124904.742500", "124905.202500", "124905.662500", "124906.122500", "124906.582500", "124907.042500", "124907.502500", "124907.962500", "124908.422500", "124908.882500", "124909.342500", "124909.802500", "124910.262500", "124910.722500", "124911.182500", "124911.642500", "124912.102500", "124912.562500", "124913.022500", "124913.482500", "124913.942500", "124914.402500", "124914.862500", "124915.322500", "124915.782500", "124916.242500", "124916.702500", "124917.162500", "124917.622500", "124918.082500", "124918.542500", "124919.002500", "124919.462500", "124919.922500", "124920.382500", "124920.842500", "124921.302500", "124921.762500", "124922.222500", "124922.682500", "124923.142500", "124923.602500", "124924.062500", "124924.522500", "124924.982500", "124925.442500", "124925.902500", "124926.362500", "124926.822500", "124927.282500", "124927.742500", "124928.202500", "124928.662500", "124929.122500", "124929.582500", "124930.042500", "124930.502500", "124930.962500", "124931.422500", "124931.882500", "124932.342500", "124932.802500", "124933.262500", "124933.722500", "124934.182500", "124934.642500", "124935.102500", "124935.562500", "124936.022500", "124936.482500", "124936.942500", "124937.402500", "124937.862500", "124938.322500", "124938.782500", "124939.242500", "124939.702500", "124940.162500", "124940.622500", "124941.082500", "124941.542500", "124942.002500", "124942.462500", "124942.922500", "124943.382500", "124943.842500", "124944.302500", "124944.762500", "124945.222500", "124945.682500", "124946.142500", "124946.602500", "124947.062500", "124947.522500", "124947.982500", "124948.442500", "124948.902500", "124949.362500", "124949.822500", "124950.282500", "124950.742500", "124951.202500", "124951.662500", "124952.122500", "124952.582500", "124953.042500", "124953.502500", "124953.962500", "124954.422500", "124954.882500", "124955.342500", "124955.802500", "124956.262500", "124956.722500", "124957.182500", "124957.642500", "124958.102500", "124958.562500", "124959.022500", "124959.482500", "124959.942500", "125000.402500", "125000.862500", "125001.322500", "125001.782500", "125002.242500", "125002.702500", "125003.162500", "125003.622500", "125004.082500", "125004.542500", "125005.002500", "125005.462500", "125005.922500", "125006.382500", "125006.842500", "125007.302500", "125007.762500", "125008.222500", "125008.682500", "125009.142500", "125009.602500", "125010.062500", "125010.522500", "125010.982500", "125011.442500", "125011.902500", "125012.362500", "125012.822500", "125013.282500", "125013.742500", "125014.202500", "125014.662500", "125015.122500", "125015.582500", "125016.042500", "125016.502500", "125016.962500", "125017.422500", "125017.882500", "125018.342500", "125018.802500", "125019.262500", "125019.722500", "125020.182500", "125020.642500", "125021.102500", "125021.562500", "125022.022500", "125022.482500", "125022.942500", "125023.402500", "125023.862500", "125024.322500", "125024.782500", "125025.242500", "125025.702500", "125026.162500", "125026.622500", "125027.082500", "125027.542500", "125028.002500", "125028.462500", "125028.922500", "125029.382500", "125029.842500", "125030.302500", "125030.762500", "125031.222500", "125031.682500", "125032.142500", "125032.602500", "125033.062500", "125033.522500", "125033.982500", "125034.442500", "125034.902500", "125035.362500", "125035.822500", "125036.282500", "125036.742500", "125037.202500", "125037.662500", "125038.122500", "125038.582500", "125039.042500", "125039.502500", "125039.962500", "125040.422500", "125040.882500", "125041.342500", "125041.802500", "125042.262500", "125042.722500", "125043.182500", "125043.642500", "125044.102500", "125044.562500", "125045.022500", "125045.482500", "125045.942500", "125046.402500", "125046.862500", "125047.322500", "125047.782500", "125048.242500", "125048.702500", "125049.162500", "125049.622500", "125050.082500", "125050.542500", "125051.002500", "125051.462500", "125051.922500", "125052.382500", "125052.842500", "125053.302500", "125053.762500", "125054.222500", "125054.682500", "125055.142500", "125055.602500", "125056.062500", "125056.522500", "125056.982500", "125057.442500", "125057.902500", "125058.362500", "125058.822500", "125059.282500", "125059.742500", "125100.202500", "125100.662500", "125101.122500", "125101.582500", "125102.042500", "125102.502500", "125102.962500", "125103.422500", "125103.882500", "125104.342500", "125104.802500", "125105.262500", "125105.722500", "125106.182500", "125106.642500", "125107.102500", "125107.562500", "125108.022500", "125108.482500", "125108.942500", "125109.402500", "125109.862500", "125110.322500", "125110.782500", "125111.242500", "125111.702500", "125112.162500", "125112.622500", "125113.082500", "125113.542500", "125114.002500", "125114.462500", "125114.922500", "125115.382500", "125115.842500", "125116.302500", "125116.762500", "125117.222500", "125117.682500", "125118.142500", "125118.602500", "125119.062500", "125119.522500", "125119.982500", "125120.442500", "125120.902500", "125121.362500", "125121.822500", "125122.282500", "125122.742500", "125123.202500", "125123.662500", "125124.122500", "125124.582500", "125125.042500", "125125.502500", "125125.962500", "125126.422500", "125126.882500", "125127.342500", "125127.802500", "125128.262500", "125128.722500", "125129.182500", "125129.642500", "125130.102500", "125130.562500", "125131.022500", "125131.482500", "125131.942500", "125132.402500", "125132.862500", "125133.322500", "125133.782500", "125134.242500", "125134.702500", "125135.162500", "125135.622500", "125136.082500", "125136.542500", "125137.002500", "125137.462500", "125137.922500", "125138.382500", "125138.842500", "125139.302500", "125139.762500", "125140.222500", "125140.682500", "125141.142500", "125141.602500", "125142.062500", "125142.522500", "125142.982500", "125143.442500", "125143.902500", "125144.362500", "125144.822500", "125145.282500", "125145.742500", "125146.202500", "125146.662500", "125147.122500", "125147.582500", "125148.042500", "125148.502500", "125148.962500", "125149.422500", "125149.882500", "125150.342500", "125150.802500", "125151.262500", "125151.722500", "125152.182500", "125152.642500", "125153.102500", "125153.562500", "125154.022500", "125154.482500", "125154.942500", "125155.402500", "125155.862500", "125156.322500", "125156.782500", "125157.242500", "125157.702500", "125158.162500", "125158.622500", "125159.082500", "125159.542500", "125200.002500", "125200.462500", "125200.922500", "125201.382500", "125201.842500", "125202.302500", "125202.762500", "125203.222500", "125203.682500", "125204.142500", "125204.602500", "125205.062500", "125205.522500", "125205.982500", "125206.442500", "125206.902500", "125207.362500", "125207.822500", "125208.282500", "125208.742500", "125209.202500", "125209.662500", "125210.122500", "125210.582500", "125211.042500", "125211.502500", "125211.962500", "125212.422500", "125212.882500", "125213.342500", "125213.802500", "125214.262500", "125214.722500", "125215.182500", "125215.642500", "125216.102500", "125216.562500", "125217.022500", "125217.482500", "125217.942500", "125218.402500", "125218.862500", "125219.322500", "125219.782500", "125220.242500", "125220.702500", "125221.162500", "125221.622500", "125222.082500", "125222.542500", "125223.002500", "125223.462500", "125223.922500", "125224.382500", "125224.842500", "125225.302500", "125225.762500", "125226.222500", "125226.682500", "125227.142500", "125227.602500", "125228.062500", "125228.522500", "125228.982500", "125229.442500", "125229.902500", "125230.362500", "125230.822500", "125231.282500", "125231.742500", "125232.202500", "125232.662500", "125233.122500", "125233.582500", "125234.042500", "125234.502500", "125234.962500", "125235.422500", "125235.882500", "125236.342500", "125236.802500", "125237.262500", "125237.722500", "125238.182500", "125238.642500", "125239.102500", "125239.562500", "125240.022500", "125240.482500", "125240.942500", "125241.402500", "125241.862500", "125242.322500", "125242.782500", "125243.242500", "125243.702500", "125244.162500", "125244.622500", "125245.082500", "125245.542500", "125246.002500", "125246.462500", "125246.922500", "125247.382500", "125247.842500", "125248.302500", "125248.762500", "125249.222500", "125249.682500", "125250.142500", "125250.602500", "125251.062500", "125251.522500", "125251.982500", "125252.442500", "125252.902500", "125253.362500", "125253.822500", "125254.282500", "125254.742500", "125255.202500", "125255.662500", "125256.122500", "125256.582500", "125257.042500", "125257.502500", "125257.962500", "125258.422500", "125258.882500", "125259.342500", "125259.802500", "125300.262500", "125300.722500", "125301.182500", "125301.642500", "125302.102500", "125302.562500", "125303.022500", "125303.482500", "125303.942500", "125304.402500", "125304.862500", "125305.322500", "125305.782500", "125306.242500", "125306.702500", "125307.162500", "125307.622500", "125308.082500", "125308.542500", "125309.002500", "125309.462500", "125309.922500", "125310.382500", "125310.842500", "125311.302500", "125311.762500", "125312.222500", "125312.682500", "125313.142500", "125313.602500", "125314.062500", "125314.522500", "125314.982500", "125315.442500", "125315.902500", "125316.362500", "125316.822500", "125317.282500", "125317.742500", "125318.202500", "125318.662500", "125319.122500", "125319.582500", "125320.042500", "125320.502500", "125320.962500", "125321.422500", "125321.882500", "125322.342500", "125322.802500", "125323.262500", "125323.722500", "125324.182500", "125324.642500", "125325.102500", "125325.562500", "125326.022500", "125326.482500", "125326.942500", "125327.402500", "125327.862500", "125328.322500", "125328.782500", "125329.242500", "125329.702500", "125330.162500", "125330.622500", "125331.082500", "125331.542500", "125332.002500", "125332.462500", "125332.922500", "125333.382500", "125333.842500", "125334.302500", "125334.762500", "125335.222500", "125335.682500", "125336.142500", "125336.602500", "125337.062500", "125337.522500", "125337.982500", "125338.442500", "125338.902500", "125339.362500", "125339.822500", "125340.282500", "125340.742500", "125341.202500", "125341.662500", "125342.122500", "125342.582500", "125343.042500", "125343.502500", "125343.962500", "125344.422500", "125344.882500", "125345.342500", "125345.802500", "125346.262500", "125346.722500", "125347.182500", "125347.642500", "125348.102500", "125348.562500", "125349.022500", "125349.482500", "125349.942500", "125350.402500", "125350.862500", "125351.322500", "125351.782500", "125352.242500", "125352.702500", "125353.162500", "125353.622500", "125354.082500", "125354.542500", "125355.002500", "125355.462500", "125355.922500", "125356.382500", "125356.842500", "125357.302500", "125357.762500", "125358.222500", "125358.682500", "125359.142500", "125359.602500", "125400.062500", "125400.522500", "125400.982500", "125401.442500", "125401.902500", "125402.362500", "125402.822500", "125403.282500", "125403.742500", "125404.202500", "125404.662500", "125405.122500", "125405.582500", "125406.042500", "125406.502500", "125406.962500", "125407.422500", "125407.882500", "125408.342500", "125408.802500", "125409.262500", "125409.722500", "125410.182500", "125410.642500", "125411.102500", "125411.562500", "125412.022500", "125412.482500", "125412.942500", "125413.402500", "125413.862500", "125414.322500", "125414.782500", "125415.242500", "125415.702500", "125416.162500", "125416.622500", "125417.082500", "125417.542500", "125418.002500", "125418.462500", "125418.922500", "125419.382500", "125419.842500", "125420.302500", "125420.762500", "125421.222500", "125421.682500", "125422.142500", "125422.602500", "125423.062500", "125423.522500", "125423.982500", "125424.442500", "125424.902500", "125425.362500", "125425.822500", "125426.282500", "125426.742500", "125427.202500", "125427.662500", "125428.122500", "125428.582500", "125429.042500", "125429.502500", "125429.962500", "125430.422500", "125430.882500", "125431.342500", "125431.802500", "125432.262500", "125432.722500", "125433.182500", "125433.642500", "125434.102500", "125434.562500", "125435.022500", "125435.482500", "125435.942500", "125436.402500", "125436.862500", "125437.322500", "125437.782500", "125438.242500", "125438.702500", "125439.162500", "125439.622500", "125440.082500", "125440.542500", "125441.002500", "125441.462500", "125441.922500", "125442.382500", "125442.842500", "125443.302500", "125443.762500", "125444.222500", "125444.682500", "125445.142500", "125445.602500", "125446.062500", "125446.522500", "125446.982500", "125447.442500", "125447.902500", "125448.362500", "125448.822500", "125449.282500", "125449.742500", "125450.202500", "125450.662500", "125451.122500", "125451.582500", "125452.042500", "125452.502500", "125452.962500"],
