{
  "AcquisitionMatrixPE": 82,
  "AcquisitionNumber": 1,
  "AcquisitionTime": "22:46:42.580000",
  "BandwidthPerPixelPhaseEncode": 24.888,
  "BaseResolution": 82,
  "BodyPartExamined": "BRAIN",
  "ConsistencyInfo": "N4_VE11E_LATEST_20181129",
  "ConversionSoftware": "dcm2niix",
  "ConversionSoftwareVersion": "v1.0.20201102",
  "DerivedVendorReportedEchoSpacing": 0.00049,
  "DeviceSerialNumber": "66112",
  "DwellTime": 2e-06,
  "EchoTime": 0.0272,
  "EchoTrainLength": 82,
  "EffectiveEchoSpacing": 0.00049,
  "FlipAngle": 44,
  "ImageComments": "Unaliased MB8/PE3",
  "ImageOrientationPatientDICOM": [0.99983, 0.0177235, 0.00513767, -0.0174521, 0.998657, -0.048786],
  "ImageType": [
    "ORIGINAL",
    "PRIMARY",
    "M",
    "MB",
    "ND",
    "NORM",
    "MOSAIC"
],
  "ImagingFrequency": 123.259,
  "InPlanePhaseEncodingDirectionDICOM": "COL",
  "InstitutionAddress": "Maynard 3,Hanover,NH,US,03755",
  "InstitutionName": "Dartmouth College - PBS",
  "InstitutionalDepartmentName": "Department",
  "MRAcquisitionType": "2D",
  "MagneticFieldStrength": 3,
  "Manufacturer": "Siemens",
  "ManufacturersModelName": "Prisma",
  "Modality": "MR",
  "MultibandAccelerationFactor": 8,
  "PartialFourier": 1,
  "PatientPosition": "HFS",
  "PercentPhaseFOV": 100,
  "PercentSampling": 100,
  "PhaseEncodingDirection": "j-",
  "PhaseEncodingSteps": 82,
  "PhaseResolution": 1,
  "PixelBandwidth": 3050,
  "ProcedureStepDescription": "Wager_Wager^1076_spacetop",
  "ProtocolName": "func_run-01_task-alignvideo_acq-ap-mb8",
  "PulseSequenceDetails": "%CustomerSeq%\\cmrr_mbep2d_bold",
  "ReceiveCoilActiveElements": "HEA;HEP",
  "ReceiveCoilName": "Head_32",
  "ReconMatrixPE": 82,
  "RepetitionTime": 0.46,
  "SAR": 0.0898361,
  "ScanOptions": "FS",
  "ScanningSequence": "EP",
  "SequenceName": "epfid2d1_82",
  "SequenceVariant": "SK\\SS",
  "SeriesDescription": "func_run-01_task-alignvideo_acq-ap-mb8",
  "SeriesNumber": 28,
  "ShimSetting": [4220, -7745, -7268, 236, -148, -66, -74, 55],
  "SliceThickness": 2.7,
  "SliceTiming": [0, 0.25, 0.0625, 0.3125, 0.125, 0.375, 0.1875, 0, 0.25, 0.0625, 0.3125, 0.125, 0.375, 0.1875, 0, 0.25, 0.0625, 0.3125, 0.125, 0.375, 0.1875, 0, 0.25, 0.0625, 0.3125, 0.125, 0.375, 0.1875, 0, 0.25, 0.0625, 0.3125, 0.125, 0.375, 0.1875, 0, 0.25, 0.0625, 0.3125, 0.125, 0.375, 0.1875, 0, 0.25, 0.0625, 0.3125, 0.125, 0.375, 0.1875, 0, 0.25, 0.0625, 0.3125, 0.125, 0.375, 0.1875],
  "SoftwareVersions": "syngo MR E11",
  "SpacingBetweenSlices": 2.7,
  "StationName": "AWP66112",
  "TaskName": "alignvideo",
  "TotalReadoutTime": 0.03969,
  "TxRefAmp": 270.639,
  "WipMemBlock": "c714996d-50da-41a0-90fb-38fcdb976c59||Sequence: R016 ve11e/master r/434b28f1; Aug  7 2019 18:53:46 by eja",
  "dcmmeta_affine": [
    [-2.6824700832366943, -0.04682260751724243, 0.016187671571969986, 111.13142395019531],
    [-0.04755097255110741, 2.679323196411133, -0.13145771622657776, -85.54325103759766],
    [0.013784002512693405, 0.13088929653167725, 2.696749210357666, -80.76679229736328],
    [0.0, 0.0, 0.0, 1.0]
],
  "dcmmeta_reorient_transform": [
    [0.0, -1.0, 0.0, 81.0],
    [1.0, 0.0, 0.0, 0.0],
    [0.0, 0.0, 1.0, 0.0],
    [0.0, 0.0, 0.0, 1.0]
],
  "dcmmeta_shape": [82, 82, 56, 839],
  "dcmmeta_slice_dim": 2,
  "dcmmeta_version": 0.6,
  "global": {
    "const": {
      "AccessionNumber": "A004416",
      "AcquisitionMatrix": [82, 0, 0, 82],
      "AngioFlag": "N",
      "BitsAllocated": 16,
      "BitsStored": 16,
      "BodyPartExamined": "BRAIN",
      "Columns": 656,
      "EchoNumbers": 1,
      "EchoTime": 27.2,
      "EchoTrainLength": 82,
      "FlipAngle": 44.0,
      "HighBit": 15,
      "ImageOrientationPatient": [0.99982972565849, 0.0177235436297, 0.00513767368278, -0.01745206193, 0.99865677324805, -0.0487860100868],
      "ImagePositionPatient": [-863.76960920044, -914.09478631279, -36.555542760605],
      "ImageType": [
        "ORIGINAL",
        "PRIMARY",
        "M",
        "MB",
        "ND",
        "NORM",
        "MOSAIC"
],
      "ImagedNucleus": "1H",
      "ImagingFrequency": 123.259128,
      "InPlanePhaseEncodingDirection": "COL",
      "MRAcquisitionType": "2D",
      "MagneticFieldStrength": 3.0,
      "Manufacturer": "SIEMENS",
      "ManufacturerModelName": "Prisma",
      "Modality": "MR",
      "NumberOfAverages": 1.0,
      "NumberOfPhaseEncodingSteps": 82,
      "PercentPhaseFieldOfView": 100.0,
      "PercentSampling": 100.0,
      "PerformedProcedureStepStartTime": "212421.394000",
      "PhotometricInterpretation": "MONOCHROME2",
      "PixelBandwidth": 3050.0,
      "PixelRepresentation": 0,
      "PixelSpacing": [2.6829268932343, 2.6829268932343],
      "ProtocolName": "func_run-01_task-alignvideo_acq-ap-mb8",
      "RepetitionTime": 460.0,
      "Rows": 656,
      "SAR": 0.08983610143898,
      "SamplesPerPixel": 1,
      "ScanOptions": "FS",
      "ScanningSequence": "EP",
      "SequenceName": "epfid2d1_82",
      "SequenceVariant": [
        "SK",
        "SS"
],
      "SeriesDescription": "func_run-01_task-alignvideo_acq-ap-mb8",
      "SeriesNumber": 28,
      "SeriesTime": "224701.112000",
      "SliceLocation": -75.838341606087,
      "SliceThickness": 2.7000000476837,
      "SmallestImagePixelValue": 0,
      "SoftwareVersions": "syngo MR E11",
      "SpacingBetweenSlices": 2.7000000151505,
      "SpecificCharacterSet": "ISO_IR 100",
      "StudyID": "1",
      "StudyTime": "212421.175000",
      "TransmitCoilName": "Body",
      "VariableFlipAngleFlag": "N",
      "WindowCenterWidthExplanation": "Algo1"
    },
    "slices": {}
  },
  "time": {
    "samples": {
      "AcquisitionNumber": [1, 2, 3, 4, 5, 6, 7, 8, 9, 10, 11, 12, 13, 14, 15, 16, 17, 18, 19, 20, 21, 22, 23, 24, 25, 26, 27, 28, 29, 30, 31, 32, 33, 34, 35, 36, 37, 38, 39, 40, 41, 42, 43, 44, 45, 46, 47, 48, 49, 50, 51, 52, 53, 54, 55, 56, 57, 58, 59, 60, 61, 62, 63, 64, 65, 66, 67, 68, 69, 70, 71, 72, 73, 74, 75, 76, 77, 78, 79, 80, 81, 82, 83, 84, 85, 86, 87, 88, 89, 90, 91, 92, 93, 94, 95, 96, 97, 98, 99, 100, 101, 102, 103, 104, 105, 106, 107, 108, 109, 110, 111, 112, 113, 114, 115, 116, 117, 118, 119, 120, 121, 122, 123, 124, 125, 126, 127, 128, 129, 130, 131, 132, 133, 134, 135, 136, 137, 138, 139, 140, 141, 142, 143, 144, 145, 146, 147, 148, 149, 150, 151, 152, 153, 154, 155, 156, 157, 158, 159, 160, 161, 162, 163, 164, 165, 166, 167, 168, 169, 170, 171, 172, 173, 174, 175, 176, 177, 178, 179, 180, 181, 182, 183, 184, 185, 186, 187, 188, 189, 190, 191, 192, 193, 194, 195, 196, 197, 198, 199, 200, 201, 202, 203, 204, 205, 206, 207, 208, 209, 210, 211, 212, 213, 214, 215, 216, 217, 218, 219, 220, 221, 222, 223, 224, 225, 226, 227, 228, 229, 230, 231, 232, 233, 234, 235, 236, 237, 238, 239, 240, 241, 242, 243, 244, 245, 246, 247, 248, 249, 250, 251, 252, 253, 254, 255, 256, 257, 258, 259, 260, 261, 262, 263, 264, 265, 266, 267, 268, 269, 270, 271, 272, 273, 274, 275, 276, 277, 278, 279, 280, 281, 282, 283, 284, 285, 286, 287, 288, 289, 290, 291, 292, 293, 294, 295, 296, 297, 298, 299, 300, 301, 302, 303, 304, 305, 306, 307, 308, 309, 310, 311, 312, 313, 314, 315, 316, 317, 318, 319, 320, 321, 322, 323, 324, 325, 326, 327, 328, 329, 330, 331, 332, 333, 334, 335, 336, 337, 338, 339, 340, 341, 342, 343, 344, 345, 346, 347, 348, 349, 350, 351, 352, 353, 354, 355, 356, 357, 358, 359, 360, 361, 362, 363, 364, 365, 366, 367, 368, 369, 370, 371, 372, 373, 374, 375, 376, 377, 378, 379, 380, 381, 382, 383, 384, 385, 386, 387, 388, 389, 390, 391, 392, 393, 394, 395, 396, 397, 398, 399, 400, 401, 402, 403, 404, 405, 406, 407, 408, 409, 410, 411, 412, 413, 414, 415, 416, 417, 418, 419, 420, 421, 422, 423, 424, 425, 426, 427, 428, 429, 430, 431, 432, 433, 434, 435, 436, 437, 438, 439, 440, 441, 442, 443, 444, 445, 446, 447, 448, 449, 450, 451, 452, 453, 454, 455, 456, 457, 458, 459, 460, 461, 462, 463, 464, 465, 466, 467, 468, 469, 470, 471, 472, 473, 474, 475, 476, 477, 478, 479, 480, 481, 482, 483, 484, 485, 486, 487, 488, 489, 490, 491, 492, 493, 494, 495, 496, 497, 498, 499, 500, 501, 502, 503, 504, 505, 506, 507, 508, 509, 510, 511, 512, 513, 514, 515, 516, 517, 518, 519, 520, 521, 522, 523, 524, 525, 526, 527, 528, 529, 530, 531, 532, 533, 534, 535, 536, 537, 538, 539, 540, 541, 542, 543, 544, 545, 546, 547, 548, 549, 550, 551, 552, 553, 554, 555, 556, 557, 558, 559, 560, 561, 562, 563, 564, 565, 566, 567, 568, 569, 570, 571, 572, 573, 574, 575, 576, 577, 578, 579, 580, 581, 582, 583, 584, 585, 586, 587, 588, 589, 590, 591, 592, 593, 594, 595, 596, 597, 598, 599, 600, 601, 602, 603, 604, 605, 606, 607, 608, 609, 610, 611, 612, 613, 614, 615, 616, 617, 618, 619, 620, 621, 622, 623, 624, 625, 626, 627, 628, 629, 630, 631, 632, 633, 634, 635, 636, 637, 638, 639, 640, 641, 642, 643, 644, 645, 646, 647, 648, 649, 650, 651, 652, 653, 654, 655, 656, 657, 658, 659, 660, 661, 662, 663, 664, 665, 666, 667, 668, 669, 670, 671, 672, 673, 674, 675, 676, 677, 678, 679, 680, 681, 682, 683, 684, 685, 686, 687, 688, 689, 690, 691, 692, 693, 694, 695, 696, 697, 698, 699, 700, 701, 702, 703, 704, 705, 706, 707, 708, 709, 710, 711, 712, 713, 714, 715, 716, 717, 718, 719, 720, 721, 722, 723, 724, 725, 726, 727, 728, 729, 730, 731, 732, 733, 734, 735, 736, 737, 738, 739, 740, 741, 742, 743, 744, 745, 746, 747, 748, 749, 750, 751, 752, 753, 754, 755, 756, 757, 758, 759, 760, 761, 762, 763, 764, 765, 766, 767, 768, 769, 770, 771, 772, 773, 774, 775, 776, 777, 778, 779, 780, 781, 782, 783, 784, 785, 786, 787, 788, 789, 790, 791, 792, 793, 794, 795, 796, 797, 798, 799, 800, 801, 802, 803, 804, 805, 806, 807, 808, 809, 810, 811, 812, 813, 814, 815, 816, 817, 818, 819, 820, 821, 822, 823, 824, 825, 826, 827, 828, 829, 830, 831, 832, 833, 834, 835, 836, 837, 838, 839],
      "AcquisitionTime": ["224642.580000", "224643.040000", "224643.500000", "224643.960000", "224644.420000", "224644.880000", "224645.340000", "224645.800000", "224646.260000", "224646.720000", "224647.180000", "224647.640000", "224648.100000", "224648.560000", "224649.020000", "224649.480000", "224649.940000", "224650.400000", "224650.860000", "224651.320000", "224651.780000", "224652.240000", "224652.700000", "224653.160000", "224653.620000", "224654.080000", "224654.540000", "224655.000000", "224655.460000", "224655.920000", "224656.380000", "224656.840000", "224657.300000", "224657.760000", "224658.220000", "224658.680000", "224659.140000", "224659.600000", "224700.060000", "224700.520000", "224700.980000", "224701.440000", "224701.900000", "224702.360000", "224702.820000", "224703.280000", "224703.740000", "224704.200000", "224704.660000", "224705.120000", "224705.580000", "224706.040000", "224706.500000", "224706.960000", "224707.420000", "224707.880000", "224708.340000", "224708.800000", "224709.260000", "224709.720000", "224710.180000", "224710.640000", "224711.100000", "224711.560000", "224712.020000", "224712.480000", "224712.940000", "224713.400000", "224713.860000", "224714.320000", "224714.780000", "224715.240000", "224715.700000", "224716.160000", "224716.620000", "224717.080000", "224717.540000", "224718.000000", "224718.460000", "224718.920000", "224719.380000", "224719.840000", "224720.300000", "224720.760000", "224721.220000", "224721.680000", "224722.140000", "224722.600000", "224723.060000", "224723.520000", "224723.980000", "224724.440000", "224724.900000", "224725.360000", "224725.820000", "224726.280000", "224726.740000", "224727.200000", "224727.660000", "224728.120000", "224728.580000", "224729.040000", "224729.500000", "224729.960000", "224730.420000", "224730.880000", "224731.340000", "224731.800000", "224732.260000", "224732.720000", "224733.180000", "224733.640000", "224734.100000", "224734.560000", "224735.020000", "224735.480000", "224735.940000", "224736.400000", "224736.860000", "224737.320000", "224737.780000", "224738.240000", "224738.700000", "224739.160000", "224739.620000", "224740.080000", "224740.540000", "224741.000000", "224741.460000", "224741.920000", "224742.380000", "224742.840000", "224743.300000", "224743.760000", "224744.220000", "224744.680000", "224745.140000", "224745.600000", "224746.060000", "224746.520000", "224746.980000", "224747.440000", "224747.900000", "224748.360000", "224748.820000", "224749.280000", "224749.740000", "224750.200000", "224750.660000", "224751.120000", "224751.580000", "224752.040000", "224752.500000", "224752.960000", "224753.420000", "224753.880000", "224754.340000", "224754.800000", "224755.260000", "224755.720000", "224756.180000", "224756.640000", "224757.100000", "224757.560000", "224758.020000", "224758.480000", "224758.940000", "224759.400000", "224759.860000", "224800.320000", "224800.780000", "224801.240000", "224801.700000", "224802.160000", "224802.620000", "224803.080000", "224803.540000", "224804.000000", "224804.460000", "224804.920000", "224805.380000", "224805.840000", "224806.300000", "224806.760000", "224807.220000", "224807.680000", "224808.140000", "224808.600000", "224809.060000", "224809.520000", "224809.980000", "224810.440000", "224810.900000", "224811.360000", "224811.820000", "224812.280000", "224812.740000", "224813.200000", "224813.660000", "224814.120000", "224814.580000", "224815.040000", "224815.500000", "224815.960000", "224816.420000", "224816.880000", "224817.340000", "224817.800000", "224818.260000", "224818.720000", "224819.180000", "224819.640000", "224820.100000", "224820.560000", "224821.020000", "224821.480000", "224821.940000", "224822.400000", "224822.860000", "224823.320000", "224823.780000", "224824.240000", "224824.700000", "224825.160000", "224825.620000", "224826.080000", "224826.540000", "224827.000000", "224827.460000", "224827.920000", "224828.380000", "224828.840000", "224829.300000", "224829.760000", "224830.220000", "224830.680000", "224831.140000", "224831.600000", "224832.060000", "224832.520000", "224832.980000", "224833.440000", "224833.900000", "224834.360000", "224834.820000", "224835.280000", "224835.740000", "224836.200000", "224836.660000", "224837.120000", "224837.580000", "224838.040000", "224838.500000", "224838.960000", "224839.420000", "224839.880000", "224840.340000", "224840.800000", "224841.260000", "224841.720000", "224842.180000", "224842.640000", "224843.100000", "224843.560000", "224844.020000", "224844.480000", "224844.940000", "224845.400000", "224845.860000", "224846.320000", "224846.780000", "224847.240000", "224847.700000", "224848.160000", "224848.620000", "224849.080000", "224849.540000", "224850.000000", "224850.460000", "224850.920000", "224851.380000", "224851.840000", "224852.300000", "224852.760000", "224853.220000", "224853.680000", "224854.140000", "224854.600000", "224855.060000", "224855.520000", "224855.980000", "224856.440000", "224856.900000", "224857.360000", "224857.820000", "224858.280000", "224858.740000", "224859.200000", "224859.660000", "224900.120000", "224900.580000", "224901.040000", "224901.500000", "224901.960000", "224902.420000", "224902.880000", "224903.340000", "224903.800000", "224904.260000", "224904.720000", "224905.180000", "224905.640000", "224906.100000", "224906.560000", "224907.020000", "224907.480000", "224907.940000", "224908.400000", "224908.860000", "224909.320000", "224909.780000", "224910.240000", "224910.700000", "224911.160000", "224911.620000", "224912.080000", "224912.540000", "224913.000000", "224913.460000", "224913.920000", "224914.380000", "224914.840000", "224915.300000", "224915.760000", "224916.220000", "224916.680000", "224917.140000", "224917.600000", "224918.060000", "224918.520000", "224918.980000", "224919.440000", "224919.900000", "224920.360000", "224920.820000", "224921.280000", "224921.740000", "224922.200000", "224922.660000", "224923.120000", "224923.580000", "224924.040000", "224924.500000", "224924.960000", "224925.420000", "224925.880000", "224926.340000", "224926.800000", "224927.260000", "224927.720000", "224928.180000", "224928.640000", "224929.100000", "224929.560000", "224930.020000", "224930.480000", "224930.940000", "224931.400000", "224931.860000", "224932.320000", "224932.780000", "224933.240000", "224933.700000", "224934.160000", "224934.620000", "224935.080000", "224935.540000", "224936.000000", "224936.460000", "224936.920000", "224937.380000", "224937.840000", "224938.300000", "224938.760000", "224939.220000", "224939.680000", "224940.140000", "224940.600000", "224941.060000", "224941.520000", "224941.980000", "224942.440000", "224942.900000", "224943.360000", "224943.820000", "224944.280000", "224944.740000", "224945.200000", "224945.660000", "224946.120000", "224946.580000", "224947.040000", "224947.500000", "224947.960000", "224948.420000", "224948.880000", "224949.340000", "224949.800000", "224950.260000", "224950.720000", "224951.180000", "224951.640000", "224952.100000", "224952.560000", "224953.020000", "224953.480000", "224953.940000", "224954.400000", "224954.860000", "224955.320000", "224955.780000", "224956.240000", "224956.700000", "224957.160000", "224957.620000", "224958.080000", "224958.540000", "224959.000000", "224959.460000", "224959.920000", "225000.380000", "225000.840000", "225001.300000", "225001.760000", "225002.220000", "225002.680000", "225003.140000", "225003.600000", "225004.060000", "225004.520000", "225004.980000", "225005.440000", "225005.900000", "225006.360000", "225006.820000", "225007.280000", "225007.740000", "225008.200000", "225008.660000", "225009.120000", "225009.580000", "225010.040000", "225010.500000", "225010.960000", "225011.420000", "225011.880000", "225012.340000", "225012.800000", "225013.260000", "225013.720000", "225014.180000", "225014.640000", "225015.100000", "225015.560000", "225016.020000", "225016.480000", "225016.940000", "225017.400000", "225017.860000", "225018.320000", "225018.780000", "225019.240000", "225019.700000", "225020.160000", "225020.620000", "225021.080000", "225021.540000", "225022.000000", "225022.460000", "225022.920000", "225023.380000", "225023.840000", "225024.300000", "225024.760000", "225025.220000", "225025.680000", "225026.140000", "225026.600000", "225027.060000", "225027.520000", "225027.980000", "225028.440000", "225028.900000", "225029.360000", "225029.820000", "225030.280000", "225030.740000", "225031.200000", "225031.660000", "225032.120000", "225032.580000", "225033.040000", "225033.500000", "225033.960000", "225034.420000", "225034.880000", "225035.340000", "225035.800000", "225036.260000", "225036.720000", "225037.180000", "225037.640000", "225038.100000", "225038.560000", "225039.020000", "225039.480000", "225039.940000", "225040.400000", "225040.860000", "225041.320000", "225041.780000", "225042.240000", "225042.700000", "225043.160000", "225043.620000", "225044.080000", "225044.540000", "225045.000000", "225045.460000", "225045.920000", "225046.380000", "225046.840000", "225047.300000", "225047.760000", "225048.220000", "225048.680000", "225049.140000", "225049.600000", "225050.060000", "225050.520000", "225050.980000", "225051.440000", "225051.900000", "225052.360000", "225052.820000", "225053.280000", "225053.740000", "225054.200000", "225054.660000", "225055.120000", "225055.580000", "225056.040000", "225056.500000", "225056.960000", "225057.420000", "225057.880000", "225058.340000", "225058.800000", "225059.260000", "225059.720000", "225100.180000", "225100.640000", "225101.100000", "225101.560000", "225102.020000", "225102.480000", "225102.940000", "225103.400000", "225103.860000", "225104.320000", "225104.780000", "225105.240000", "225105.700000", "225106.160000", "225106.620000", "225107.080000", "225107.540000", "225108.000000", "225108.460000", "225108.920000", "225109.380000", "225109.840000", "225110.300000", "225110.760000", "225111.220000", "225111.680000", "225112.140000", "225112.600000", "225113.060000", "225113.520000", "225113.980000", "225114.440000", "225114.900000", "225115.360000", "225115.820000", "225116.280000", "225116.740000", "225117.200000", "225117.660000", "225118.120000", "225118.580000", "225119.040000", "225119.500000", "225119.960000", "225120.420000", "225120.880000", "225121.340000", "225121.800000", "225122.260000", "225122.720000", "225123.180000", "225123.640000", "225124.100000", "225124.560000", "225125.020000", "225125.480000", "225125.940000", "225126.400000", "225126.860000", "225127.320000", "225127.780000", "225128.240000", "225128.700000", "225129.160000", "225129.620000", "225130.080000", "225130.540000", "225131.000000", "225131.460000", "225131.920000", "225132.380000", "225132.840000", "225133.300000", "225133.760000", "225134.220000", "225134.680000", "225135.140000", "225135.600000", "225136.060000", "225136.520000", "225136.980000", "225137.440000", "225137.900000", "225138.360000", "225138.820000", "225139.280000", "225139.740000", "225140.200000", "225140.660000", "225141.120000", "225141.580000", "225142.040000", "225142.500000", "225142.960000", "225143.420000", "225143.880000", "225144.340000", "225144.800000", "225145.260000", "225145.720000", "225146.180000", "225146.640000", "225147.100000", "225147.560000", "225148.020000", "225148.480000", "225148.940000", "225149.400000", "225149.860000", "225150.320000", "225150.780000", "225151.240000", "225151.700000", "225152.160000", "225152.620000", "225153.080000", "225153.540000", "225154.000000", "225154.460000", "225154.920000", "225155.380000", "225155.840000", "225156.300000", "225156.760000", "225157.220000", "225157.680000", "225158.140000", "225158.600000", "225159.060000", "225159.520000", "225159.980000", "225200.440000", "225200.900000", "225201.360000", "225201.820000", "225202.280000", "225202.740000", "225203.200000", "225203.660000", "225204.120000", "225204.580000", "225205.040000", "225205.500000", "225205.960000", "225206.420000", "225206.880000", "225207.340000", "225207.800000", "225208.260000", "225208.720000", "225209.180000", "225209.640000", "225210.100000", "225210.560000", "225211.020000", "225211.480000", "225211.940000", "225212.400000", "225212.860000", "225213.320000", "225213.780000", "225214.240000", "225214.700000", "225215.160000", "225215.620000", "225216.080000", "225216.540000", "225217.000000", "225217.460000", "225217.920000", "225218.380000", "225218.840000", "225219.300000", "225219.760000", "225220.220000", "225220.680000", "225221.140000", "225221.600000", "225222.060000", "225222.520000", "225222.980000", "225223.440000", "225223.900000", "225224.360000", "225224.820000", "225225.280000", "225225.740000", "225226.200000", "225226.660000", "225227.120000", "225227.580000", "225228.040000", "225228.500000", "225228.960000", "225229.420000", "225229.880000", "225230.340000", "225230.800000", "225231.260000", "225231.720000", "225232.180000", "225232.640000", "225233.100000", "225233.560000", "225234.020000", "225234.480000", "225234.940000", "225235.400000", "225235.860000", "225236.320000", "225236.780000", "225237.240000", "225237.700000", "225238.160000", "225238.620000", "225239.080000", "225239.540000", "225240.000000", "225240.460000", "225240.920000", "225241.380000", "225241.840000", "225242.300000", "225242.760000", "225243.220000", "225243.680000", "225244.140000", "225244.600000", "225245.060000", "225245.520000", "225245.980000", "225246.440000", "225246.900000", "225247.360000", "225247.820000", "225248.280000", "225248.740000", "225249.200000", "225249.660000", "225250.120000", "225250.580000", "225251.040000", "225251.500000", "225251.960000", "225252.420000", "225252.880000", "225253.340000", "225253.800000", "225254.260000", "225254.720000", "225255.180000", "225255.640000", "225256.100000", "225256.560000", "225257.020000", "225257.480000", "225257.940000", "225258.400000", "225258.860000", "225259.320000", "225259.780000", "225300.240000", "225300.700000", "225301.160000", "225301.620000", "225302.080000", "225302.540000", "225303.000000", "225303.460000", "225303.920000", "225304.380000", "225304.840000", "225305.300000", "225305.760000", "225306.220000", "225306.680000", "225307.140000", "225307.600000", "225308.060000"],
