{
  "AcquisitionMatrixPE": 140,
  "AcquisitionNumber": 1,
  "AcquisitionTime": "14:57:12.015000",
  "BandwidthPerPixelPhaseEncode": 10.352,
  "BaseResolution": 140,
  "BodyPartExamined": "BRAIN",
  "ConsistencyInfo": "N4_VE11E_LATEST_20181129",
  "ConversionSoftware": "dcm2niix",
  "ConversionSoftwareVersion": "v1.0.20201102",
  "DerivedVendorReportedEchoSpacing": 0.000689998,
  "DeviceSerialNumber": "66112",
  "DiffusionScheme": "Monopolar",
  "DwellTime": 2.1e-06,
  "EchoTime": 0.088,
  "EchoTrainLength": 105,
  "EffectiveEchoSpacing": 0.000689998,
  "FlipAngle": 90,
  "ImageComments": "Unaliased MB3/PE3",
  "ImageOrientationPatientDICOM": [0.998748, -0.0206383, -0.0455736, 0.0285954, 0.98297, 0.181525],
  "ImageType": [
    "ORIGINAL",
    "PRIMARY",
    "DIFFUSION",
    "NONE",
    "MB",
    "ND"
],
  "ImagingFrequency": 123.259,
  "InPlanePhaseEncodingDirectionDICOM": "COL",
  "InstitutionAddress": "Maynard 3,Hanover,NH,US,03755",
  "InstitutionName": "Dartmouth College - PBS",
  "InstitutionalDepartmentName": "Department",
  "IntendedFor": [
    "ses-01/dwi/sub-0111_ses-01_acq-96dirX6b0Xmb_dwi.nii.gz"
],
  "MRAcquisitionType": "2D",
  "MagneticFieldStrength": 3,
  "Manufacturer": "Siemens",
  "ManufacturersModelName": "Prisma",
  "Modality": "MR",
  "MultibandAccelerationFactor": 3,
  "PartialFourier": 0.75,
  "PatientPosition": "HFS",
  "PercentPhaseFOV": 100,
  "PercentSampling": 100,
  "PhaseEncodingDirection": "j-",
  "PhaseEncodingSteps": 105,
  "PhaseResolution": 1,
  "PixelBandwidth": 1700,
  "ProcedureStepDescription": "Wager_Wager^1076_spacetop",
  "ProtocolName": "dwi_acq-discorr-AP",
  "PulseSequenceDetails": "%CustomerSeq%\\cmrr_mbep2d_diff",
  "ReceiveCoilActiveElements": "HEA;HEP",
  "ReceiveCoilName": "Head_32",
  "ReconMatrixPE": 140,
  "RepetitionTime": 4.1,
  "SAR": 0.122063,
  "ScanOptions": "PFP\\FS",
  "ScanningSequence": "EP",
  "SequenceName": "ep_b0",
  "SequenceVariant": "SK\\SS",
  "SeriesDescription": "dwi_acq-discorr-AP",
  "SeriesNumber": 7,
  "ShimSetting": [4208, -7742, -7262, 248, -78, 162, 128, 100],
  "SliceThickness": 1.7,
  "SliceTiming": [0, 2.10938, 0.15625, 2.26562, 0.29688, 2.42188, 0.45312, 2.5625, 0.60938, 2.71875, 0.75, 2.875, 0.90625, 3.01562, 1.0625, 3.17188, 1.20312, 3.32812, 1.35938, 3.46875, 1.51562, 3.625, 1.65625, 3.78125, 1.8125, 3.92188, 1.96875, 0, 2.10938, 0.15625, 2.26562, 0.29688, 2.42188, 0.45312, 2.5625, 0.60938, 2.71875, 0.75, 2.875, 0.90625, 3.01562, 1.0625, 3.17188, 1.20312, 3.32812, 1.35938, 3.46875, 1.51562, 3.625, 1.65625, 3.78125, 1.8125, 3.92188, 1.96875, 0, 2.10938, 0.15625, 2.26562, 0.29688, 2.42188, 0.45312, 2.5625, 0.60938, 2.71875, 0.75, 2.875, 0.90625, 3.01562, 1.0625, 3.17188, 1.20312, 3.32812, 1.35938, 3.46875, 1.51562, 3.625, 1.65625, 3.78125, 1.8125, 3.92188, 1.96875],
  "SoftwareVersions": "syngo MR E11",
  "SpacingBetweenSlices": 1.7,
  "StationName": "AWP66112",
  "TotalReadoutTime": 0.0959097,
  "TxRefAmp": 219.974,
  "WipMemBlock": "12906eab-cbee-4f1e-b3cc-34bca2c2c9d4||Sequence: R016 ve11e/master r/434b28f1; Aug  7 2019 19:06:17 by eja",
  "dcmmeta_affine": [
    [-1.7121390104293823, 0.04902070015668869, -0.06978654861450195, 116.71659851074219],
    [0.03537993133068085, 1.6850920915603638, 0.3104209899902344, -107.81145477294922],
    [-0.07812616229057312, -0.3111865222454071, 1.6699600219726562, -33.180667877197266],
    [0.0, 0.0, 0.0, 1.0]
],
  "dcmmeta_reorient_transform": [
    [0.0, -1.0, 0.0, 139.0],
    [1.0, 0.0, 0.0, 0.0],
    [0.0, 0.0, -1.0, 80.0],
    [0.0, 0.0, 0.0, 1.0]
],
  "dcmmeta_shape": [140, 140, 81],
  "dcmmeta_slice_dim": 2,
  "dcmmeta_version": 0.6,
  "global": {
    "const": {
      "AccessionNumber": "A004469",
      "AcquisitionMatrix": [140, 0, 0, 140],
      "AcquisitionNumber": 1,
      "AngioFlag": "N",
      "BitsAllocated": 16,
      "BitsStored": 16,
      "BodyPartExamined": "BRAIN",
      "Columns": 140,
      "EchoNumbers": 1,
      "EchoTime": 88.0,
      "EchoTrainLength": 105,
      "FlipAngle": 90.0,
      "HighBit": 15,
      "ImageOrientationPatient": [0.99874777020491, -0.0206382934689, -0.0455735927201, 0.02859540724639, 0.98297040040827, 0.18152546544664],
      "ImageType": [
        "ORIGINAL",
        "PRIMARY",
        "DIFFUSION",
        "NONE",
        "MB",
        "ND"
],
      "ImagedNucleus": "1H",
      "ImagingFrequency": 123.259103,
      "InPlanePhaseEncodingDirection": "COL",
      "MRAcquisitionType": "2D",
      "MagneticFieldStrength": 3.0,
      "Manufacturer": "SIEMENS",
      "ManufacturerModelName": "Prisma",
      "Modality": "MR",
      "NumberOfAverages": 1.0,
      "NumberOfPhaseEncodingSteps": 105,
      "PercentPhaseFieldOfView": 100.0,
      "PercentSampling": 100.0,
      "PerformedProcedureStepStartTime": "141415.783000",
      "PhotometricInterpretation": "MONOCHROME2",
      "PixelBandwidth": 1700.0,
      "PixelRepresentation": 0,
      "PixelSpacing": [1.7142857313156, 1.7142857313156],
      "ProtocolName": "dwi_acq-discorr-AP",
      "RepetitionTime": 4100.0,
      "Rows": 140,
      "SAR": 0.12206254922916,
      "SamplesPerPixel": 1,
      "ScanOptions": [
        "PFP",
        "FS"
],
      "ScanningSequence": "EP",
      "SequenceName": "ep_b0",
      "SequenceVariant": [
        "SK",
        "SS"
],
      "SeriesDescription": "dwi_acq-discorr-AP",
      "SeriesNumber": 7,
      "SeriesTime": "145716.552000",
      "SliceThickness": 1.7000000476837,
      "SmallestImagePixelValue": 0,
      "SoftwareVersions": "syngo MR E11",
      "SpacingBetweenSlices": 1.7,
      "SpecificCharacterSet": "ISO_IR 100",
      "StudyID": "1",
      "StudyTime": "141415.726000",
      "TransmitCoilName": "Body",
      "VariableFlipAngleFlag": "N",
      "WindowCenterWidthExplanation": "Algo1"
    },
    "slices": {
      "AcquisitionTime": ["145712.015000", "145714.130000", "145712.165000", "145714.280000", "145712.317500", "145714.432500", "145712.467500", "145714.582500", "145712.620000", "145714.735000", "145712.770000", "145714.885000", "145712.920000", "145715.037500", "145713.072500", "145715.187500", "145713.222500", "145715.340000", "145713.375000", "145715.490000", "145713.525000", "145715.640000", "145713.677500", "145715.792500", "145713.827500", "145715.942500", "145713.980000", "145712.015000", "145714.130000", "145712.165000", "145714.280000", "145712.317500", "145714.432500", "145712.467500", "145714.582500", "145712.620000", "145714.735000", "145712.770000", "145714.885000", "145712.920000", "145715.037500", "145713.072500", "145715.187500", "145713.222500", "145715.340000", "145713.375000", "145715.490000", "145713.525000", "145715.640000", "145713.677500", "145715.792500", "145713.827500", "145715.942500", "145713.980000", "145712.015000", "145714.130000", "145712.165000", "145714.280000", "145712.317500", "145714.432500", "145712.467500", "145714.582500", "145712.620000", "145714.735000", "145712.770000", "145714.885000", "145712.920000", "145715.037500", "145713.072500", "145715.187500", "145713.222500", "145715.340000", "145713.375000", "145715.490000", "145713.525000", "145715.640000", "145713.677500", "145715.792500", "145713.827500", "145715.942500", "145713.980000"],
      "ContentTime": ["145716.555000", "145716.647000", "145716.562000", "145716.665000", "145716.568000", "145716.672000", "145716.574000", "145716.678000", "145716.580000", "145716.684000", "145716.586000", "145716.691000", "145716.597000", "145716.697000", "145716.604000", "145716.704000", "145716.611000", "145716.710000", "145716.617000", "145716.717000", "145716.623000", "145716.724000", "145716.629000", "145716.731000", "145716.635000", "145716.737000", "145716.641000", "145716.558000", "145716.657000", "145716.564000", "145716.667000", "145716.570000", "145716.674000", "145716.576000", "145716.680000", "145716.582000", "145716.687000", "145716.593000", "145716.693000", "145716.600000", "145716.699000", "145716.607000", "145716.706000", "145716.613000", "145716.712000", "145716.619000", "145716.720000", "145716.625000", "145716.726000", "145716.631000", "145716.733000", "145716.637000", "145716.739000", "145716.642000", "145716.560000", "145716.663000", "145716.566000", "145716.669000", "145716.572000", "145716.676000", "145716.578000", "145716.682000", "145716.584000", "145716.689000", "145716.595000", "145716.695000", "145716.602000", "145716.701000", "145716.609000", "145716.708000", "145716.615000", "145716.714000", "145716.621000", "145716.722000", "145716.627000", "145716.728000", "145716.633000", "145716.735000", "145716.639000", "145716.741000", "145716.645000"],
      "CsaImage.GSWDDataType": [
        "predicted",
        "predicted",
        "predicted",
        "predicted",
        "predicted",
        "predicted",
        "predicted",
        "predicted",
        "predicted",
        "predicted",
        "predicted",
        "predicted",
        "predicted",
        "predicted",
        "predicted",
        "predicted",
        "predicted",
        "predicted",
        "predicted",
        "predicted",
        "predicted",
        "predicted",
        "predicted",
        "measured",
        "predicted",
        "measured",
        "predicted",
        "predicted",
        "predicted",
        "predicted",
        "predicted",
        "predicted",
        "predicted",
        "predicted",
        "predicted",
        "predicted",
        "predicted",
        "predicted",
        "predicted",
        "predicted",
        "predicted",
        "predicted",
        "predicted",
        "predicted",
        "predicted",
        "predicted",
        "predicted",
        "predicted",
        "predicted",
        "predicted",
        "measured",
        "predicted",
        "measured",
        "predicted",
        "predicted",
        "predicted",
        "predicted",
        "predicted",
        "predicted",
        "predicted",
        "predicted",
        "predicted",
        "predicted",
        "predicted",
        "predicted",
        "predicted",
        "predicted",
        "predicted",
        "predicted",
        "predicted",
        "predicted",
        "predicted",
        "predicted",
        "predicted",
        "predicted",
        "predicted",
        "predicted",
        "measured",
        "predicted",
        "measured",
        "predicted"
],
      "CsaImage.ICE_Dims": [
        "X_1_1_1_1_1_1_1_1_1_1_1_108",
        "X_1_1_1_1_1_1_42_1_1_2_1_108",
        "X_1_1_1_1_1_1_2_1_1_3_1_108",
        "X_1_1_1_1_1_1_43_1_1_4_1_108",
        "X_1_1_1_1_1_1_3_1_1_5_1_108",
        "X_1_1_1_1_1_1_44_1_1_6_1_108",
        "X_1_1_1_1_1_1_4_1_1_7_1_108",
        "X_1_1_1_1_1_1_45_1_1_8_1_108",
        "X_1_1_1_1_1_1_5_1_1_9_1_108",
        "X_1_1_1_1_1_1_46_1_1_10_1_108",
        "X_1_1_1_1_1_1_6_1_1_11_1_108",
        "X_1_1_1_1_1_1_47_1_1_12_1_108",
        "X_1_1_1_1_1_1_7_1_1_13_1_108",
        "X_1_1_1_1_1_1_48_1_1_14_1_108",
        "X_1_1_1_1_1_1_8_1_1_15_1_108",
        "X_1_1_1_1_1_1_49_1_1_16_1_108",
        "X_1_1_1_1_1_1_9_1_1_17_1_108",
        "X_1_1_1_1_1_1_50_1_1_18_1_108",
        "X_1_1_1_1_1_1_10_1_1_19_1_108",
        "X_1_1_1_1_1_1_51_1_1_20_1_108",
        "X_1_1_1_1_1_1_11_1_1_21_1_108",
        "X_1_1_1_1_1_1_52_1_1_22_1_108",
        "X_1_1_1_1_1_1_12_1_1_23_1_108",
        "X_1_1_1_1_1_1_53_1_1_24_1_108",
        "X_1_1_1_1_1_1_13_1_1_25_1_108",
        "X_1_1_1_1_1_1_54_1_1_26_1_108",
        "X_1_1_1_1_1_1_14_1_1_27_1_108",
        "X_1_1_1_1_1_1_55_1_1_28_1_108",
        "X_1_1_1_1_1_1_15_1_1_29_1_108",
        "X_1_1_1_1_1_1_56_1_1_30_1_108",
        "X_1_1_1_1_1_1_16_1_1_31_1_108",
        "X_1_1_1_1_1_1_57_1_1_32_1_108",
        "X_1_1_1_1_1_1_17_1_1_33_1_108",
        "X_1_1_1_1_1_1_58_1_1_34_1_108",
        "X_1_1_1_1_1_1_18_1_1_35_1_108",
        "X_1_1_1_1_1_1_59_1_1_36_1_108",
        "X_1_1_1_1_1_1_19_1_1_37_1_108",
        "X_1_1_1_1_1_1_60_1_1_38_1_108",
        "X_1_1_1_1_1_1_20_1_1_39_1_108",
        "X_1_1_1_1_1_1_61_1_1_40_1_108",
        "X_1_1_1_1_1_1_21_1_1_41_1_108",
        "X_1_1_1_1_1_1_62_1_1_42_1_108",
        "X_1_1_1_1_1_1_22_1_1_43_1_108",
        "X_1_1_1_1_1_1_63_1_1_44_1_108",
        "X_1_1_1_1_1_1_23_1_1_45_1_108",
        "X_1_1_1_1_1_1_64_1_1_46_1_108",
        "X_1_1_1_1_1_1_24_1_1_47_1_108",
        "X_1_1_1_1_1_1_65_1_1_48_1_108",
        "X_1_1_1_1_1_1_25_1_1_49_1_108",
        "X_1_1_1_1_1_1_66_1_1_50_1_108",
        "X_1_1_1_1_1_1_26_1_1_51_1_108",
        "X_1_1_1_1_1_1_67_1_1_52_1_108",
        "X_1_1_1_1_1_1_27_1_1_53_1_108",
        "X_1_1_1_1_1_1_68_1_1_54_1_108",
        "X_1_1_1_1_1_1_28_1_1_55_1_108",
        "X_1_1_1_1_1_1_69_1_1_56_1_108",
        "X_1_1_1_1_1_1_29_1_1_57_1_108",
        "X_1_1_1_1_1_1_70_1_1_58_1_108",
        "X_1_1_1_1_1_1_30_1_1_59_1_108",
        "X_1_1_1_1_1_1_71_1_1_60_1_108",
        "X_1_1_1_1_1_1_31_1_1_61_1_108",
        "X_1_1_1_1_1_1_72_1_1_62_1_108",
        "X_1_1_1_1_1_1_32_1_1_63_1_108",
        "X_1_1_1_1_1_1_73_1_1_64_1_108",
        "X_1_1_1_1_1_1_33_1_1_65_1_108",
        "X_1_1_1_1_1_1_74_1_1_66_1_108",
        "X_1_1_1_1_1_1_34_1_1_67_1_108",
        "X_1_1_1_1_1_1_75_1_1_68_1_108",
        "X_1_1_1_1_1_1_35_1_1_69_1_108",
        "X_1_1_1_1_1_1_76_1_1_70_1_108",
        "X_1_1_1_1_1_1_36_1_1_71_1_108",
        "X_1_1_1_1_1_1_77_1_1_72_1_108",
        "X_1_1_1_1_1_1_37_1_1_73_1_108",
        "X_1_1_1_1_1_1_78_1_1_74_1_108",
        "X_1_1_1_1_1_1_38_1_1_75_1_108",
        "X_1_1_1_1_1_1_79_1_1_76_1_108",
        "X_1_1_1_1_1_1_39_1_1_77_1_108",
        "X_1_1_1_1_1_1_80_1_1_78_1_108",
        "X_1_1_1_1_1_1_40_1_1_79_1_108",
        "X_1_1_1_1_1_1_81_1_1_80_1_108",
        "X_1_1_1_1_1_1_41_1_1_81_1_108"
],
      "CsaImage.ProtocolSliceNumber": [0, 1, 2, 3, 4, 5, 6, 7, 8, 9, 10, 11, 12, 13, 14, 15, 16, 17, 18, 19, 20, 21, 22, 23, 24, 25, 26, 27, 28, 29, 30, 31, 32, 33, 34, 35, 36, 37, 38, 39, 40, 41, 42, 43, 44, 45, 46, 47, 48, 49, 50, 51, 52, 53, 54, 55, 56, 57, 58, 59, 60, 61, 62, 63, 64, 65, 66, 67, 68, 69, 70, 71, 72, 73, 74, 75, 76, 77, 78, 79, 80],
      "CsaImage.RFSWDDataType": [
        "predicted",
        "predicted",
        "predicted",
        "predicted",
        "predicted",
        "predicted",
        "predicted",
        "predicted",
        "predicted",
        "predicted",
        "predicted",
        "predicted",
        "predicted",
        "predicted",
        "predicted",
        "predicted",
        "predicted",
        "predicted",
        "predicted",
        "predicted",
        "predicted",
        "predicted",
        "predicted",
        "measured",
        "predicted",
        "measured",
        "predicted",
        "predicted",
        "predicted",
        "predicted",
        "predicted",
        "predicted",
        "predicted",
        "predicted",
        "predicted",
        "predicted",
        "predicted",
        "predicted",
        "predicted",
        "predicted",
        "predicted",
        "predicted",
        "predicted",
        "predicted",
        "predicted",
        "predicted",
        "predicted",
        "predicted",
        "predicted",
        "predicted",
        "measured",
        "predicted",
        "measured",
        "predicted",
        "predicted",
        "predicted",
        "predicted",
        "predicted",
        "predicted",
        "predicted",
        "predicted",
        "predicted",
        "predicted",
        "predicted",
        "predicted",
        "predicted",
        "predicted",
        "predicted",
        "predicted",
        "predicted",
        "predicted",
        "predicted",
        "predicted",
        "predicted",
        "predicted",
        "predicted",
        "predicted",
        "measured",
        "predicted",
        "measured",
        "predicted"
],
      "CsaImage.SlicePosition_PCS": [
        [-123.53050021, -126.41624772, -76.43562763],
        [-123.4607133, -126.72667062, -74.76566761],
        [-123.39092641, -127.03709256, -73.09570759],
        [-123.32113951, -127.3475145, -71.42574756],
        [-123.25135261, -127.6579374, -69.75578754],
        [-123.18156572, -127.96835934, -68.08582752],
        [-123.11177882, -128.27878129, -66.41586368],
        [-123.04199193, -128.58920418, -64.74590366],
        [-122.97220503, -128.89962613, -63.07594364],
        [-122.90241813, -129.21004903, -61.40598362],
        [-122.83263122, -129.52047097, -59.7360236],
        [-122.76284432, -129.83089291, -58.06606357],
        [-122.69305741, -130.14131581, -56.39610355],
        [-122.62327056, -130.45173775, -54.72614353],
        [-122.55348366, -130.7621597, -53.05618351],
        [-122.48369675, -131.07258259, -51.38621967],
        [-122.41390984, -131.38300454, -49.71625965],
        [-122.34412294, -131.69342744, -48.04630153],
        [-122.27433609, -132.00384843, -46.3763396],
        [-122.20454918, -132.31427132, -44.70637958],
        [-122.13476228, -132.62469422, -43.03641956],
        [-122.06497537, -132.93511521, -41.36645954],
        [-121.99518847, -133.24553811, -39.69649761],
        [-121.92540156, -133.55596101, -38.02653759],
        [-121.85561465, -133.866382, -36.35657757],
        [-121.78582775, -134.17680489, -34.68661754],
        [-121.71604084, -134.48722779, -33.01665752],
        [-121.64625393, -134.79765069, -31.34669655],
        [-121.57646703, -135.10807168, -29.67673557],
        [-121.50668012, -135.41849457, -28.00677555],
        [-121.43689322, -135.72891747, -26.33681553],
        [-121.36710643, -136.03933846, -24.66685455],
        [-121.29731952, -136.34976136, -22.99689453],
        [-121.22753262, -136.66018426, -21.32693403],
        [-121.15774559, -136.97060525, -19.65697353],
        [-121.0879588, -137.28102814, -17.98701315],
        [-121.01817178, -137.59145104, -16.31705271],
        [-120.94838499, -137.90187203, -14.64709227],
        [-120.8785982, -138.21229493, -12.97713177],
        [-120.80881118, -138.52271783, -11.30717151],
        [-120.73902439, -138.83313882, -9.63721102],
        [-120.66923737, -139.14356171, -7.96725052],
        [-120.59945058, -139.45398461, -6.29729049],
        [-120.52966355, -139.7644056, -4.62732952],
        [-120.45987677, -140.0748285, -2.9573695],
        [-120.39008974, -140.3852514, -1.28740852],
        [-120.32030295, -140.69567239, 0.38255055],
        [-120.25051593, -141.00609528, 2.05251248],
        [-120.18072914, -141.31651818, 3.7224725],
        [-120.11094212, -141.62693917, 5.39243252],
        [-120.04115533, -141.93736207, 7.06239254],
        [-119.97136854, -142.24778496, 8.73235447],
        [-119.90158152, -142.55820786, 10.40231449],
        [-119.83179473, -142.86862885, 12.07227452],
        [-119.7620077, -143.17905175, 13.74223454],
        [-119.69222092, -143.48947465, 15.41219456],
        [-119.62243389, -143.79989564, 17.08215649],
        [-119.55264711, -144.11031853, 18.75211651],
        [-119.48286008, -144.42074143, 20.42207653],
        [-119.41307329, -144.73116242, 22.09203655],
        [-119.34328627, -145.04158532, 23.76199658],
        [-119.27349924, -145.35200822, 25.4319566],
        [-119.20371269, -145.66242921, 27.10191662],
        [-119.13392567, -145.9728521, 28.77187664],
        [-119.06413864, -146.283275, 30.44184048],
        [-118.99435209, -146.59369599, 32.1118005],
        [-118.92456507, -146.90411889, 33.78176052],
        [-118.85477804, -147.21454179, 35.45172055],
        [-118.78499102, -147.52496278, 37.12168057],
        [-118.71520447, -147.83538758, 38.79164059],
        [-118.64541744, -148.14580857, 40.46160061],
        [-118.57563042, -148.45622956, 42.13156063],
        [-118.50584339, -148.76665436, 43.80152066],
        [-118.43605684, -149.07707535, 45.47148449],
        [-118.36626982, -149.38749634, 47.14144451],
        [-118.29648279, -149.69792115, 48.81140072],
        [-118.22669577, -150.00834214, 50.48136074],
        [-118.15690922, -150.31876313, 52.15132077],
        [-118.08712219, -150.62918793, 53.82128842],
        [-118.01733517, -150.93960892, 55.49124844],
        [-117.94754862, -151.25002991, 57.16120846]
],
      "CsaImage.TimeAfterStart": [16.4, 18.515, 16.55, 18.665, 16.7, 18.8175, 16.8525, 18.9675, 17.0025, 19.12, 17.155, 19.27, 17.305, 19.42, 17.4575, 19.5725, 17.6075, 19.7225, 17.76, 19.875, 17.91, 20.025, 18.06, 20.1775, 18.2125, 20.3275, 18.3625, 16.4, 18.515, 16.55, 18.665, 16.7, 18.8175, 16.8525, 18.9675, 17.0025, 19.12, 17.155, 19.27, 17.305, 19.42, 17.4575, 19.5725, 17.6075, 19.7225, 17.76, 19.875, 17.91, 20.025, 18.06, 20.1775, 18.2125, 20.3275, 18.3625, 16.4, 18.515, 16.55, 18.665, 16.7, 18.8175, 16.8525, 18.9675, 17.0025, 19.12, 17.155, 19.27, 17.305, 19.42, 17.4575, 19.5725, 17.6075, 19.7225, 17.76, 19.875, 17.91, 20.025, 18.06, 20.1775, 18.2125, 20.3275, 18.3625],
      "ImagePositionPatient": [
        [-123.53050020957, -126.41624771771, -76.435627629736],
        [-123.46071330333, -126.72667061505, -74.765667607763],
        [-123.39092641199, -127.03709255871, -73.09570758579],
        [-123.32113950947, -127.34751450238, -71.425747563818],
        [-123.25135261255, -127.65793739972, -69.755787541845],
        [-123.18156571562, -127.96835934338, -68.085827519872],
        [-123.11177881682, -128.27878128704, -66.415863683203],
        [-123.04199192548, -128.58920418438, -64.74590366123],
        [-122.97220503414, -128.89962612805, -63.075943639257],
        [-122.9024181279, -129.21004902539, -61.405983617285],
        [-122.83263122166, -129.52047096905, -59.736023595312],
        [-122.76284431541, -129.83089291272, -58.066063573339],
        [-122.69305740917, -130.14131581005, -56.396103551367],
        [-122.62327056253, -130.45173775372, -54.726143529394],
        [-122.55348365629, -130.76215969738, -53.056183507421],
        [-122.48369675005, -131.07258259472, -51.386219670751],
        [-122.41390984381, -131.38300453839, -49.716259648779],
        [-122.34412293756, -131.69342743573, -48.046301534155],
        [-122.27433609093, -132.00384842572, -46.376339604833],
        [-122.20454918468, -132.31427132306, -44.706379582861],
        [-122.13476227844, -132.62469422039, -43.036419560888],
        [-122.0649753722, -132.93511521038, -41.366459538915],
        [-121.99518846596, -133.24553810772, -39.696497609594],
        [-121.92540155972, -133.55596100506, -38.026537587621],
        [-121.85561465347, -133.86638199505, -36.356577565649],
        [-121.78582774723, -134.17680489239, -34.686617543676],
        [-121.71604084099, -134.48722778973, -33.016657521704],
        [-121.64625393475, -134.79765068707, -31.346696546057],
        [-121.5764670285, -135.10807167706, -29.67673557041],
        [-121.50668012226, -135.4184945744, -28.006775548437],
        [-121.43689321602, -135.72891747174, -26.336815526464],
        [-121.36710642899, -136.03933846173, -24.666854550817],
        [-121.29731952274, -136.34976135907, -22.996894528845],
        [-121.2275326165, -136.6601842564, -21.326934030035],
        [-121.15774559105, -136.9706052464, -19.656973531225],
        [-121.08795880402, -137.28102814373, -17.987013151624],
        [-121.01817177856, -137.59145104107, -16.317052707064],
        [-120.94838499153, -137.90187203106, -14.647092273214],
        [-120.8785982045, -138.2122949284, -12.977131774404],
        [-120.80881117905, -138.52271782574, -11.307171514013],
        [-120.73902439201, -138.83313881573, -9.6372110152033],
        [-120.66923736656, -139.14356171307, -7.9672505163935],
        [-120.59945057953, -139.45398461041, -6.2972904944208],
        [-120.52966355408, -139.7644056004, -4.6273295187738],
        [-120.45987676704, -140.07482849774, -2.9573694968012],
        [-120.39008974159, -140.38525139508, -1.2874085211542],
        [-120.32030295456, -140.69567238507, 0.38255054714415],
        [-120.25051592911, -141.00609528241, 2.0525124764654],
        [-120.18072914207, -141.31651817974, 3.7224724984381],
        [-120.11094211662, -141.62693916974, 5.3924325204107],
        [-120.04115532959, -141.93736206707, 7.0623925423834],
        [-119.97136854256, -142.24778496441, 8.7323544717047],
        [-119.90158151711, -142.55820786175, 10.402314493677],
        [-119.83179473007, -142.86862885174, 12.07227451565],
        [-119.76200770462, -143.17905174908, 13.742234537623],
        [-119.69222091759, -143.48947464642, 15.412194559595],
        [-119.62243389214, -143.79989563641, 17.082156488917],
        [-119.5526471051, -144.11031853375, 18.752116510889],
        [-119.48286007965, -144.42074143109, 20.422076532862],
        [-119.41307329262, -144.73116242108, 22.092036554835],
        [-119.34328626717, -145.04158531842, 23.761996576807],
        [-119.27349924171, -145.35200821576, 25.43195659878],
        [-119.2037126931, -145.66242920575, 27.101916620753],
        [-119.13392566765, -145.97285210308, 28.771876642725],
        [-119.0641386422, -146.28327500042, 30.441840479395],
        [-118.99435209358, -146.59369599041, 32.111800501368],
        [-118.92456506813, -146.90411888775, 33.78176052334],
        [-118.85477804268, -147.21454178509, 35.451720545313],
        [-118.78499101723, -147.52496277508, 37.121680567286],
        [-118.71520446861, -147.83538757977, 38.791640589258],
        [-118.64541744316, -148.14580856976, 40.461600611231],
        [-118.57563041771, -148.45622955975, 42.131560633204],
        [-118.50584339226, -148.76665436444, 43.801520655176],
        [-118.43605684364, -149.07707535443, 45.471484491846],
        [-118.36626981819, -149.38749634442, 47.141444513819],
        [-118.29648279274, -149.69792114911, 48.811400721094],
        [-118.22669576729, -150.0083421391, 50.481360743067],
        [-118.15690921867, -150.31876312909, 52.15132076504],
        [-118.08712219322, -150.62918793377, 53.821288416407],
        [-118.01733516777, -150.93960892376, 55.49124843838],
        [-117.94754861916, -151.25002991375, 57.161208460352]
],
      "InstanceCreationTime": ["145716.555000", "145716.647000", "145716.562000", "145716.665000", "145716.568000", "145716.672000", "145716.574000", "145716.678000", "145716.580000", "145716.684000", "145716.586000", "145716.691000", "145716.597000", "145716.697000", "145716.604000", "145716.704000", "145716.611000", "145716.710000", "145716.617000", "145716.717000", "145716.623000", "145716.724000", "145716.629000", "145716.731000", "145716.635000", "145716.737000", "145716.641000", "145716.558000", "145716.657000", "145716.564000", "145716.667000", "145716.570000", "145716.674000", "145716.576000", "145716.680000", "145716.582000", "145716.687000", "145716.593000", "145716.693000", "145716.600000", "145716.699000", "145716.607000", "145716.706000", "145716.613000", "145716.712000", "145716.619000", "145716.720000", "145716.625000", "145716.726000", "145716.631000", "145716.733000", "145716.637000", "145716.739000", "145716.642000", "145716.560000", "145716.663000", "145716.566000", "145716.669000", "145716.572000", "145716.676000", "145716.578000", "145716.682000", "145716.584000", "145716.689000", "145716.595000", "145716.695000", "145716.602000", "145716.701000", "145716.609000", "145716.708000", "145716.615000", "145716.714000", "145716.621000", "145716.722000", "145716.627000", "145716.728000", "145716.633000", "145716.735000", "145716.639000", "145716.741000", "145716.645000"],
      "InstanceNumber": [1, 2, 3, 4, 5, 6, 7, 8, 9, 10, 11, 12, 13, 14, 15, 16, 17, 18, 19, 20, 21, 22, 23, 24, 25, 26, 27, 28, 29, 30, 31, 32, 33, 34, 35, 36, 37, 38, 39, 40, 41, 42, 43, 44, 45, 46, 47, 48, 49, 50, 51, 52, 53, 54, 55, 56, 57, 58, 59, 60, 61, 62, 63, 64, 65, 66, 67, 68, 69, 70, 71, 72, 73, 74, 75, 76, 77, 78, 79, 80, 81],
      "LargestImagePixelValue": [24880, 35660, 29134, 30123, 24957, 18726, 20696, 22190, 30587, 29967, 23076, 24283, 29336, 31242, 28480, 35647, 39608, 65535, 65535, 63945, 65535, 65535, 65535, 63612, 63695, 65535, 50695, 42621, 37957, 39281, 53408, 52538, 53483, 46488, 41497, 37016, 36160, 37322, 39634, 39168, 43146, 44811, 47190, 55626, 55796, 59713, 60744, 48256, 51932, 48386, 56381, 65535, 65055, 65535, 45446, 38496, 42571, 40806, 49610, 51991, 48575, 45286, 62517, 38792, 59218, 65535, 44648, 46613, 57551, 43915, 65535, 63743, 47033, 53404, 57199, 34157, 18991, 13993, 15020, 14440, 13423],
      "SliceLocation": [-57.072271388526, -55.372271664273, -53.672272114774, -51.972272564815, -50.272272840944, -48.572273291215, -46.87226999412, -45.172270270478, -43.472270720979, -41.772270996725, -40.072271446614, -38.372271896503, -36.67227217225, -34.972272624585, -33.272273074474, -31.57226960293, -29.872270052819, -28.172272202211, -26.472270955044, -24.77227123079, -23.072271506537, -21.372272130568, -19.672270532669, -17.972270808416, -16.272271432447, -14.572271708194, -12.87227198394, -11.172271322864, -9.4722710100729, -7.7722712858195, -6.0722715615661, -4.3722712536682, -2.6722715294148, -0.9722713367502, 0.72772851252375, 2.4277285831919, 4.1277287274593, 5.827728503134, 7.527728690905, 9.2277286542577, 10.927728493744, 12.627728691303, 14.327728410662, 16.027728728348, 17.727728447707, 19.427729113677, 21.12772754793, 22.827729150722, 24.527728870082, 26.227728250944, 27.927727970304, 29.627729563309, 31.327729292456, 33.027728663531, 34.727728392678, 36.427728112038, 38.127729366546, 39.827729085905, 41.527728815052, 43.227728186128, 44.927727915275, 46.627727644422, 48.32772700571, 50.027726734857, 51.727730211294, 53.427729572582, 55.127729301729, 56.827729030876, 58.527728411739, 60.227728469596, 61.927727850458, 63.627727231321, 65.327727308752, 67.027730417331, 68.727729798193, 70.427726128334, 72.127725509197, 73.827724870485, 75.527732442497, 77.22773182336, 78.927731184648],
