{
  "AcquisitionMatrixPE": 82,
  "AcquisitionNumber": 1,
  "AcquisitionTime": "17:54:20.902500",
  "BandwidthPerPixelPhaseEncode": 24.888,
  "BaseResolution": 82,
  "BodyPartExamined": "BRAIN",
  "ConsistencyInfo": "N4_VE11E_LATEST_20181129",
  "ConversionSoftware": "dcm2niix",
  "ConversionSoftwareVersion": "v1.0.20201102",
  "DerivedVendorReportedEchoSpacing": 0.00049,
  "DeviceSerialNumber": "66112",
  "DwellTime": 2e-06,
  "EchoTime": 0.0272,
  "EchoTrainLength": 82,
  "EffectiveEchoSpacing": 0.00049,
  "FlipAngle": 44,
  "ImageComments": "Unaliased MB8/PE3",
  "ImageOrientationPatientDICOM": [0.999391, -0.0345157, 0.005199, 0.0343756, 0.999097, 0.0249753],
  "ImageType": [
    "ORIGINAL",
    "PRIMARY",
    "M",
    "MB",
    "ND",
    "NORM",
    "MOSAIC"
],
  "ImagingFrequency": 123.252,
  "InPlanePhaseEncodingDirectionDICOM": "COL",
  "InstitutionAddress": "Maynard 3,Hanover,NH,US,03755",
  "InstitutionName": "Dartmouth College - PBS",
  "InstitutionalDepartmentName": "Department",
  "MRAcquisitionType": "2D",
  "MagneticFieldStrength": 3,
  "Manufacturer": "Siemens",
  "ManufacturersModelName": "Prisma",
  "Modality": "MR",
  "MultibandAccelerationFactor": 8,
  "PartialFourier": 1,
  "PatientPosition": "HFS",
  "PercentPhaseFOV": 100,
  "PercentSampling": 100,
  "PhaseEncodingDirection": "j-",
  "PhaseEncodingSteps": 82,
  "PhaseResolution": 1,
  "PixelBandwidth": 3050,
  "ProcedureStepDescription": "Wager_Wager^1076_spacetop",
  "ProtocolName": "func_run-02_task-alignvideo_acq-ap-mb8",
  "PulseSequenceDetails": "%CustomerSeq%\\cmrr_mbep2d_bold",
  "ReceiveCoilActiveElements": "HEA;HEP",
  "ReceiveCoilName": "Head_32",
  "ReconMatrixPE": 82,
  "RepetitionTime": 0.46,
  "SAR": 0.0996839,
  "ScanOptions": "FS",
  "ScanningSequence": "EP",
  "SequenceName": "epfid2d1_82",
  "SequenceVariant": "SK\\SS",
  "SeriesDescription": "func_run-02_task-alignvideo_acq-ap-mb8",
  "SeriesNumber": 34,
  "ShimSetting": [4162, -7672, -7281, 457, 13, -41, 44, 81],
  "SliceThickness": 2.7,
  "SliceTiming": [0, 0.25, 0.0625, 0.3125, 0.125, 0.3775, 0.1875, 0, 0.25, 0.0625, 0.3125, 0.125, 0.3775, 0.1875, 0, 0.25, 0.0625, 0.3125, 0.125, 0.3775, 0.1875, 0, 0.25, 0.0625, 0.3125, 0.125, 0.3775, 0.1875, 0, 0.25, 0.0625, 0.3125, 0.125, 0.3775, 0.1875, 0, 0.25, 0.0625, 0.3125, 0.125, 0.3775, 0.1875, 0, 0.25, 0.0625, 0.3125, 0.125, 0.3775, 0.1875, 0, 0.25, 0.0625, 0.3125, 0.125, 0.3775, 0.1875],
  "SoftwareVersions": "syngo MR E11",
  "SpacingBetweenSlices": 2.7,
  "StationName": "AWP66112",
  "TaskName": "alignvideo",
  "TotalReadoutTime": 0.03969,
  "TxRefAmp": 232.246,
  "WipMemBlock": "fbed06a8-ed09-4b83-9519-022ff58e106d||Sequence: R016 ve11e/master r/434b28f1; Aug  7 2019 18:53:46 by eja",
  "dcmmeta_affine": [
    [-2.6812920570373535, 0.09222716838121414, 0.01635211706161499, 108.96455383300781],
    [0.09260296821594238, 2.6805038452148438, 0.0669097825884819, -101.23081970214844],
    [0.013948523439466953, -0.06700700521469116, 2.6991214752197266, -69.88153839111328],
    [0.0, 0.0, 0.0, 1.0]
],
  "dcmmeta_reorient_transform": [
    [0.0, -1.0, 0.0, 81.0],
    [1.0, 0.0, 0.0, 0.0],
    [0.0, 0.0, 1.0, 0.0],
    [0.0, 0.0, 0.0, 1.0]
],
  "dcmmeta_shape": [82, 82, 56, 926],
  "dcmmeta_slice_dim": 2,
  "dcmmeta_version": 0.6,
  "global": {
    "const": {
      "AccessionNumber": "A003870",
      "AcquisitionMatrix": [82, 0, 0, 82],
      "AngioFlag": "N",
      "BitsAllocated": 16,
      "BitsStored": 16,
      "BodyPartExamined": "BRAIN",
      "Columns": 656,
      "EchoNumbers": 1,
      "EchoTime": 27.2,
      "EchoTrainLength": 82,
      "FlipAngle": 44.0,
      "HighBit": 15,
      "ImageOrientationPatient": [0.99939063445092, -0.0345156518484, 0.00519899502395, 0.03437558030416, 0.99909686817598, 0.02497533742919],
      "ImagePositionPatient": [-912.43495732071, -858.61754998555, -98.543342391063],
      "ImageType": [
        "ORIGINAL",
        "PRIMARY",
        "M",
        "MB",
        "ND",
        "NORM",
        "MOSAIC"
],
      "ImagedNucleus": "1H",
      "ImagingFrequency": 123.252273,
      "InPlanePhaseEncodingDirection": "COL",
      "MRAcquisitionType": "2D",
      "MagneticFieldStrength": 3.0,
      "Manufacturer": "SIEMENS",
      "ManufacturerModelName": "Prisma",
      "Modality": "MR",
      "NumberOfAverages": 1.0,
      "NumberOfPhaseEncodingSteps": 82,
      "PercentPhaseFieldOfView": 100.0,
      "PercentSampling": 100.0,
      "PerformedProcedureStepStartTime": "161920.169000",
      "PhotometricInterpretation": "MONOCHROME2",
      "PixelBandwidth": 3050.0,
      "PixelRepresentation": 0,
      "PixelSpacing": [2.6829268932343, 2.6829268932343],
      "ProtocolName": "func_run-02_task-alignvideo_acq-ap-mb8",
      "RepetitionTime": 460.0,
      "Rows": 656,
      "SAR": 0.09968391633601,
      "SamplesPerPixel": 1,
      "ScanOptions": "FS",
      "ScanningSequence": "EP",
      "SequenceName": "epfid2d1_82",
      "SequenceVariant": [
        "SK",
        "SS"
],
      "SeriesDescription": "func_run-02_task-alignvideo_acq-ap-mb8",
      "SeriesNumber": 34,
      "SeriesTime": "175441.724000",
      "SliceLocation": -71.707510438822,
      "SliceThickness": 2.7000000476837,
      "SmallestImagePixelValue": 0,
      "SoftwareVersions": "syngo MR E11",
      "SpacingBetweenSlices": 2.7000000903841,
      "SpecificCharacterSet": "ISO_IR 100",
      "StudyID": "1",
      "StudyTime": "161920.099000",
      "TransmitCoilName": "Body",
      "VariableFlipAngleFlag": "N",
      "WindowCenterWidthExplanation": "Algo1"
    },
    "slices": {}
  },
  "time": {
    "samples": {
      "AcquisitionNumber": [1, 2, 3, 4, 5, 6, 7, 8, 9, 10, 11, 12, 13, 14, 15, 16, 17, 18, 19, 20, 21, 22, 23, 24, 25, 26, 27, 28, 29, 30, 31, 32, 33, 34, 35, 36, 37, 38, 39, 40, 41, 42, 43, 44, 45, 46, 47, 48, 49, 50, 51, 52, 53, 54, 55, 56, 57, 58, 59, 60, 61, 62, 63, 64, 65, 66, 67, 68, 69, 70, 71, 72, 73, 74, 75, 76, 77, 78, 79, 80, 81, 82, 83, 84, 85, 86, 87, 88, 89, 90, 91, 92, 93, 94, 95, 96, 97, 98, 99, 100, 101, 102, 103, 104, 105, 106, 107, 108, 109, 110, 111, 112, 113, 114, 115, 116, 117, 118, 119, 120, 121, 122, 123, 124, 125, 126, 127, 128, 129, 130, 131, 132, 133, 134, 135, 136, 137, 138, 139, 140, 141, 142, 143, 144, 145, 146, 147, 148, 149, 150, 151, 152, 153, 154, 155, 156, 157, 158, 159, 160, 161, 162, 163, 164, 165, 166, 167, 168, 169, 170, 171, 172, 173, 174, 175, 176, 177, 178, 179, 180, 181, 182, 183, 184, 185, 186, 187, 188, 189, 190, 191, 192, 193, 194, 195, 196, 197, 198, 199, 200, 201, 202, 203, 204, 205, 206, 207, 208, 209, 210, 211, 212, 213, 214, 215, 216, 217, 218, 219, 220, 221, 222, 223, 224, 225, 226, 227, 228, 229, 230, 231, 232, 233, 234, 235, 236, 237, 238, 239, 240, 241, 242, 243, 244, 245, 246, 247, 248, 249, 250, 251, 252, 253, 254, 255, 256, 257, 258, 259, 260, 261, 262, 263, 264, 265, 266, 267, 268, 269, 270, 271, 272, 273, 274, 275, 276, 277, 278, 279, 280, 281, 282, 283, 284, 285, 286, 287, 288, 289, 290, 291, 292, 293, 294, 295, 296, 297, 298, 299, 300, 301, 302, 303, 304, 305, 306, 307, 308, 309, 310, 311, 312, 313, 314, 315, 316, 317, 318, 319, 320, 321, 322, 323, 324, 325, 326, 327, 328, 329, 330, 331, 332, 333, 334, 335, 336, 337, 338, 339, 340, 341, 342, 343, 344, 345, 346, 347, 348, 349, 350, 351, 352, 353, 354, 355, 356, 357, 358, 359, 360, 361, 362, 363, 364, 365, 366, 367, 368, 369, 370, 371, 372, 373, 374, 375, 376, 377, 378, 379, 380, 381, 382, 383, 384, 385, 386, 387, 388, 389, 390, 391, 392, 393, 394, 395, 396, 397, 398, 399, 400, 401, 402, 403, 404, 405, 406, 407, 408, 409, 410, 411, 412, 413, 414, 415, 416, 417, 418, 419, 420, 421, 422, 423, 424, 425, 426, 427, 428, 429, 430, 431, 432, 433, 434, 435, 436, 437, 438, 439, 440, 441, 442, 443, 444, 445, 446, 447, 448, 449, 450, 451, 452, 453, 454, 455, 456, 457, 458, 459, 460, 461, 462, 463, 464, 465, 466, 467, 468, 469, 470, 471, 472, 473, 474, 475, 476, 477, 478, 479, 480, 481, 482, 483, 484, 485, 486, 487, 488, 489, 490, 491, 492, 493, 494, 495, 496, 497, 498, 499, 500, 501, 502, 503, 504, 505, 506, 507, 508, 509, 510, 511, 512, 513, 514, 515, 516, 517, 518, 519, 520, 521, 522, 523, 524, 525, 526, 527, 528, 529, 530, 531, 532, 533, 534, 535, 536, 537, 538, 539, 540, 541, 542, 543, 544, 545, 546, 547, 548, 549, 550, 551, 552, 553, 554, 555, 556, 557, 558, 559, 560, 561, 562, 563, 564, 565, 566, 567, 568, 569, 570, 571, 572, 573, 574, 575, 576, 577, 578, 579, 580, 581, 582, 583, 584, 585, 586, 587, 588, 589, 590, 591, 592, 593, 594, 595, 596, 597, 598, 599, 600, 601, 602, 603, 604, 605, 606, 607, 608, 609, 610, 611, 612, 613, 614, 615, 616, 617, 618, 619, 620, 621, 622, 623, 624, 625, 626, 627, 628, 629, 630, 631, 632, 633, 634, 635, 636, 637, 638, 639, 640, 641, 642, 643, 644, 645, 646, 647, 648, 649, 650, 651, 652, 653, 654, 655, 656, 657, 658, 659, 660, 661, 662, 663, 664, 665, 666, 667, 668, 669, 670, 671, 672, 673, 674, 675, 676, 677, 678, 679, 680, 681, 682, 683, 684, 685, 686, 687, 688, 689, 690, 691, 692, 693, 694, 695, 696, 697, 698, 699, 700, 701, 702, 703, 704, 705, 706, 707, 708, 709, 710, 711, 712, 713, 714, 715, 716, 717, 718, 719, 720, 721, 722, 723, 724, 725, 726, 727, 728, 729, 730, 731, 732, 733, 734, 735, 736, 737, 738, 739, 740, 741, 742, 743, 744, 745, 746, 747, 748, 749, 750, 751, 752, 753, 754, 755, 756, 757, 758, 759, 760, 761, 762, 763, 764, 765, 766, 767, 768, 769, 770, 771, 772, 773, 774, 775, 776, 777, 778, 779, 780, 781, 782, 783, 784, 785, 786, 787, 788, 789, 790, 791, 792, 793, 794, 795, 796, 797, 798, 799, 800, 801, 802, 803, 804, 805, 806, 807, 808, 809, 810, 811, 812, 813, 814, 815, 816, 817, 818, 819, 820, 821, 822, 823, 824, 825, 826, 827, 828, 829, 830, 831, 832, 833, 834, 835, 836, 837, 838, 839, 840, 841, 842, 843, 844, 845, 846, 847, 848, 849, 850, 851, 852, 853, 854, 855, 856, 857, 858, 859, 860, 861, 862, 863, 864, 865, 866, 867, 868, 869, 870, 871, 872, 873, 874, 875, 876, 877, 878, 879, 880, 881, 882, 883, 884, 885, 886, 887, 888, 889, 890, 891, 892, 893, 894, 895, 896, 897, 898, 899, 900, 901, 902, 903, 904, 905, 906, 907, 908, 909, 910, 911, 912, 913, 914, 915, 916, 917, 918, 919, 920, 921, 922, 923, 924, 925, 926],
      "AcquisitionTime": ["175420.902500", "175421.362500", "175421.822500", "175422.282500", "175422.742500", "175423.202500", "175423.662500", "175424.122500", "175424.582500", "175425.042500", "175425.502500", "175425.962500", "175426.422500", "175426.882500", "175427.342500", "175427.802500", "175428.262500", "175428.722500", "175429.182500", "175429.642500", "175430.102500", "175430.562500", "175431.022500", "175431.482500", "175431.942500", "175432.402500", "175432.862500", "175433.322500", "175433.782500", "175434.242500", "175434.702500", "175435.162500", "175435.622500", "175436.082500", "175436.542500", "175437.002500", "175437.462500", "175437.922500", "175438.382500", "175438.842500", "175439.302500", "175439.762500", "175440.222500", "175440.682500", "175441.142500", "175441.602500", "175442.062500", "175442.522500", "175442.982500", "175443.442500", "175443.902500", "175444.362500", "175444.822500", "175445.282500", "175445.742500", "175446.202500", "175446.662500", "175447.122500", "175447.582500", "175448.042500", "175448.502500", "175448.962500", "175449.422500", "175449.882500", "175450.342500", "175450.802500", "175451.262500", "175451.722500", "175452.182500", "175452.642500", "175453.102500", "175453.562500", "175454.022500", "175454.482500", "175454.942500", "175455.402500", "175455.862500", "175456.322500", "175456.782500", "175457.242500", "175457.702500", "175458.162500", "175458.622500", "175459.082500", "175459.542500", "175500.002500", "175500.462500", "175500.922500", "175501.382500", "175501.842500", "175502.302500", "175502.762500", "175503.222500", "175503.682500", "175504.142500", "175504.602500", "175505.062500", "175505.522500", "175505.982500", "175506.442500", "175506.902500", "175507.362500", "175507.822500", "175508.282500", "175508.742500", "175509.202500", "175509.662500", "175510.122500", "175510.582500", "175511.042500", "175511.502500", "175511.962500", "175512.422500", "175512.882500", "175513.342500", "175513.802500", "175514.262500", "175514.722500", "175515.182500", "175515.642500", "175516.102500", "175516.562500", "175517.022500", "175517.482500", "175517.942500", "175518.402500", "175518.862500", "175519.322500", "175519.782500", "175520.242500", "175520.702500", "175521.162500", "175521.622500", "175522.082500", "175522.542500", "175523.002500", "175523.462500", "175523.922500", "175524.382500", "175524.842500", "175525.302500", "175525.762500", "175526.222500", "175526.682500", "175527.142500", "175527.602500", "175528.062500", "175528.522500", "175528.982500", "175529.442500", "175529.902500", "175530.362500", "175530.822500", "175531.282500", "175531.742500", "175532.202500", "175532.662500", "175533.122500", "175533.582500", "175534.042500", "175534.502500", "175534.962500", "175535.422500", "175535.882500", "175536.342500", "175536.802500", "175537.262500", "175537.722500", "175538.182500", "175538.642500", "175539.102500", "175539.562500", "175540.022500", "175540.482500", "175540.942500", "175541.402500", "175541.862500", "175542.322500", "175542.782500", "175543.242500", "175543.702500", "175544.162500", "175544.622500", "175545.082500", "175545.542500", "175546.002500", "175546.462500", "175546.922500", "175547.382500", "175547.842500", "175548.302500", "175548.762500", "175549.222500", "175549.682500", "175550.142500", "175550.602500", "175551.062500", "175551.522500", "175551.982500", "175552.442500", "175552.902500", "175553.362500", "175553.822500", "175554.282500", "175554.742500", "175555.202500", "175555.662500", "175556.122500", "175556.582500", "175557.042500", "175557.502500", "175557.962500", "175558.422500", "175558.882500", "175559.342500", "175559.802500", "175600.262500", "175600.722500", "175601.182500", "175601.642500", "175602.102500", "175602.562500", "175603.022500", "175603.482500", "175603.942500", "175604.402500", "175604.862500", "175605.322500", "175605.782500", "175606.242500", "175606.702500", "175607.162500", "175607.622500", "175608.082500", "175608.542500", "175609.002500", "175609.462500", "175609.922500", "175610.382500", "175610.842500", "175611.302500", "175611.762500", "175612.222500", "175612.682500", "175613.142500", "175613.602500", "175614.062500", "175614.522500", "175614.982500", "175615.442500", "175615.902500", "175616.362500", "175616.822500", "175617.282500", "175617.742500", "175618.202500", "175618.662500", "175619.122500", "175619.582500", "175620.042500", "175620.502500", "175620.962500", "175621.422500", "175621.882500", "175622.342500", "175622.802500", "175623.262500", "175623.722500", "175624.182500", "175624.642500", "175625.102500", "175625.562500", "175626.022500", "175626.482500", "175626.942500", "175627.402500", "175627.862500", "175628.322500", "175628.782500", "175629.242500", "175629.702500", "175630.162500", "175630.622500", "175631.082500", "175631.542500", "175632.002500", "175632.462500", "175632.922500", "175633.382500", "175633.842500", "175634.302500", "175634.762500", "175635.222500", "175635.682500", "175636.142500", "175636.602500", "175637.062500", "175637.522500", "175637.982500", "175638.442500", "175638.902500", "175639.362500", "175639.822500", "175640.282500", "175640.742500", "175641.202500", "175641.662500", "175642.122500", "175642.582500", "175643.042500", "175643.502500", "175643.962500", "175644.422500", "175644.882500", "175645.342500", "175645.802500", "175646.262500", "175646.722500", "175647.182500", "175647.642500", "175648.102500", "175648.562500", "175649.022500", "175649.482500", "175649.942500", "175650.402500", "175650.862500", "175651.322500", "175651.782500", "175652.242500", "175652.702500", "175653.162500", "175653.622500", "175654.082500", "175654.542500", "175655.002500", "175655.462500", "175655.922500", "175656.382500", "175656.842500", "175657.302500", "175657.762500", "175658.222500", "175658.682500", "175659.142500", "175659.602500", "175700.062500", "175700.522500", "175700.982500", "175701.442500", "175701.902500", "175702.362500", "175702.822500", "175703.282500", "175703.742500", "175704.202500", "175704.662500", "175705.122500", "175705.582500", "175706.042500", "175706.502500", "175706.962500", "175707.422500", "175707.882500", "175708.342500", "175708.802500", "175709.262500", "175709.722500", "175710.182500", "175710.642500", "175711.102500", "175711.562500", "175712.022500", "175712.482500", "175712.942500", "175713.402500", "175713.862500", "175714.322500", "175714.782500", "175715.242500", "175715.702500", "175716.162500", "175716.622500", "175717.082500", "175717.542500", "175718.002500", "175718.462500", "175718.922500", "175719.382500", "175719.842500", "175720.302500", "175720.762500", "175721.222500", "175721.682500", "175722.142500", "175722.602500", "175723.062500", "175723.522500", "175723.982500", "175724.442500", "175724.902500", "175725.362500", "175725.822500", "175726.282500", "175726.742500", "175727.202500", "175727.662500", "175728.122500", "175728.582500", "175729.042500", "175729.502500", "175729.962500", "175730.422500", "175730.882500", "175731.342500", "175731.802500", "175732.262500", "175732.722500", "175733.182500", "175733.642500", "175734.102500", "175734.562500", "175735.022500", "175735.482500", "175735.942500", "175736.402500", "175736.862500", "175737.322500", "175737.782500", "175738.242500", "175738.702500", "175739.162500", "175739.622500", "175740.082500", "175740.542500", "175741.002500", "175741.462500", "175741.922500", "175742.382500", "175742.842500", "175743.302500", "175743.762500", "175744.222500", "175744.682500", "175745.142500", "175745.602500", "175746.062500", "175746.522500", "175746.982500", "175747.442500", "175747.902500", "175748.362500", "175748.822500", "175749.282500", "175749.742500", "175750.202500", "175750.662500", "175751.122500", "175751.582500", "175752.042500", "175752.502500", "175752.962500", "175753.422500", "175753.882500", "175754.342500", "175754.802500", "175755.262500", "175755.722500", "175756.182500", "175756.642500", "175757.102500", "175757.562500", "175758.022500", "175758.482500", "175758.942500", "175759.402500", "175759.862500", "175800.322500", "175800.782500", "175801.242500", "175801.702500", "175802.162500", "175802.622500", "175803.082500", "175803.542500", "175804.002500", "175804.462500", "175804.922500", "175805.382500", "175805.842500", "175806.302500", "175806.762500", "175807.222500", "175807.682500", "175808.142500", "175808.602500", "175809.062500", "175809.522500", "175809.982500", "175810.442500", "175810.902500", "175811.362500", "175811.822500", "175812.282500", "175812.742500", "175813.202500", "175813.662500", "175814.122500", "175814.582500", "175815.042500", "175815.502500", "175815.962500", "175816.422500", "175816.882500", "175817.342500", "175817.802500", "175818.262500", "175818.722500", "175819.182500", "175819.642500", "175820.102500", "175820.562500", "175821.022500", "175821.482500", "175821.942500", "175822.402500", "175822.862500", "175823.322500", "175823.782500", "175824.242500", "175824.702500", "175825.162500", "175825.622500", "175826.082500", "175826.542500", "175827.002500", "175827.462500", "175827.922500", "175828.382500", "175828.842500", "175829.302500", "175829.762500", "175830.222500", "175830.682500", "175831.142500", "175831.602500", "175832.062500", "175832.522500", "175832.982500", "175833.442500", "175833.902500", "175834.362500", "175834.822500", "175835.282500", "175835.742500", "175836.202500", "175836.662500", "175837.122500", "175837.582500", "175838.042500", "175838.502500", "175838.962500", "175839.422500", "175839.882500", "175840.342500", "175840.802500", "175841.262500", "175841.722500", "175842.182500", "175842.642500", "175843.102500", "175843.562500", "175844.022500", "175844.482500", "175844.942500", "175845.402500", "175845.862500", "175846.322500", "175846.782500", "175847.242500", "175847.702500", "175848.162500", "175848.622500", "175849.082500", "175849.542500", "175850.002500", "175850.462500", "175850.922500", "175851.382500", "175851.842500", "175852.302500", "175852.762500", "175853.222500", "175853.682500", "175854.142500", "175854.602500", "175855.062500", "175855.522500", "175855.982500", "175856.442500", "175856.902500", "175857.362500", "175857.822500", "175858.282500", "175858.742500", "175859.202500", "175859.662500", "175900.122500", "175900.582500", "175901.042500", "175901.502500", "175901.962500", "175902.422500", "175902.882500", "175903.342500", "175903.802500", "175904.262500", "175904.722500", "175905.182500", "175905.642500", "175906.102500", "175906.562500", "175907.022500", "175907.482500", "175907.942500", "175908.402500", "175908.862500", "175909.322500", "175909.782500", "175910.242500", "175910.702500", "175911.162500", "175911.622500", "175912.082500", "175912.542500", "175913.002500", "175913.462500", "175913.922500", "175914.382500", "175914.842500", "175915.302500", "175915.762500", "175916.222500", "175916.682500", "175917.142500", "175917.602500", "175918.062500", "175918.522500", "175918.982500", "175919.442500", "175919.902500", "175920.362500", "175920.822500", "175921.282500", "175921.742500", "175922.202500", "175922.662500", "175923.122500", "175923.582500", "175924.042500", "175924.502500", "175924.962500", "175925.422500", "175925.882500", "175926.342500", "175926.802500", "175927.262500", "175927.722500", "175928.182500", "175928.642500", "175929.102500", "175929.562500", "175930.022500", "175930.482500", "175930.942500", "175931.402500", "175931.862500", "175932.322500", "175932.782500", "175933.242500", "175933.702500", "175934.162500", "175934.622500", "175935.082500", "175935.542500", "175936.002500", "175936.462500", "175936.922500", "175937.382500", "175937.842500", "175938.302500", "175938.762500", "175939.222500", "175939.682500", "175940.142500", "175940.602500", "175941.062500", "175941.522500", "175941.982500", "175942.442500", "175942.902500", "175943.362500", "175943.822500", "175944.282500", "175944.742500", "175945.202500", "175945.662500", "175946.122500", "175946.582500", "175947.042500", "175947.502500", "175947.962500", "175948.422500", "175948.882500", "175949.342500", "175949.802500", "175950.262500", "175950.722500", "175951.182500", "175951.642500", "175952.102500", "175952.562500", "175953.022500", "175953.482500", "175953.942500", "175954.402500", "175954.862500", "175955.322500", "175955.782500", "175956.242500", "175956.702500", "175957.162500", "175957.622500", "175958.082500", "175958.542500", "175959.002500", "175959.462500", "175959.922500", "180000.382500", "180000.842500", "180001.302500", "180001.762500", "180002.222500", "180002.682500", "180003.142500", "180003.602500", "180004.062500", "180004.522500", "180004.982500", "180005.442500", "180005.902500", "180006.362500", "180006.822500", "180007.282500", "180007.742500", "180008.202500", "180008.662500", "180009.122500", "180009.582500", "180010.042500", "180010.502500", "180010.962500", "180011.422500", "180011.882500", "180012.342500", "180012.802500", "180013.262500", "180013.722500", "180014.182500", "180014.642500", "180015.102500", "180015.562500", "180016.022500", "180016.482500", "180016.942500", "180017.402500", "180017.862500", "180018.322500", "180018.782500", "180019.242500", "180019.702500", "180020.162500", "180020.622500", "180021.082500", "180021.542500", "180022.002500", "180022.462500", "180022.922500", "180023.382500", "180023.842500", "180024.302500", "180024.762500", "180025.222500", "180025.682500", "180026.142500", "180026.602500", "180027.062500", "180027.522500", "180027.982500", "180028.442500", "180028.902500", "180029.362500", "180029.822500", "180030.282500", "180030.742500", "180031.202500", "180031.662500", "180032.122500", "180032.582500", "180033.042500", "180033.502500", "180033.962500", "180034.422500", "180034.882500", "180035.342500", "180035.802500", "180036.262500", "180036.722500", "180037.182500", "180037.642500", "180038.102500", "180038.562500", "180039.022500", "180039.482500", "180039.942500", "180040.402500", "180040.862500", "180041.322500", "180041.782500", "180042.242500", "180042.702500", "180043.162500", "180043.622500", "180044.082500", "180044.542500", "180045.002500", "180045.462500", "180045.922500", "180046.382500", "180046.842500", "180047.302500", "180047.762500", "180048.222500", "180048.682500", "180049.142500", "180049.602500", "180050.062500", "180050.522500", "180050.982500", "180051.442500", "180051.902500", "180052.362500", "180052.822500", "180053.282500", "180053.742500", "180054.202500", "180054.662500", "180055.122500", "180055.582500", "180056.042500", "180056.502500", "180056.962500", "180057.422500", "180057.882500", "180058.342500", "180058.802500", "180059.262500", "180059.722500", "180100.182500", "180100.642500", "180101.102500", "180101.562500", "180102.022500", "180102.482500", "180102.942500", "180103.402500", "180103.862500", "180104.322500", "180104.782500", "180105.242500", "180105.702500", "180106.162500", "180106.622500", "180107.082500", "180107.542500", "180108.002500", "180108.462500", "180108.922500", "180109.382500", "180109.842500", "180110.302500", "180110.762500", "180111.222500", "180111.682500", "180112.142500", "180112.602500", "180113.062500", "180113.522500", "180113.982500", "180114.442500", "180114.902500", "180115.362500", "180115.822500", "180116.282500", "180116.742500", "180117.202500", "180117.662500", "180118.122500", "180118.582500", "180119.042500", "180119.502500", "180119.962500", "180120.422500", "180120.882500", "180121.342500", "180121.802500", "180122.262500", "180122.722500", "180123.182500", "180123.642500", "180124.102500", "180124.562500", "180125.022500", "180125.482500", "180125.942500", "180126.402500"],
