{
  "AcquisitionMatrixPE": 82,
  "AcquisitionNumber": 1,
  "AcquisitionTime": "17:05:47.422500",
  "BandwidthPerPixelPhaseEncode": 24.888,
  "BaseResolution": 82,
  "BodyPartExamined": "BRAIN",
  "ConsistencyInfo": "N4_VE11E_LATEST_20181129",
  "ConversionSoftware": "dcm2niix",
  "ConversionSoftwareVersion": "v1.0.20201102",
  "DerivedVendorReportedEchoSpacing": 0.00049,
  "DeviceSerialNumber": "66112",
  "DwellTime": 2e-06,
  "EchoTime": 0.0272,
  "EchoTrainLength": 82,
  "EffectiveEchoSpacing": 0.00049,
  "FlipAngle": 44,
  "ImageComments": "Unaliased MB8/PE3",
  "ImageOrientationPatientDICOM": [0.999958, -0.0029904, -0.00865033, 0.00279239, 0.999736, -0.0228127],
  "ImageType": [
    "ORIGINAL",
    "PRIMARY",
    "M",
    "MB",
    "ND",
    "NORM",
    "MOSAIC"
],
  "ImagingFrequency": 123.252,
  "InPlanePhaseEncodingDirectionDICOM": "COL",
  "InstitutionAddress": "Maynard 3,Hanover,NH,US,03755",
  "InstitutionName": "Dartmouth College - PBS",
  "InstitutionalDepartmentName": "Department",
  "MRAcquisitionType": "2D",
  "MagneticFieldStrength": 3,
  "Manufacturer": "Siemens",
  "ManufacturersModelName": "Prisma",
  "Modality": "MR",
  "MultibandAccelerationFactor": 8,
  "PartialFourier": 1,
  "PatientPosition": "HFS",
  "PercentPhaseFOV": 100,
  "PercentSampling": 100,
  "PhaseEncodingDirection": "j-",
  "PhaseEncodingSteps": 82,
  "PhaseResolution": 1,
  "PixelBandwidth": 3050,
  "ProcedureStepDescription": "Wager_Wager^1076_spacetop",
  "ProtocolName": "func_run-02_task-social_acq-ap-mb8",
  "PulseSequenceDetails": "%CustomerSeq%\\cmrr_mbep2d_bold",
  "ReceiveCoilActiveElements": "HEA;HEP",
  "ReceiveCoilName": "Head_32",
  "ReconMatrixPE": 82,
  "RepetitionTime": 0.46,
  "SAR": 0.0996478,
  "ScanOptions": "FS",
  "ScanningSequence": "EP",
  "SequenceName": "epfid2d1_82",
  "SequenceVariant": "SK\\SS",
  "SeriesDescription": "func_run-02_task-social_acq-ap-mb8",
  "SeriesNumber": 16,
  "ShimSetting": [4162, -7671, -7280, 465, 17, -33, 37, 81],
  "SliceThickness": 2.7,
  "SliceTiming": [0, 0.2525, 0.0625, 0.315, 0.125, 0.3775, 0.1875, 0, 0.2525, 0.0625, 0.315, 0.125, 0.3775, 0.1875, 0, 0.2525, 0.0625, 0.315, 0.125, 0.3775, 0.1875, 0, 0.2525, 0.0625, 0.315, 0.125, 0.3775, 0.1875, 0, 0.2525, 0.0625, 0.315, 0.125, 0.3775, 0.1875, 0, 0.2525, 0.0625, 0.315, 0.125, 0.3775, 0.1875, 0, 0.2525, 0.0625, 0.315, 0.125, 0.3775, 0.1875, 0, 0.2525, 0.0625, 0.315, 0.125, 0.3775, 0.1875],
  "SoftwareVersions": "syngo MR E11",
  "SpacingBetweenSlices": 2.7,
  "StationName": "AWP66112",
  "TaskName": "social",
  "TotalReadoutTime": 0.03969,
  "TxRefAmp": 232.246,
  "WipMemBlock": "cd594b86-2e08-458c-8c69-84288f9708cd||Sequence: R016 ve11e/master r/434b28f1; Aug  7 2019 18:53:46 by eja",
  "dcmmeta_affine": [
    [-2.682814598083496, 0.007491772063076496, -0.023533904924988747, 112.59036254882812],
    [0.008023018948733807, 2.682218313217163, -0.06152641773223877, -93.47333526611328],
    [-0.023208193480968475, 0.061204731464385986, 2.6991963386535645, -70.43087768554688],
    [0.0, 0.0, 0.0, 1.0]
],
  "dcmmeta_reorient_transform": [
    [0.0, -1.0, 0.0, 81.0],
    [1.0, 0.0, 0.0, 0.0],
    [0.0, 0.0, 1.0, 0.0],
    [0.0, 0.0, 0.0, 1.0]
],
  "dcmmeta_shape": [82, 82, 56, 872],
  "dcmmeta_slice_dim": 2,
  "dcmmeta_version": 0.6,
  "global": {
    "const": {
      "AccessionNumber": "A003870",
      "AcquisitionMatrix": [82, 0, 0, 82],
      "AngioFlag": "N",
      "BitsAllocated": 16,
      "BitsStored": 16,
      "BodyPartExamined": "BRAIN",
      "Columns": 656,
      "EchoNumbers": 1,
      "EchoTime": 27.2,
      "EchoTrainLength": 82,
      "FlipAngle": 44.0,
      "HighBit": 15,
      "ImageOrientationPatient": [0.9999581138067, -0.0029903977545, -0.0086503267813, 0.00279238775233, 0.99973585738301, -0.0228126726472],
      "ImagePositionPatient": [-885.31509927992, -891.28036017875, -41.246786832556],
      "ImageType": [
        "ORIGINAL",
        "PRIMARY",
        "M",
        "MB",
        "ND",
        "NORM",
        "MOSAIC"
],
      "ImagedNucleus": "1H",
      "ImagingFrequency": 123.252263,
      "InPlanePhaseEncodingDirection": "COL",
      "MRAcquisitionType": "2D",
      "MagneticFieldStrength": 3.0,
      "Manufacturer": "SIEMENS",
      "ManufacturerModelName": "Prisma",
      "Modality": "MR",
      "NumberOfAverages": 1.0,
      "NumberOfPhaseEncodingSteps": 82,
      "PercentPhaseFieldOfView": 100.0,
      "PercentSampling": 100.0,
      "PerformedProcedureStepStartTime": "161920.169000",
      "PhotometricInterpretation": "MONOCHROME2",
      "PixelBandwidth": 3050.0,
      "PixelRepresentation": 0,
      "PixelSpacing": [2.6829268932343, 2.6829268932343],
      "ProtocolName": "func_run-02_task-social_acq-ap-mb8",
      "RepetitionTime": 460.0,
      "Rows": 656,
      "SAR": 0.09964782269,
      "SamplesPerPixel": 1,
      "ScanOptions": "FS",
      "ScanningSequence": "EP",
      "SequenceName": "epfid2d1_82",
      "SequenceVariant": [
        "SK",
        "SS"
],
      "SeriesDescription": "func_run-02_task-social_acq-ap-mb8",
      "SeriesNumber": 16,
      "SeriesTime": "170601.731000",
      "SliceLocation": -69.261252834511,
      "SliceThickness": 2.7000000476837,
      "SmallestImagePixelValue": 0,
      "SoftwareVersions": "syngo MR E11",
      "SpacingBetweenSlices": 2.6999999800077,
      "SpecificCharacterSet": "ISO_IR 100",
      "StudyID": "1",
      "StudyTime": "161920.099000",
      "TransmitCoilName": "Body",
      "VariableFlipAngleFlag": "N",
      "WindowCenterWidthExplanation": "Algo1"
    },
    "slices": {}
  },
  "time": {
    "samples": {
      "AcquisitionNumber": [1, 2, 3, 4, 5, 6, 7, 8, 9, 10, 11, 12, 13, 14, 15, 16, 17, 18, 19, 20, 21, 22, 23, 24, 25, 26, 27, 28, 29, 30, 31, 32, 33, 34, 35, 36, 37, 38, 39, 40, 41, 42, 43, 44, 45, 46, 47, 48, 49, 50, 51, 52, 53, 54, 55, 56, 57, 58, 59, 60, 61, 62, 63, 64, 65, 66, 67, 68, 69, 70, 71, 72, 73, 74, 75, 76, 77, 78, 79, 80, 81, 82, 83, 84, 85, 86, 87, 88, 89, 90, 91, 92, 93, 94, 95, 96, 97, 98, 99, 100, 101, 102, 103, 104, 105, 106, 107, 108, 109, 110, 111, 112, 113, 114, 115, 116, 117, 118, 119, 120, 121, 122, 123, 124, 125, 126, 127, 128, 129, 130, 131, 132, 133, 134, 135, 136, 137, 138, 139, 140, 141, 142, 143, 144, 145, 146, 147, 148, 149, 150, 151, 152, 153, 154, 155, 156, 157, 158, 159, 160, 161, 162, 163, 164, 165, 166, 167, 168, 169, 170, 171, 172, 173, 174, 175, 176, 177, 178, 179, 180, 181, 182, 183, 184, 185, 186, 187, 188, 189, 190, 191, 192, 193, 194, 195, 196, 197, 198, 199, 200, 201, 202, 203, 204, 205, 206, 207, 208, 209, 210, 211, 212, 213, 214, 215, 216, 217, 218, 219, 220, 221, 222, 223, 224, 225, 226, 227, 228, 229, 230, 231, 232, 233, 234, 235, 236, 237, 238, 239, 240, 241, 242, 243, 244, 245, 246, 247, 248, 249, 250, 251, 252, 253, 254, 255, 256, 257, 258, 259, 260, 261, 262, 263, 264, 265, 266, 267, 268, 269, 270, 271, 272, 273, 274, 275, 276, 277, 278, 279, 280, 281, 282, 283, 284, 285, 286, 287, 288, 289, 290, 291, 292, 293, 294, 295, 296, 297, 298, 299, 300, 301, 302, 303, 304, 305, 306, 307, 308, 309, 310, 311, 312, 313, 314, 315, 316, 317, 318, 319, 320, 321, 322, 323, 324, 325, 326, 327, 328, 329, 330, 331, 332, 333, 334, 335, 336, 337, 338, 339, 340, 341, 342, 343, 344, 345, 346, 347, 348, 349, 350, 351, 352, 353, 354, 355, 356, 357, 358, 359, 360, 361, 362, 363, 364, 365, 366, 367, 368, 369, 370, 371, 372, 373, 374, 375, 376, 377, 378, 379, 380, 381, 382, 383, 384, 385, 386, 387, 388, 389, 390, 391, 392, 393, 394, 395, 396, 397, 398, 399, 400, 401, 402, 403, 404, 405, 406, 407, 408, 409, 410, 411, 412, 413, 414, 415, 416, 417, 418, 419, 420, 421, 422, 423, 424, 425, 426, 427, 428, 429, 430, 431, 432, 433, 434, 435, 436, 437, 438, 439, 440, 441, 442, 443, 444, 445, 446, 447, 448, 449, 450, 451, 452, 453, 454, 455, 456, 457, 458, 459, 460, 461, 462, 463, 464, 465, 466, 467, 468, 469, 470, 471, 472, 473, 474, 475, 476, 477, 478, 479, 480, 481, 482, 483, 484, 485, 486, 487, 488, 489, 490, 491, 492, 493, 494, 495, 496, 497, 498, 499, 500, 501, 502, 503, 504, 505, 506, 507, 508, 509, 510, 511, 512, 513, 514, 515, 516, 517, 518, 519, 520, 521, 522, 523, 524, 525, 526, 527, 528, 529, 530, 531, 532, 533, 534, 535, 536, 537, 538, 539, 540, 541, 542, 543, 544, 545, 546, 547, 548, 549, 550, 551, 552, 553, 554, 555, 556, 557, 558, 559, 560, 561, 562, 563, 564, 565, 566, 567, 568, 569, 570, 571, 572, 573, 574, 575, 576, 577, 578, 579, 580, 581, 582, 583, 584, 585, 586, 587, 588, 589, 590, 591, 592, 593, 594, 595, 596, 597, 598, 599, 600, 601, 602, 603, 604, 605, 606, 607, 608, 609, 610, 611, 612, 613, 614, 615, 616, 617, 618, 619, 620, 621, 622, 623, 624, 625, 626, 627, 628, 629, 630, 631, 632, 633, 634, 635, 636, 637, 638, 639, 640, 641, 642, 643, 644, 645, 646, 647, 648, 649, 650, 651, 652, 653, 654, 655, 656, 657, 658, 659, 660, 661, 662, 663, 664, 665, 666, 667, 668, 669, 670, 671, 672, 673, 674, 675, 676, 677, 678, 679, 680, 681, 682, 683, 684, 685, 686, 687, 688, 689, 690, 691, 692, 693, 694, 695, 696, 697, 698, 699, 700, 701, 702, 703, 704, 705, 706, 707, 708, 709, 710, 711, 712, 713, 714, 715, 716, 717, 718, 719, 720, 721, 722, 723, 724, 725, 726, 727, 728, 729, 730, 731, 732, 733, 734, 735, 736, 737, 738, 739, 740, 741, 742, 743, 744, 745, 746, 747, 748, 749, 750, 751, 752, 753, 754, 755, 756, 757, 758, 759, 760, 761, 762, 763, 764, 765, 766, 767, 768, 769, 770, 771, 772, 773, 774, 775, 776, 777, 778, 779, 780, 781, 782, 783, 784, 785, 786, 787, 788, 789, 790, 791, 792, 793, 794, 795, 796, 797, 798, 799, 800, 801, 802, 803, 804, 805, 806, 807, 808, 809, 810, 811, 812, 813, 814, 815, 816, 817, 818, 819, 820, 821, 822, 823, 824, 825, 826, 827, 828, 829, 830, 831, 832, 833, 834, 835, 836, 837, 838, 839, 840, 841, 842, 843, 844, 845, 846, 847, 848, 849, 850, 851, 852, 853, 854, 855, 856, 857, 858, 859, 860, 861, 862, 863, 864, 865, 866, 867, 868, 869, 870, 871, 872],
      "AcquisitionTime": ["170547.422500", "170547.882500", "170548.342500", "170548.802500", "170549.262500", "170549.722500", "170550.182500", "170550.642500", "170551.102500", "170551.562500", "170552.022500", "170552.482500", "170552.942500", "170553.402500", "170553.862500", "170554.322500", "170554.782500", "170555.242500", "170555.702500", "170556.162500", "170556.622500", "170557.082500", "170557.542500", "170558.002500", "170558.462500", "170558.922500", "170559.382500", "170559.842500", "170600.302500", "170600.762500", "170601.222500", "170601.682500", "170602.142500", "170602.602500", "170603.062500", "170603.522500", "170603.982500", "170604.442500", "170604.902500", "170605.362500", "170605.822500", "170606.282500", "170606.742500", "170607.202500", "170607.662500", "170608.122500", "170608.582500", "170609.042500", "170609.502500", "170609.962500", "170610.422500", "170610.882500", "170611.342500", "170611.802500", "170612.262500", "170612.722500", "170613.182500", "170613.642500", "170614.102500", "170614.562500", "170615.022500", "170615.482500", "170615.942500", "170616.402500", "170616.862500", "170617.322500", "170617.782500", "170618.242500", "170618.702500", "170619.162500", "170619.622500", "170620.082500", "170620.542500", "170621.002500", "170621.462500", "170621.922500", "170622.382500", "170622.842500", "170623.302500", "170623.762500", "170624.222500", "170624.682500", "170625.142500", "170625.602500", "170626.062500", "170626.522500", "170626.982500", "170627.442500", "170627.902500", "170628.362500", "170628.822500", "170629.282500", "170629.742500", "170630.202500", "170630.662500", "170631.122500", "170631.582500", "170632.042500", "170632.502500", "170632.962500", "170633.422500", "170633.882500", "170634.342500", "170634.802500", "170635.262500", "170635.722500", "170636.182500", "170636.642500", "170637.102500", "170637.562500", "170638.022500", "170638.482500", "170638.942500", "170639.402500", "170639.862500", "170640.322500", "170640.782500", "170641.242500", "170641.702500", "170642.162500", "170642.622500", "170643.082500", "170643.542500", "170644.002500", "170644.462500", "170644.922500", "170645.382500", "170645.842500", "170646.302500", "170646.762500", "170647.222500", "170647.682500", "170648.142500", "170648.602500", "170649.062500", "170649.522500", "170649.982500", "170650.442500", "170650.902500", "170651.362500", "170651.822500", "170652.282500", "170652.742500", "170653.202500", "170653.662500", "170654.122500", "170654.582500", "170655.042500", "170655.502500", "170655.962500", "170656.422500", "170656.882500", "170657.342500", "170657.802500", "170658.262500", "170658.722500", "170659.182500", "170659.642500", "170700.102500", "170700.562500", "170701.022500", "170701.482500", "170701.942500", "170702.402500", "170702.862500", "170703.322500", "170703.782500", "170704.242500", "170704.702500", "170705.162500", "170705.622500", "170706.082500", "170706.542500", "170707.002500", "170707.462500", "170707.922500", "170708.382500", "170708.842500", "170709.302500", "170709.762500", "170710.222500", "170710.682500", "170711.142500", "170711.602500", "170712.062500", "170712.522500", "170712.982500", "170713.442500", "170713.902500", "170714.362500", "170714.822500", "170715.282500", "170715.742500", "170716.202500", "170716.662500", "170717.122500", "170717.582500", "170718.042500", "170718.502500", "170718.962500", "170719.422500", "170719.882500", "170720.342500", "170720.802500", "170721.262500", "170721.722500", "170722.182500", "170722.642500", "170723.102500", "170723.562500", "170724.022500", "170724.482500", "170724.942500", "170725.402500", "170725.862500", "170726.322500", "170726.782500", "170727.242500", "170727.702500", "170728.162500", "170728.622500", "170729.082500", "170729.542500", "170730.002500", "170730.462500", "170730.922500", "170731.382500", "170731.842500", "170732.302500", "170732.762500", "170733.222500", "170733.682500", "170734.142500", "170734.602500", "170735.062500", "170735.522500", "170735.982500", "170736.442500", "170736.902500", "170737.362500", "170737.822500", "170738.282500", "170738.742500", "170739.202500", "170739.662500", "170740.122500", "170740.582500", "170741.042500", "170741.502500", "170741.962500", "170742.422500", "170742.882500", "170743.342500", "170743.802500", "170744.262500", "170744.722500", "170745.182500", "170745.642500", "170746.102500", "170746.562500", "170747.022500", "170747.482500", "170747.942500", "170748.402500", "170748.862500", "170749.322500", "170749.782500", "170750.242500", "170750.702500", "170751.162500", "170751.622500", "170752.082500", "170752.542500", "170753.002500", "170753.462500", "170753.922500", "170754.382500", "170754.842500", "170755.302500", "170755.762500", "170756.222500", "170756.682500", "170757.142500", "170757.602500", "170758.062500", "170758.522500", "170758.982500", "170759.442500", "170759.902500", "170800.362500", "170800.822500", "170801.282500", "170801.742500", "170802.202500", "170802.662500", "170803.122500", "170803.582500", "170804.042500", "170804.502500", "170804.962500", "170805.422500", "170805.882500", "170806.342500", "170806.802500", "170807.262500", "170807.722500", "170808.182500", "170808.642500", "170809.102500", "170809.562500", "170810.022500", "170810.482500", "170810.942500", "170811.402500", "170811.862500", "170812.322500", "170812.782500", "170813.242500", "170813.702500", "170814.162500", "170814.622500", "170815.082500", "170815.542500", "170816.002500", "170816.462500", "170816.922500", "170817.382500", "170817.842500", "170818.302500", "170818.762500", "170819.222500", "170819.682500", "170820.142500", "170820.602500", "170821.062500", "170821.522500", "170821.982500", "170822.442500", "170822.902500", "170823.362500", "170823.822500", "170824.282500", "170824.742500", "170825.202500", "170825.662500", "170826.122500", "170826.582500", "170827.042500", "170827.502500", "170827.962500", "170828.422500", "170828.882500", "170829.342500", "170829.802500", "170830.262500", "170830.722500", "170831.182500", "170831.642500", "170832.102500", "170832.562500", "170833.022500", "170833.482500", "170833.942500", "170834.402500", "170834.862500", "170835.322500", "170835.782500", "170836.242500", "170836.702500", "170837.162500", "170837.622500", "170838.082500", "170838.542500", "170839.002500", "170839.462500", "170839.922500", "170840.382500", "170840.842500", "170841.302500", "170841.762500", "170842.222500", "170842.682500", "170843.142500", "170843.602500", "170844.062500", "170844.522500", "170844.982500", "170845.442500", "170845.902500", "170846.362500", "170846.822500", "170847.282500", "170847.742500", "170848.202500", "170848.662500", "170849.122500", "170849.582500", "170850.042500", "170850.502500", "170850.962500", "170851.422500", "170851.882500", "170852.342500", "170852.802500", "170853.262500", "170853.722500", "170854.182500", "170854.642500", "170855.102500", "170855.562500", "170856.022500", "170856.482500", "170856.942500", "170857.402500", "170857.862500", "170858.322500", "170858.782500", "170859.242500", "170859.702500", "170900.162500", "170900.622500", "170901.082500", "170901.542500", "170902.002500", "170902.462500", "170902.922500", "170903.382500", "170903.842500", "170904.302500", "170904.762500", "170905.222500", "170905.682500", "170906.142500", "170906.602500", "170907.062500", "170907.522500", "170907.982500", "170908.442500", "170908.902500", "170909.362500", "170909.822500", "170910.282500", "170910.742500", "170911.202500", "170911.662500", "170912.122500", "170912.582500", "170913.042500", "170913.502500", "170913.962500", "170914.422500", "170914.882500", "170915.342500", "170915.802500", "170916.262500", "170916.722500", "170917.182500", "170917.642500", "170918.102500", "170918.562500", "170919.022500", "170919.482500", "170919.942500", "170920.402500", "170920.862500", "170921.322500", "170921.782500", "170922.242500", "170922.702500", "170923.162500", "170923.622500", "170924.082500", "170924.542500", "170925.002500", "170925.462500", "170925.922500", "170926.382500", "170926.842500", "170927.302500", "170927.762500", "170928.222500", "170928.682500", "170929.142500", "170929.602500", "170930.062500", "170930.522500", "170930.982500", "170931.442500", "170931.902500", "170932.362500", "170932.822500", "170933.282500", "170933.742500", "170934.202500", "170934.662500", "170935.122500", "170935.582500", "170936.042500", "170936.502500", "170936.962500", "170937.422500", "170937.882500", "170938.342500", "170938.802500", "170939.262500", "170939.722500", "170940.182500", "170940.642500", "170941.102500", "170941.562500", "170942.022500", "170942.482500", "170942.942500", "170943.402500", "170943.862500", "170944.322500", "170944.782500", "170945.242500", "170945.702500", "170946.162500", "170946.622500", "170947.082500", "170947.542500", "170948.002500", "170948.462500", "170948.922500", "170949.382500", "170949.842500", "170950.302500", "170950.762500", "170951.222500", "170951.682500", "170952.142500", "170952.602500", "170953.062500", "170953.522500", "170953.982500", "170954.442500", "170954.902500", "170955.362500", "170955.822500", "170956.282500", "170956.742500", "170957.202500", "170957.662500", "170958.122500", "170958.582500", "170959.042500", "170959.502500", "170959.962500", "171000.422500", "171000.882500", "171001.342500", "171001.802500", "171002.262500", "171002.722500", "171003.182500", "171003.642500", "171004.102500", "171004.562500", "171005.022500", "171005.482500", "171005.942500", "171006.402500", "171006.862500", "171007.322500", "171007.782500", "171008.242500", "171008.702500", "171009.162500", "171009.622500", "171010.082500", "171010.542500", "171011.002500", "171011.462500", "171011.922500", "171012.382500", "171012.842500", "171013.302500", "171013.762500", "171014.222500", "171014.682500", "171015.142500", "171015.602500", "171016.062500", "171016.522500", "171016.982500", "171017.442500", "171017.902500", "171018.362500", "171018.822500", "171019.282500", "171019.742500", "171020.202500", "171020.662500", "171021.122500", "171021.582500", "171022.042500", "171022.502500", "171022.962500", "171023.422500", "171023.882500", "171024.342500", "171024.802500", "171025.262500", "171025.722500", "171026.182500", "171026.642500", "171027.102500", "171027.562500", "171028.022500", "171028.482500", "171028.942500", "171029.402500", "171029.862500", "171030.322500", "171030.782500", "171031.242500", "171031.702500", "171032.162500", "171032.622500", "171033.082500", "171033.542500", "171034.002500", "171034.462500", "171034.922500", "171035.382500", "171035.842500", "171036.302500", "171036.762500", "171037.222500", "171037.682500", "171038.142500", "171038.602500", "171039.062500", "171039.522500", "171039.982500", "171040.442500", "171040.902500", "171041.362500", "171041.822500", "171042.282500", "171042.742500", "171043.202500", "171043.662500", "171044.122500", "171044.582500", "171045.042500", "171045.502500", "171045.962500", "171046.422500", "171046.882500", "171047.342500", "171047.802500", "171048.262500", "171048.722500", "171049.182500", "171049.642500", "171050.102500", "171050.562500", "171051.022500", "171051.482500", "171051.942500", "171052.402500", "171052.862500", "171053.322500", "171053.782500", "171054.242500", "171054.702500", "171055.162500", "171055.622500", "171056.082500", "171056.542500", "171057.002500", "171057.462500", "171057.922500", "171058.382500", "171058.842500", "171059.302500", "171059.762500", "171100.222500", "171100.682500", "171101.142500", "171101.602500", "171102.062500", "171102.522500", "171102.982500", "171103.442500", "171103.902500", "171104.362500", "171104.822500", "171105.282500", "171105.742500", "171106.202500", "171106.662500", "171107.122500", "171107.582500", "171108.042500", "171108.502500", "171108.962500", "171109.422500", "171109.882500", "171110.342500", "171110.802500", "171111.262500", "171111.722500", "171112.182500", "171112.642500", "171113.102500", "171113.562500", "171114.022500", "171114.482500", "171114.942500", "171115.402500", "171115.862500", "171116.322500", "171116.782500", "171117.242500", "171117.702500", "171118.162500", "171118.622500", "171119.082500", "171119.542500", "171120.002500", "171120.462500", "171120.922500", "171121.382500", "171121.842500", "171122.302500", "171122.762500", "171123.222500", "171123.682500", "171124.142500", "171124.602500", "171125.062500", "171125.522500", "171125.982500", "171126.442500", "171126.902500", "171127.362500", "171127.822500", "171128.282500", "171128.742500", "171129.202500", "171129.662500", "171130.122500", "171130.582500", "171131.042500", "171131.502500", "171131.962500", "171132.422500", "171132.882500", "171133.342500", "171133.802500", "171134.262500", "171134.722500", "171135.182500", "171135.642500", "171136.102500", "171136.562500", "171137.022500", "171137.482500", "171137.942500", "171138.402500", "171138.862500", "171139.322500", "171139.782500", "171140.242500", "171140.702500", "171141.162500", "171141.622500", "171142.082500", "171142.542500", "171143.002500", "171143.462500", "171143.922500", "171144.382500", "171144.842500", "171145.302500", "171145.762500", "171146.222500", "171146.682500", "171147.142500", "171147.602500", "171148.062500", "171148.522500", "171148.982500", "171149.442500", "171149.902500", "171150.362500", "171150.822500", "171151.282500", "171151.742500", "171152.202500", "171152.662500", "171153.122500", "171153.582500", "171154.042500", "171154.502500", "171154.962500", "171155.422500", "171155.882500", "171156.342500", "171156.802500", "171157.262500", "171157.722500", "171158.182500", "171158.642500", "171159.102500", "171159.562500", "171200.022500", "171200.482500", "171200.942500", "171201.402500", "171201.862500", "171202.322500", "171202.782500", "171203.242500", "171203.702500", "171204.162500", "171204.622500", "171205.082500", "171205.542500", "171206.002500", "171206.462500", "171206.922500", "171207.382500", "171207.842500", "171208.302500", "171208.762500", "171209.222500", "171209.682500", "171210.142500", "171210.602500", "171211.062500", "171211.522500", "171211.982500", "171212.442500", "171212.902500", "171213.362500", "171213.822500", "171214.282500", "171214.742500", "171215.202500", "171215.662500", "171216.122500", "171216.582500", "171217.042500", "171217.502500", "171217.962500", "171218.422500", "171218.882500", "171219.342500", "171219.802500", "171220.262500", "171220.722500", "171221.182500", "171221.642500", "171222.102500", "171222.562500", "171223.022500", "171223.482500", "171223.942500", "171224.402500", "171224.862500", "171225.322500", "171225.782500", "171226.242500", "171226.702500", "171227.162500", "171227.622500", "171228.082500"],
