{
  "AcquisitionMatrixPE": 82,
  "AcquisitionNumber": 1,
  "AcquisitionTime": "17:35:23.190000",
  "BandwidthPerPixelPhaseEncode": 24.888,
  "BaseResolution": 82,
  "BodyPartExamined": "BRAIN",
  "ConsistencyInfo": "N4_VE11E_LATEST_20181129",
  "ConversionSoftware": "dcm2niix",
  "ConversionSoftwareVersion": "v1.0.20201102",
  "DerivedVendorReportedEchoSpacing": 0.00049,
  "DeviceSerialNumber": "66112",
  "DwellTime": 2e-06,
  "EchoTime": 0.0272,
  "EchoTrainLength": 82,
  "EffectiveEchoSpacing": 0.00049,
  "FlipAngle": 44,
  "ImageComments": "Unaliased MB8/PE3",
  "ImageOrientationPatientDICOM": [0.999958, -0.0029904, -0.00865033, 0.00279239, 0.999736, -0.0228127],
  "ImageType": [
    "ORIGINAL",
    "PRIMARY",
    "M",
    "MB",
    "ND",
    "NORM",
    "MOSAIC"
],
  "ImagingFrequency": 123.252,
  "InPlanePhaseEncodingDirectionDICOM": "COL",
  "InstitutionAddress": "Maynard 3,Hanover,NH,US,03755",
  "InstitutionName": "Dartmouth College - PBS",
  "InstitutionalDepartmentName": "Department",
  "MRAcquisitionType": "2D",
  "MagneticFieldStrength": 3,
  "Manufacturer": "Siemens",
  "ManufacturersModelName": "Prisma",
  "Modality": "MR",
  "MultibandAccelerationFactor": 8,
  "PartialFourier": 1,
  "PatientPosition": "HFS",
  "PercentPhaseFOV": 100,
  "PercentSampling": 100,
  "PhaseEncodingDirection": "j-",
  "PhaseEncodingSteps": 82,
  "PhaseResolution": 1,
  "PixelBandwidth": 3050,
  "ProcedureStepDescription": "Wager_Wager^1076_spacetop",
  "ProtocolName": "func_run-06_task-social_acq-ap-mb8",
  "PulseSequenceDetails": "%CustomerSeq%\\cmrr_mbep2d_bold",
  "ReceiveCoilActiveElements": "HEA;HEP",
  "ReceiveCoilName": "Head_32",
  "ReconMatrixPE": 82,
  "RepetitionTime": 0.46,
  "SAR": 0.0996478,
  "ScanOptions": "FS",
  "ScanningSequence": "EP",
  "SequenceName": "epfid2d1_82",
  "SequenceVariant": "SK\\SS",
  "SeriesDescription": "func_run-06_task-social_acq-ap-mb8",
  "SeriesNumber": 24,
  "ShimSetting": [4162, -7671, -7280, 465, 17, -33, 37, 81],
  "SliceThickness": 2.7,
  "SliceTiming": [0, 0.25, 0.0625, 0.3125, 0.125, 0.3775, 0.1875, 0, 0.25, 0.0625, 0.3125, 0.125, 0.3775, 0.1875, 0, 0.25, 0.0625, 0.3125, 0.125, 0.3775, 0.1875, 0, 0.25, 0.0625, 0.3125, 0.125, 0.3775, 0.1875, 0, 0.25, 0.0625, 0.3125, 0.125, 0.3775, 0.1875, 0, 0.25, 0.0625, 0.3125, 0.125, 0.3775, 0.1875, 0, 0.25, 0.0625, 0.3125, 0.125, 0.3775, 0.1875, 0, 0.25, 0.0625, 0.3125, 0.125, 0.3775, 0.1875],
  "SoftwareVersions": "syngo MR E11",
  "SpacingBetweenSlices": 2.7,
  "StationName": "AWP66112",
  "TaskName": "social",
  "TotalReadoutTime": 0.03969,
  "TxRefAmp": 232.246,
  "WipMemBlock": "f1583140-e855-4648-bb1a-62354686a8f5||Sequence: R016 ve11e/master r/434b28f1; Aug  7 2019 18:53:46 by eja",
  "dcmmeta_affine": [
    [-2.682814598083496, 0.007491772063076496, -0.023533904924988747, 112.59036254882812],
    [0.008023018948733807, 2.682218313217163, -0.06152641773223877, -93.47333526611328],
    [-0.023208193480968475, 0.061204731464385986, 2.6991963386535645, -70.43087768554688],
    [0.0, 0.0, 0.0, 1.0]
],
  "dcmmeta_reorient_transform": [
    [0.0, -1.0, 0.0, 81.0],
    [1.0, 0.0, 0.0, 0.0],
    [0.0, 0.0, 1.0, 0.0],
    [0.0, 0.0, 0.0, 1.0]
],
  "dcmmeta_shape": [82, 82, 56, 872],
  "dcmmeta_slice_dim": 2,
  "dcmmeta_version": 0.6,
  "global": {
    "const": {
      "AccessionNumber": "A003870",
      "AcquisitionMatrix": [82, 0, 0, 82],
      "AngioFlag": "N",
      "BitsAllocated": 16,
      "BitsStored": 16,
      "BodyPartExamined": "BRAIN",
      "Columns": 656,
      "EchoNumbers": 1,
      "EchoTime": 27.2,
      "EchoTrainLength": 82,
      "FlipAngle": 44.0,
      "HighBit": 15,
      "ImageOrientationPatient": [0.9999581138067, -0.0029903977545, -0.0086503267813, 0.00279238775233, 0.99973585738301, -0.0228126726472],
      "ImagePositionPatient": [-885.31509927992, -891.28036017875, -41.246786832556],
      "ImageType": [
        "ORIGINAL",
        "PRIMARY",
        "M",
        "MB",
        "ND",
        "NORM",
        "MOSAIC"
],
      "ImagedNucleus": "1H",
      "ImagingFrequency": 123.252273,
      "InPlanePhaseEncodingDirection": "COL",
      "MRAcquisitionType": "2D",
      "MagneticFieldStrength": 3.0,
      "Manufacturer": "SIEMENS",
      "ManufacturerModelName": "Prisma",
      "Modality": "MR",
      "NumberOfAverages": 1.0,
      "NumberOfPhaseEncodingSteps": 82,
      "PercentPhaseFieldOfView": 100.0,
      "PercentSampling": 100.0,
      "PerformedProcedureStepStartTime": "161920.169000",
      "PhotometricInterpretation": "MONOCHROME2",
      "PixelBandwidth": 3050.0,
      "PixelRepresentation": 0,
      "PixelSpacing": [2.6829268932343, 2.6829268932343],
      "ProtocolName": "func_run-06_task-social_acq-ap-mb8",
      "RepetitionTime": 460.0,
      "Rows": 656,
      "SAR": 0.09964782269,
      "SamplesPerPixel": 1,
      "ScanOptions": "FS",
      "ScanningSequence": "EP",
      "SequenceName": "epfid2d1_82",
      "SequenceVariant": [
        "SK",
        "SS"
],
      "SeriesDescription": "func_run-06_task-social_acq-ap-mb8",
      "SeriesNumber": 24,
      "SeriesTime": "173541.574000",
      "SliceLocation": -69.261252834511,
      "SliceThickness": 2.7000000476837,
      "SmallestImagePixelValue": 0,
      "SoftwareVersions": "syngo MR E11",
      "SpacingBetweenSlices": 2.6999999800077,
      "SpecificCharacterSet": "ISO_IR 100",
      "StudyID": "1",
      "StudyTime": "161920.099000",
      "TransmitCoilName": "Body",
      "VariableFlipAngleFlag": "N",
      "WindowCenterWidthExplanation": "Algo1"
    },
    "slices": {}
  },
  "time": {
    "samples": {
      "AcquisitionNumber": [1, 2, 3, 4, 5, 6, 7, 8, 9, 10, 11, 12, 13, 14, 15, 16, 17, 18, 19, 20, 21, 22, 23, 24, 25, 26, 27, 28, 29, 30, 31, 32, 33, 34, 35, 36, 37, 38, 39, 40, 41, 42, 43, 44, 45, 46, 47, 48, 49, 50, 51, 52, 53, 54, 55, 56, 57, 58, 59, 60, 61, 62, 63, 64, 65, 66, 67, 68, 69, 70, 71, 72, 73, 74, 75, 76, 77, 78, 79, 80, 81, 82, 83, 84, 85, 86, 87, 88, 89, 90, 91, 92, 93, 94, 95, 96, 97, 98, 99, 100, 101, 102, 103, 104, 105, 106, 107, 108, 109, 110, 111, 112, 113, 114, 115, 116, 117, 118, 119, 120, 121, 122, 123, 124, 125, 126, 127, 128, 129, 130, 131, 132, 133, 134, 135, 136, 137, 138, 139, 140, 141, 142, 143, 144, 145, 146, 147, 148, 149, 150, 151, 152, 153, 154, 155, 156, 157, 158, 159, 160, 161, 162, 163, 164, 165, 166, 167, 168, 169, 170, 171, 172, 173, 174, 175, 176, 177, 178, 179, 180, 181, 182, 183, 184, 185, 186, 187, 188, 189, 190, 191, 192, 193, 194, 195, 196, 197, 198, 199, 200, 201, 202, 203, 204, 205, 206, 207, 208, 209, 210, 211, 212, 213, 214, 215, 216, 217, 218, 219, 220, 221, 222, 223, 224, 225, 226, 227, 228, 229, 230, 231, 232, 233, 234, 235, 236, 237, 238, 239, 240, 241, 242, 243, 244, 245, 246, 247, 248, 249, 250, 251, 252, 253, 254, 255, 256, 257, 258, 259, 260, 261, 262, 263, 264, 265, 266, 267, 268, 269, 270, 271, 272, 273, 274, 275, 276, 277, 278, 279, 280, 281, 282, 283, 284, 285, 286, 287, 288, 289, 290, 291, 292, 293, 294, 295, 296, 297, 298, 299, 300, 301, 302, 303, 304, 305, 306, 307, 308, 309, 310, 311, 312, 313, 314, 315, 316, 317, 318, 319, 320, 321, 322, 323, 324, 325, 326, 327, 328, 329, 330, 331, 332, 333, 334, 335, 336, 337, 338, 339, 340, 341, 342, 343, 344, 345, 346, 347, 348, 349, 350, 351, 352, 353, 354, 355, 356, 357, 358, 359, 360, 361, 362, 363, 364, 365, 366, 367, 368, 369, 370, 371, 372, 373, 374, 375, 376, 377, 378, 379, 380, 381, 382, 383, 384, 385, 386, 387, 388, 389, 390, 391, 392, 393, 394, 395, 396, 397, 398, 399, 400, 401, 402, 403, 404, 405, 406, 407, 408, 409, 410, 411, 412, 413, 414, 415, 416, 417, 418, 419, 420, 421, 422, 423, 424, 425, 426, 427, 428, 429, 430, 431, 432, 433, 434, 435, 436, 437, 438, 439, 440, 441, 442, 443, 444, 445, 446, 447, 448, 449, 450, 451, 452, 453, 454, 455, 456, 457, 458, 459, 460, 461, 462, 463, 464, 465, 466, 467, 468, 469, 470, 471, 472, 473, 474, 475, 476, 477, 478, 479, 480, 481, 482, 483, 484, 485, 486, 487, 488, 489, 490, 491, 492, 493, 494, 495, 496, 497, 498, 499, 500, 501, 502, 503, 504, 505, 506, 507, 508, 509, 510, 511, 512, 513, 514, 515, 516, 517, 518, 519, 520, 521, 522, 523, 524, 525, 526, 527, 528, 529, 530, 531, 532, 533, 534, 535, 536, 537, 538, 539, 540, 541, 542, 543, 544, 545, 546, 547, 548, 549, 550, 551, 552, 553, 554, 555, 556, 557, 558, 559, 560, 561, 562, 563, 564, 565, 566, 567, 568, 569, 570, 571, 572, 573, 574, 575, 576, 577, 578, 579, 580, 581, 582, 583, 584, 585, 586, 587, 588, 589, 590, 591, 592, 593, 594, 595, 596, 597, 598, 599, 600, 601, 602, 603, 604, 605, 606, 607, 608, 609, 610, 611, 612, 613, 614, 615, 616, 617, 618, 619, 620, 621, 622, 623, 624, 625, 626, 627, 628, 629, 630, 631, 632, 633, 634, 635, 636, 637, 638, 639, 640, 641, 642, 643, 644, 645, 646, 647, 648, 649, 650, 651, 652, 653, 654, 655, 656, 657, 658, 659, 660, 661, 662, 663, 664, 665, 666, 667, 668, 669, 670, 671, 672, 673, 674, 675, 676, 677, 678, 679, 680, 681, 682, 683, 684, 685, 686, 687, 688, 689, 690, 691, 692, 693, 694, 695, 696, 697, 698, 699, 700, 701, 702, 703, 704, 705, 706, 707, 708, 709, 710, 711, 712, 713, 714, 715, 716, 717, 718, 719, 720, 721, 722, 723, 724, 725, 726, 727, 728, 729, 730, 731, 732, 733, 734, 735, 736, 737, 738, 739, 740, 741, 742, 743, 744, 745, 746, 747, 748, 749, 750, 751, 752, 753, 754, 755, 756, 757, 758, 759, 760, 761, 762, 763, 764, 765, 766, 767, 768, 769, 770, 771, 772, 773, 774, 775, 776, 777, 778, 779, 780, 781, 782, 783, 784, 785, 786, 787, 788, 789, 790, 791, 792, 793, 794, 795, 796, 797, 798, 799, 800, 801, 802, 803, 804, 805, 806, 807, 808, 809, 810, 811, 812, 813, 814, 815, 816, 817, 818, 819, 820, 821, 822, 823, 824, 825, 826, 827, 828, 829, 830, 831, 832, 833, 834, 835, 836, 837, 838, 839, 840, 841, 842, 843, 844, 845, 846, 847, 848, 849, 850, 851, 852, 853, 854, 855, 856, 857, 858, 859, 860, 861, 862, 863, 864, 865, 866, 867, 868, 869, 870, 871, 872],
      "AcquisitionTime": ["173523.190000", "173523.650000", "173524.110000", "173524.570000", "173525.030000", "173525.490000", "173525.950000", "173526.410000", "173526.870000", "173527.330000", "173527.790000", "173528.250000", "173528.710000", "173529.170000", "173529.630000", "173530.090000", "173530.550000", "173531.010000", "173531.470000", "173531.930000", "173532.390000", "173532.850000", "173533.310000", "173533.770000", "173534.230000", "173534.690000", "173535.150000", "173535.610000", "173536.070000", "173536.530000", "173536.990000", "173537.450000", "173537.910000", "173538.370000", "173538.830000", "173539.290000", "173539.750000", "173540.210000", "173540.670000", "173541.130000", "173541.590000", "173542.050000", "173542.510000", "173542.970000", "173543.430000", "173543.890000", "173544.350000", "173544.810000", "173545.270000", "173545.730000", "173546.190000", "173546.650000", "173547.110000", "173547.570000", "173548.030000", "173548.490000", "173548.950000", "173549.410000", "173549.870000", "173550.330000", "173550.790000", "173551.250000", "173551.710000", "173552.170000", "173552.630000", "173553.090000", "173553.550000", "173554.010000", "173554.470000", "173554.930000", "173555.390000", "173555.850000", "173556.310000", "173556.770000", "173557.230000", "173557.690000", "173558.150000", "173558.610000", "173559.070000", "173559.530000", "173559.990000", "173600.450000", "173600.910000", "173601.370000", "173601.830000", "173602.290000", "173602.750000", "173603.210000", "173603.670000", "173604.130000", "173604.590000", "173605.050000", "173605.510000", "173605.970000", "173606.430000", "173606.890000", "173607.350000", "173607.810000", "173608.270000", "173608.730000", "173609.190000", "173609.650000", "173610.110000", "173610.570000", "173611.030000", "173611.490000", "173611.950000", "173612.410000", "173612.870000", "173613.330000", "173613.790000", "173614.250000", "173614.710000", "173615.170000", "173615.630000", "173616.090000", "173616.550000", "173617.010000", "173617.470000", "173617.930000", "173618.390000", "173618.850000", "173619.310000", "173619.770000", "173620.230000", "173620.690000", "173621.150000", "173621.610000", "173622.070000", "173622.530000", "173622.990000", "173623.450000", "173623.910000", "173624.370000", "173624.830000", "173625.290000", "173625.750000", "173626.210000", "173626.670000", "173627.130000", "173627.590000", "173628.050000", "173628.510000", "173628.970000", "173629.430000", "173629.890000", "173630.350000", "173630.810000", "173631.270000", "173631.730000", "173632.190000", "173632.650000", "173633.110000", "173633.570000", "173634.030000", "173634.490000", "173634.950000", "173635.410000", "173635.870000", "173636.330000", "173636.790000", "173637.250000", "173637.710000", "173638.170000", "173638.630000", "173639.090000", "173639.550000", "173640.010000", "173640.470000", "173640.930000", "173641.390000", "173641.850000", "173642.310000", "173642.770000", "173643.230000", "173643.690000", "173644.150000", "173644.610000", "173645.070000", "173645.530000", "173645.990000", "173646.450000", "173646.910000", "173647.370000", "173647.830000", "173648.290000", "173648.750000", "173649.210000", "173649.670000", "173650.130000", "173650.590000", "173651.050000", "173651.510000", "173651.970000", "173652.430000", "173652.890000", "173653.350000", "173653.810000", "173654.270000", "173654.730000", "173655.190000", "173655.650000", "173656.110000", "173656.570000", "173657.030000", "173657.490000", "173657.950000", "173658.410000", "173658.870000", "173659.330000", "173659.790000", "173700.250000", "173700.710000", "173701.170000", "173701.630000", "173702.090000", "173702.550000", "173703.010000", "173703.470000", "173703.930000", "173704.390000", "173704.850000", "173705.310000", "173705.770000", "173706.230000", "173706.690000", "173707.150000", "173707.610000", "173708.070000", "173708.530000", "173708.990000", "173709.450000", "173709.910000", "173710.370000", "173710.830000", "173711.290000", "173711.750000", "173712.210000", "173712.670000", "173713.130000", "173713.590000", "173714.050000", "173714.510000", "173714.970000", "173715.430000", "173715.890000", "173716.350000", "173716.810000", "173717.270000", "173717.730000", "173718.190000", "173718.650000", "173719.110000", "173719.570000", "173720.030000", "173720.490000", "173720.950000", "173721.410000", "173721.870000", "173722.330000", "173722.790000", "173723.250000", "173723.710000", "173724.170000", "173724.630000", "173725.090000", "173725.550000", "173726.010000", "173726.470000", "173726.930000", "173727.390000", "173727.850000", "173728.310000", "173728.770000", "173729.230000", "173729.690000", "173730.150000", "173730.610000", "173731.070000", "173731.530000", "173731.990000", "173732.450000", "173732.910000", "173733.370000", "173733.830000", "173734.290000", "173734.750000", "173735.210000", "173735.670000", "173736.130000", "173736.590000", "173737.050000", "173737.510000", "173737.970000", "173738.430000", "173738.890000", "173739.350000", "173739.810000", "173740.270000", "173740.730000", "173741.190000", "173741.650000", "173742.110000", "173742.570000", "173743.030000", "173743.490000", "173743.950000", "173744.410000", "173744.870000", "173745.330000", "173745.790000", "173746.250000", "173746.710000", "173747.170000", "173747.630000", "173748.090000", "173748.550000", "173749.010000", "173749.470000", "173749.930000", "173750.390000", "173750.850000", "173751.310000", "173751.770000", "173752.230000", "173752.690000", "173753.150000", "173753.610000", "173754.070000", "173754.530000", "173754.990000", "173755.450000", "173755.910000", "173756.370000", "173756.830000", "173757.290000", "173757.750000", "173758.210000", "173758.670000", "173759.130000", "173759.590000", "173800.050000", "173800.510000", "173800.970000", "173801.430000", "173801.890000", "173802.350000", "173802.810000", "173803.270000", "173803.730000", "173804.190000", "173804.650000", "173805.110000", "173805.570000", "173806.030000", "173806.490000", "173806.950000", "173807.410000", "173807.870000", "173808.330000", "173808.790000", "173809.250000", "173809.710000", "173810.170000", "173810.630000", "173811.090000", "173811.550000", "173812.010000", "173812.470000", "173812.930000", "173813.390000", "173813.850000", "173814.310000", "173814.770000", "173815.230000", "173815.690000", "173816.150000", "173816.610000", "173817.070000", "173817.530000", "173817.990000", "173818.450000", "173818.910000", "173819.370000", "173819.830000", "173820.290000", "173820.750000", "173821.210000", "173821.670000", "173822.130000", "173822.590000", "173823.050000", "173823.510000", "173823.970000", "173824.430000", "173824.890000", "173825.350000", "173825.810000", "173826.270000", "173826.730000", "173827.190000", "173827.650000", "173828.110000", "173828.570000", "173829.030000", "173829.490000", "173829.950000", "173830.410000", "173830.870000", "173831.330000", "173831.790000", "173832.250000", "173832.710000", "173833.170000", "173833.630000", "173834.090000", "173834.550000", "173835.010000", "173835.470000", "173835.930000", "173836.390000", "173836.850000", "173837.310000", "173837.770000", "173838.230000", "173838.690000", "173839.150000", "173839.610000", "173840.070000", "173840.530000", "173840.990000", "173841.450000", "173841.910000", "173842.370000", "173842.830000", "173843.290000", "173843.750000", "173844.210000", "173844.670000", "173845.130000", "173845.590000", "173846.050000", "173846.510000", "173846.970000", "173847.430000", "173847.890000", "173848.350000", "173848.810000", "173849.270000", "173849.730000", "173850.190000", "173850.650000", "173851.110000", "173851.570000", "173852.030000", "173852.490000", "173852.950000", "173853.410000", "173853.870000", "173854.330000", "173854.790000", "173855.250000", "173855.710000", "173856.170000", "173856.630000", "173857.090000", "173857.550000", "173858.010000", "173858.470000", "173858.930000", "173859.390000", "173859.850000", "173900.310000", "173900.770000", "173901.230000", "173901.690000", "173902.150000", "173902.610000", "173903.070000", "173903.530000", "173903.990000", "173904.450000", "173904.910000", "173905.370000", "173905.830000", "173906.290000", "173906.750000", "173907.210000", "173907.670000", "173908.130000", "173908.590000", "173909.050000", "173909.510000", "173909.970000", "173910.430000", "173910.890000", "173911.350000", "173911.810000", "173912.270000", "173912.730000", "173913.190000", "173913.650000", "173914.110000", "173914.570000", "173915.030000", "173915.490000", "173915.950000", "173916.410000", "173916.870000", "173917.330000", "173917.790000", "173918.250000", "173918.710000", "173919.170000", "173919.630000", "173920.090000", "173920.550000", "173921.010000", "173921.470000", "173921.930000", "173922.390000", "173922.850000", "173923.310000", "173923.770000", "173924.230000", "173924.690000", "173925.150000", "173925.610000", "173926.070000", "173926.530000", "173926.990000", "173927.450000", "173927.910000", "173928.370000", "173928.830000", "173929.290000", "173929.750000", "173930.210000", "173930.670000", "173931.130000", "173931.590000", "173932.050000", "173932.510000", "173932.970000", "173933.430000", "173933.890000", "173934.350000", "173934.810000", "173935.270000", "173935.730000", "173936.190000", "173936.650000", "173937.110000", "173937.570000", "173938.030000", "173938.490000", "173938.950000", "173939.410000", "173939.870000", "173940.330000", "173940.790000", "173941.250000", "173941.710000", "173942.170000", "173942.630000", "173943.090000", "173943.550000", "173944.010000", "173944.470000", "173944.930000", "173945.390000", "173945.850000", "173946.310000", "173946.770000", "173947.230000", "173947.690000", "173948.150000", "173948.610000", "173949.070000", "173949.530000", "173949.990000", "173950.450000", "173950.910000", "173951.370000", "173951.830000", "173952.290000", "173952.750000", "173953.210000", "173953.670000", "173954.130000", "173954.590000", "173955.050000", "173955.510000", "173955.970000", "173956.430000", "173956.890000", "173957.350000", "173957.810000", "173958.270000", "173958.730000", "173959.190000", "173959.650000", "174000.110000", "174000.570000", "174001.030000", "174001.490000", "174001.950000", "174002.410000", "174002.870000", "174003.330000", "174003.790000", "174004.250000", "174004.710000", "174005.170000", "174005.630000", "174006.090000", "174006.550000", "174007.010000", "174007.470000", "174007.930000", "174008.390000", "174008.850000", "174009.310000", "174009.770000", "174010.230000", "174010.690000", "174011.150000", "174011.610000", "174012.070000", "174012.530000", "174012.990000", "174013.450000", "174013.910000", "174014.370000", "174014.830000", "174015.290000", "174015.750000", "174016.210000", "174016.670000", "174017.130000", "174017.590000", "174018.050000", "174018.510000", "174018.970000", "174019.430000", "174019.890000", "174020.350000", "174020.810000", "174021.270000", "174021.730000", "174022.190000", "174022.650000", "174023.110000", "174023.570000", "174024.030000", "174024.490000", "174024.950000", "174025.410000", "174025.870000", "174026.330000", "174026.790000", "174027.250000", "174027.710000", "174028.170000", "174028.630000", "174029.090000", "174029.550000", "174030.010000", "174030.470000", "174030.930000", "174031.390000", "174031.850000", "174032.310000", "174032.770000", "174033.230000", "174033.690000", "174034.150000", "174034.610000", "174035.070000", "174035.530000", "174035.990000", "174036.450000", "174036.910000", "174037.370000", "174037.830000", "174038.290000", "174038.750000", "174039.210000", "174039.670000", "174040.130000", "174040.590000", "174041.050000", "174041.510000", "174041.970000", "174042.430000", "174042.890000", "174043.350000", "174043.810000", "174044.270000", "174044.730000", "174045.190000", "174045.650000", "174046.110000", "174046.570000", "174047.030000", "174047.490000", "174047.950000", "174048.410000", "174048.870000", "174049.330000", "174049.790000", "174050.250000", "174050.710000", "174051.170000", "174051.630000", "174052.090000", "174052.550000", "174053.010000", "174053.470000", "174053.930000", "174054.390000", "174054.850000", "174055.310000", "174055.770000", "174056.230000", "174056.690000", "174057.150000", "174057.610000", "174058.070000", "174058.530000", "174058.990000", "174059.450000", "174059.910000", "174100.370000", "174100.830000", "174101.290000", "174101.750000", "174102.210000", "174102.670000", "174103.130000", "174103.590000", "174104.050000", "174104.510000", "174104.970000", "174105.430000", "174105.890000", "174106.350000", "174106.810000", "174107.270000", "174107.730000", "174108.190000", "174108.650000", "174109.110000", "174109.570000", "174110.030000", "174110.490000", "174110.950000", "174111.410000", "174111.870000", "174112.330000", "174112.790000", "174113.250000", "174113.710000", "174114.170000", "174114.630000", "174115.090000", "174115.550000", "174116.010000", "174116.470000", "174116.930000", "174117.390000", "174117.850000", "174118.310000", "174118.770000", "174119.230000", "174119.690000", "174120.150000", "174120.610000", "174121.070000", "174121.530000", "174121.990000", "174122.450000", "174122.910000", "174123.370000", "174123.830000", "174124.290000", "174124.750000", "174125.210000", "174125.670000", "174126.130000", "174126.590000", "174127.050000", "174127.510000", "174127.970000", "174128.430000", "174128.890000", "174129.350000", "174129.810000", "174130.270000", "174130.730000", "174131.190000", "174131.650000", "174132.110000", "174132.570000", "174133.030000", "174133.490000", "174133.950000", "174134.410000", "174134.870000", "174135.330000", "174135.790000", "174136.250000", "174136.710000", "174137.170000", "174137.630000", "174138.090000", "174138.550000", "174139.010000", "174139.470000", "174139.930000", "174140.390000", "174140.850000", "174141.310000", "174141.770000", "174142.230000", "174142.690000", "174143.150000", "174143.610000", "174144.070000", "174144.530000", "174144.990000", "174145.450000", "174145.910000", "174146.370000", "174146.830000", "174147.290000", "174147.750000", "174148.210000", "174148.670000", "174149.130000", "174149.590000", "174150.050000", "174150.510000", "174150.970000", "174151.430000", "174151.890000", "174152.350000", "174152.810000", "174153.270000", "174153.730000", "174154.190000", "174154.650000", "174155.110000", "174155.570000", "174156.030000", "174156.490000", "174156.950000", "174157.410000", "174157.870000", "174158.330000", "174158.790000", "174159.250000", "174159.710000", "174200.170000", "174200.630000", "174201.090000", "174201.550000", "174202.010000", "174202.470000", "174202.930000", "174203.390000", "174203.850000"],
