{
  "AcquisitionMatrixPE": 82,
  "AcquisitionNumber": 1,
  "AcquisitionTime": "09:33:3.385000",
  "BandwidthPerPixelPhaseEncode": 24.888,
  "BaseResolution": 82,
  "BodyPartExamined": "BRAIN",
  "ConsistencyInfo": "N4_VE11C_LATEST_20160120",
  "ConversionSoftware": "dcm2niix",
  "ConversionSoftwareVersion": "v1.0.20201102",
  "DerivedVendorReportedEchoSpacing": 0.00049,
  "DeviceSerialNumber": "66112",
  "DwellTime": 2e-06,
  "EchoTime": 0.0272,
  "EchoTrainLength": 82,
  "EffectiveEchoSpacing": 0.00049,
  "FlipAngle": 44,
  "ImageComments": "Unaliased MB8/PE3",
  "ImageOrientationPatientDICOM": [0.999808, -0.000772114, -0.0195907, 0.00488603, 0.97751, 0.210832],
  "ImageType": [
    "ORIGINAL",
    "PRIMARY",
    "M",
    "MB",
    "ND",
    "NORM",
    "MOSAIC"
],
  "ImagingFrequency": 123.252,
  "InPlanePhaseEncodingDirectionDICOM": "COL",
  "InstitutionAddress": "Maynard 3,Hanover,NH,US,03755",
  "InstitutionName": "Dartmouth College - PBS",
  "InstitutionalDepartmentName": "Department",
  "MRAcquisitionType": "2D",
  "MagneticFieldStrength": 3,
  "Manufacturer": "Siemens",
  "ManufacturersModelName": "Prisma",
  "Modality": "MR",
  "MultibandAccelerationFactor": 8,
  "PartialFourier": 1,
  "PatientPosition": "HFS",
  "PercentPhaseFOV": 100,
  "PercentSampling": 100,
  "PhaseEncodingDirection": "j-",
  "PhaseEncodingSteps": 82,
  "PhaseResolution": 1,
  "PixelBandwidth": 3050,
  "ProcedureStepDescription": "Wager_Wager^1076_spacetop",
  "ProtocolName": "func_run-01_task-faces_acq-ap-mb8",
  "PulseSequenceDetails": "%CustomerSeq%\\cmrr_mbep2d_bold",
  "ReceiveCoilActiveElements": "HEA;HEP",
  "ReceiveCoilName": "Head_32",
  "ReconMatrixPE": 82,
  "RepetitionTime": 0.46,
  "SAR": 0.0974678,
  "ScanOptions": "FS",
  "ScanningSequence": "EP",
  "SequenceName": "epfid2d1_82",
  "SequenceVariant": "SK\\SS",
  "SeriesDescription": "func_run-01_task-faces_acq-ap-mb8",
  "SeriesNumber": 12,
  "ShimSetting": [4134, -7778, -7238, 559, -78, -237, 70, 113],
  "SliceThickness": 2.7,
  "SliceTiming": [0, 0.2525, 0.0625, 0.315, 0.1275, 0.3775, 0.19, 0, 0.2525, 0.0625, 0.315, 0.1275, 0.3775, 0.19, 0, 0.2525, 0.0625, 0.315, 0.1275, 0.3775, 0.19, 0, 0.2525, 0.0625, 0.315, 0.1275, 0.3775, 0.19, 0, 0.2525, 0.0625, 0.315, 0.1275, 0.3775, 0.19, 0, 0.2525, 0.0625, 0.315, 0.1275, 0.3775, 0.19, 0, 0.2525, 0.0625, 0.315, 0.1275, 0.3775, 0.19, 0, 0.2525, 0.0625, 0.315, 0.1275, 0.3775, 0.19],
  "SoftwareVersions": "syngo MR E11",
  "SpacingBetweenSlices": 2.7,
  "StationName": "AWP66112",
  "TaskName": "faces",
  "TotalReadoutTime": 0.03969,
  "TxRefAmp": 229.6,
  "WipMemBlock": "b11bdd07-785c-4ae1-ba80-e457076bd75b||Sequence: R016 ve11c/master r/e634e98; Dec 19 2017 11:00:25 by eja",
  "dcmmeta_affine": [
    [-2.6824111938476562, 0.01310886163264513, -0.05126571282744408, 110.7032241821289],
    [0.002071526600047946, 2.6225881576538086, 0.5693953037261963, -100.33518981933594],
    [-0.052560362964868546, -0.5656467080116272, 2.638780117034912, -16.07747459411621],
    [0.0, 0.0, 0.0, 1.0]
],
  "dcmmeta_reorient_transform": [
    [0.0, -1.0, 0.0, 81.0],
    [1.0, 0.0, 0.0, 0.0],
    [0.0, 0.0, 1.0, 0.0],
    [0.0, 0.0, 0.0, 1.0]
],
  "dcmmeta_shape": [82, 82, 56, 194],
  "dcmmeta_slice_dim": 2,
  "dcmmeta_version": 0.6,
  "global": {
    "const": {
      "AccessionNumber": "A003447",
      "AcquisitionMatrix": [82, 0, 0, 82],
      "AngioFlag": "N",
      "BitsAllocated": 16,
      "BitsStored": 16,
      "BodyPartExamined": "BRAIN",
      "Columns": 656,
      "EchoNumbers": 1,
      "EchoTime": 27.2,
      "EchoTrainLength": 82,
      "FlipAngle": 44.0,
      "HighBit": 15,
      "ImageOrientationPatient": [0.99980778607328, -0.00077211447, -0.0195906800927, 0.00488603027562, 0.97751010881179, 0.2108319564936],
      "ImagePositionPatient": [-885.37930082751, -864.18272814236, -209.15064557401],
      "ImageType": [
        "ORIGINAL",
        "PRIMARY",
        "M",
        "MB",
        "ND",
        "NORM",
        "MOSAIC"
],
      "ImagedNucleus": "1H",
      "ImagingFrequency": 123.252109,
      "InPlanePhaseEncodingDirection": "COL",
      "MRAcquisitionType": "2D",
      "MagneticFieldStrength": 3.0,
      "Manufacturer": "SIEMENS",
      "ManufacturerModelName": "Prisma",
      "Modality": "MR",
      "NumberOfAverages": 1.0,
      "NumberOfPhaseEncodingSteps": 82,
      "PercentPhaseFieldOfView": 100.0,
      "PercentSampling": 100.0,
      "PerformedProcedureStepStartTime": "082815.015000",
      "PhotometricInterpretation": "MONOCHROME2",
      "PixelBandwidth": 3050.0,
      "PixelRepresentation": 0,
      "PixelSpacing": [2.6829268932343, 2.6829268932343],
      "ProtocolName": "func_run-01_task-faces_acq-ap-mb8",
      "RepetitionTime": 460.0,
      "Rows": 656,
      "SAR": 0.09746782351433,
      "SamplesPerPixel": 1,
      "ScanOptions": "FS",
      "ScanningSequence": "EP",
      "SequenceName": "epfid2d1_82",
      "SequenceVariant": [
        "SK",
        "SS"
],
      "SeriesDescription": "func_run-01_task-faces_acq-ap-mb8",
      "SeriesNumber": 12,
      "SeriesTime": "093314.974000",
      "SliceLocation": -38.974290859237,
      "SliceThickness": 2.7000000476837,
      "SmallestImagePixelValue": 0,
      "SoftwareVersions": "syngo MR E11",
      "SpacingBetweenSlices": 2.6999999616731,
      "SpecificCharacterSet": "ISO_IR 100",
      "StudyID": "3",
      "StudyTime": "082814.930000",
      "TransmitCoilName": "Body",
      "VariableFlipAngleFlag": "N",
      "WindowCenterWidthExplanation": "Algo1",
      "dBdt": 0.0},
    "slices": {}
  },
  "time": {
    "samples": {
      "AcquisitionNumber": [1, 2, 3, 4, 5, 6, 7, 8, 9, 10, 11, 12, 13, 14, 15, 16, 17, 18, 19, 20, 21, 22, 23, 24, 25, 26, 27, 28, 29, 30, 31, 32, 33, 34, 35, 36, 37, 38, 39, 40, 41, 42, 43, 44, 45, 46, 47, 48, 49, 50, 51, 52, 53, 54, 55, 56, 57, 58, 59, 60, 61, 62, 63, 64, 65, 66, 67, 68, 69, 70, 71, 72, 73, 74, 75, 76, 77, 78, 79, 80, 81, 82, 83, 84, 85, 86, 87, 88, 89, 90, 91, 92, 93, 94, 95, 96, 97, 98, 99, 100, 101, 102, 103, 104, 105, 106, 107, 108, 109, 110, 111, 112, 113, 114, 115, 116, 117, 118, 119, 120, 121, 122, 123, 124, 125, 126, 127, 128, 129, 130, 131, 132, 133, 134, 135, 136, 137, 138, 139, 140, 141, 142, 143, 144, 145, 146, 147, 148, 149, 150, 151, 152, 153, 154, 155, 156, 157, 158, 159, 160, 161, 162, 163, 164, 165, 166, 167, 168, 169, 170, 171, 172, 173, 174, 175, 176, 177, 178, 179, 180, 181, 182, 183, 184, 185, 186, 187, 188, 189, 190, 191, 192, 193, 194],
      "AcquisitionTime": ["093303.385000", "093303.845000", "093304.305000", "093304.765000", "093305.225000", "093305.685000", "093306.145000", "093306.605000", "093307.065000", "093307.525000", "093307.985000", "093308.445000", "093308.905000", "093309.365000", "093309.825000", "093310.285000", "093310.745000", "093311.205000", "093311.665000", "093312.125000", "093312.585000", "093313.045000", "093313.505000", "093313.965000", "093314.425000", "093314.885000", "093315.345000", "093315.805000", "093316.265000", "093316.725000", "093317.185000", "093317.645000", "093318.105000", "093318.565000", "093319.025000", "093319.485000", "093319.945000", "093320.405000", "093320.865000", "093321.325000", "093321.785000", "093322.245000", "093322.705000", "093323.165000", "093323.625000", "093324.085000", "093324.545000", "093325.005000", "093325.465000", "093325.925000", "093326.385000", "093326.845000", "093327.305000", "093327.765000", "093328.225000", "093328.685000", "093329.145000", "093329.605000", "093330.065000", "093330.525000", "093330.985000", "093331.445000", "093331.905000", "093332.365000", "093332.825000", "093333.285000", "093333.745000", "093334.205000", "093334.665000", "093335.125000", "093335.585000", "093336.045000", "093336.505000", "093336.965000", "093337.425000", "093337.885000", "093338.345000", "093338.805000", "093339.265000", "093339.725000", "093340.185000", "093340.645000", "093341.105000", "093341.565000", "093342.025000", "093342.485000", "093342.945000", "093343.405000", "093343.865000", "093344.325000", "093344.785000", "093345.245000", "093345.705000", "093346.165000", "093346.625000", "093347.085000", "093347.545000", "093348.005000", "093348.465000", "093348.925000", "093349.385000", "093349.845000", "093350.305000", "093350.765000", "093351.225000", "093351.685000", "093352.145000", "093352.605000", "093353.065000", "093353.525000", "093353.985000", "093354.445000", "093354.905000", "093355.365000", "093355.825000", "093356.285000", "093356.745000", "093357.205000", "093357.665000", "093358.125000", "093358.585000", "093359.045000", "093359.505000", "093359.965000", "093400.425000", "093400.885000", "093401.345000", "093401.805000", "093402.265000", "093402.725000", "093403.185000", "093403.645000", "093404.105000", "093404.565000", "093405.025000", "093405.485000", "093405.945000", "093406.405000", "093406.865000", "093407.325000", "093407.785000", "093408.245000", "093408.705000", "093409.165000", "093409.625000", "093410.085000", "093410.545000", "093411.005000", "093411.465000", "093411.925000", "093412.385000", "093412.845000", "093413.305000", "093413.765000", "093414.225000", "093414.685000", "093415.145000", "093415.605000", "093416.065000", "093416.525000", "093416.985000", "093417.445000", "093417.905000", "093418.365000", "093418.825000", "093419.285000", "093419.745000", "093420.205000", "093420.665000", "093421.125000", "093421.585000", "093422.045000", "093422.505000", "093422.965000", "093423.425000", "093423.885000", "093424.345000", "093424.805000", "093425.265000", "093425.725000", "093426.185000", "093426.645000", "093427.105000", "093427.565000", "093428.025000", "093428.485000", "093428.945000", "093429.405000", "093429.865000", "093430.325000", "093430.785000", "093431.245000", "093431.705000", "093432.165000"],
      "ContentTime": ["093314.977000", "093314.981000", "093314.983000", "093314.994000", "093314.997000", "093315.001000", "093315.004000", "093315.007000", "093315.010000", "093315.019000", "093315.021000", "093315.024000", "093315.027000", "093315.030000", "093315.033000", "093315.036000", "093315.039000", "093315.042000", "093315.045000", "093315.048000", "093315.051000", "093315.054000", "093315.056000", "093315.059000", "093334.943000", "093334.946000", "093334.949000", "093334.952000", "093334.954000", "093334.957000", "093334.967000", "093334.969000", "093334.977000", "093334.980000", "093334.983000", "093334.986000", "093334.989000", "093334.992000", "093334.995000", "093334.998000", "093335.011000", "093335.014000", "093335.017000", "093335.020000", "093335.023000", "093335.026000", "093335.028000", "093335.031000", "093335.034000", "093335.044000", "093335.047000", "093335.050000", "093335.053000", "093335.055000", "093335.058000", "093335.061000", "093335.064000", "093335.067000", "093335.070000", "093335.078000", "093335.081000", "093335.084000", "093335.099000", "093335.102000", "093335.105000", "093335.108000", "093335.111000", "093354.943000", "093354.946000", "093354.949000", "093354.951000", "093354.954000", "093354.957000", "093354.960000", "093354.963000", "093354.966000", "093354.969000", "093354.972000", "093354.975000", "093354.977000", "093354.980000", "093354.983000", "093354.986000", "093354.989000", "093354.992000", "093354.995000", "093354.998000", "093355.002000", "093355.005000", "093355.007000", "093355.010000", "093355.013000", "093355.016000", "093355.019000", "093355.022000", "093355.025000", "093355.028000", "093355.031000", "093355.033000", "093355.036000", "093355.039000", "093355.042000", "093355.048000", "093355.051000", "093355.053000", "093355.056000", "093355.059000", "093355.062000", "093355.065000", "093355.068000", "093355.071000", "093414.942000", "093414.945000", "093414.949000", "093414.952000", "093414.955000", "093414.958000", "093414.960000", "093414.963000", "093414.966000", "093414.969000", "093414.972000", "093414.975000", "093414.978000", "093414.981000", "093414.984000", "093414.987000", "093414.990000", "093414.992000", "093414.995000", "093414.998000", "093415.004000", "093415.009000", "093415.012000", "093415.015000", "093415.018000", "093415.021000", "093415.038000", "093415.041000", "093415.044000", "093415.047000", "093415.050000", "093415.053000", "093415.055000", "093415.058000", "093415.061000", "093415.064000", "093415.067000", "093415.070000", "093415.073000", "093415.076000", "093415.079000", "093415.081000", "093415.084000", "093434.055000", "093434.059000", "093434.061000", "093434.064000", "093434.069000", "093434.073000", "093434.078000", "093434.084000", "093434.095000", "093434.099000", "093434.102000", "093434.105000", "093434.108000", "093434.111000", "093434.113000", "093434.117000", "093434.120000", "093434.123000", "093434.125000", "093434.128000", "093434.131000", "093434.134000", "093434.137000", "093434.147000", "093434.150000", "093434.153000", "093434.155000", "093434.158000", "093434.161000", "093434.164000", "093434.167000", "093434.170000", "093434.173000", "093434.180000", "093434.183000", "093434.186000", "093434.188000", "093434.191000", "093434.194000", "093434.197000"],
      "InstanceCreationTime": ["093314.977000", "093314.981000", "093314.983000", "093314.994000", "093314.997000", "093315.001000", "093315.004000", "093315.007000", "093315.010000", "093315.019000", "093315.021000", "093315.024000", "093315.027000", "093315.030000", "093315.033000", "093315.036000", "093315.039000", "093315.042000", "093315.045000", "093315.048000", "093315.051000", "093315.054000", "093315.056000", "093315.059000", "093334.943000", "093334.946000", "093334.949000", "093334.952000", "093334.954000", "093334.957000", "093334.967000", "093334.969000", "093334.977000", "093334.980000", "093334.983000", "093334.986000", "093334.989000", "093334.992000", "093334.995000", "093334.998000", "093335.011000", "093335.014000", "093335.017000", "093335.020000", "093335.023000", "093335.026000", "093335.028000", "093335.031000", "093335.034000", "093335.044000", "093335.047000", "093335.050000", "093335.053000", "093335.055000", "093335.058000", "093335.061000", "093335.064000", "093335.067000", "093335.070000", "093335.078000", "093335.081000", "093335.084000", "093335.099000", "093335.102000", "093335.105000", "093335.108000", "093335.111000", "093354.943000", "093354.946000", "093354.949000", "093354.951000", "093354.954000", "093354.957000", "093354.960000", "093354.963000", "093354.966000", "093354.969000", "093354.972000", "093354.975000", "093354.977000", "093354.980000", "093354.983000", "093354.986000", "093354.989000", "093354.992000", "093354.995000", "093354.998000", "093355.002000", "093355.005000", "093355.007000", "093355.010000", "093355.013000", "093355.016000", "093355.019000", "093355.022000", "093355.025000", "093355.028000", "093355.031000", "093355.033000", "093355.036000", "093355.039000", "093355.042000", "093355.048000", "093355.051000", "093355.053000", "093355.056000", "093355.059000", "093355.062000", "093355.065000", "093355.068000", "093355.071000", "093414.942000", "093414.945000", "093414.949000", "093414.952000", "093414.955000", "093414.958000", "093414.960000", "093414.963000", "093414.966000", "093414.969000", "093414.972000", "093414.975000", "093414.978000", "093414.981000", "093414.984000", "093414.987000", "093414.990000", "093414.992000", "093414.995000", "093414.998000", "093415.004000", "093415.009000", "093415.012000", "093415.015000", "093415.018000", "093415.021000", "093415.038000", "093415.041000", "093415.044000", "093415.047000", "093415.050000", "093415.053000", "093415.055000", "093415.058000", "093415.061000", "093415.064000", "093415.067000", "093415.070000", "093415.073000", "093415.076000", "093415.079000", "093415.081000", "093415.084000", "093434.055000", "093434.059000", "093434.061000", "093434.064000", "093434.069000", "093434.073000", "093434.078000", "093434.084000", "093434.095000", "093434.099000", "093434.102000", "093434.105000", "093434.108000", "093434.111000", "093434.113000", "093434.117000", "093434.120000", "093434.123000", "093434.125000", "093434.128000", "093434.131000", "093434.134000", "093434.137000", "093434.147000", "093434.150000", "093434.153000", "093434.155000", "093434.158000", "093434.161000", "093434.164000", "093434.167000", "093434.170000", "093434.173000", "093434.180000", "093434.183000", "093434.186000", "093434.188000", "093434.191000", "093434.194000", "093434.197000"],
      "InstanceNumber": [1, 2, 3, 4, 5, 6, 7, 8, 9, 10, 11, 12, 13, 14, 15, 16, 17, 18, 19, 20, 21, 22, 23, 24, 25, 26, 27, 28, 29, 30, 31, 32, 33, 34, 35, 36, 37, 38, 39, 40, 41, 42, 43, 44, 45, 46, 47, 48, 49, 50, 51, 52, 53, 54, 55, 56, 57, 58, 59, 60, 61, 62, 63, 64, 65, 66, 67, 68, 69, 70, 71, 72, 73, 74, 75, 76, 77, 78, 79, 80, 81, 82, 83, 84, 85, 86, 87, 88, 89, 90, 91, 92, 93, 94, 95, 96, 97, 98, 99, 100, 101, 102, 103, 104, 105, 106, 107, 108, 109, 110, 111, 112, 113, 114, 115, 116, 117, 118, 119, 120, 121, 122, 123, 124, 125, 126, 127, 128, 129, 130, 131, 132, 133, 134, 135, 136, 137, 138, 139, 140, 141, 142, 143, 144, 145, 146, 147, 148, 149, 150, 151, 152, 153, 154, 155, 156, 157, 158, 159, 160, 161, 162, 163, 164, 165, 166, 167, 168, 169, 170, 171, 172, 173, 174, 175, 176, 177, 178, 179, 180, 181, 182, 183, 184, 185, 186, 187, 188, 189, 190, 191, 192, 193, 194],
      "LargestImagePixelValue": [8811, 11721, 8186, 11864, 7677, 11203, 7641, 8762, 9289, 7491, 11659, 7250, 11472, 7386, 10103, 7335, 8323, 10652, 7316, 10968, 7397, 10679, 7430, 8233, 9981, 7256, 11738, 7348, 10770, 7140, 9475, 9214, 7879, 10985, 7406, 11358, 7725, 9174, 7221, 8230, 10306, 7314, 11844, 7401, 10509, 7290, 9124, 9828, 7780, 11322, 7288, 10887, 7719, 9340, 9088, 8084, 12246, 7548, 10775, 7451, 8353, 7537, 8705, 10034, 7354, 11296, 7525, 11024, 7228, 9675, 8989, 8265, 11796, 7674, 11125, 7423, 10031, 8512, 8585, 10514, 7352, 11623, 7476, 10104, 7157, 7956, 8707, 7493, 9450, 7258, 11615, 7353, 10825, 7342, 8718, 10293, 8230, 10807, 7571, 11147, 7410, 9732, 8902, 8755, 8154, 7870, 9686, 8155, 9359, 7628, 10639, 7447, 10753, 7591, 10642, 7395, 9010, 8090, 8814, 11582, 8477, 11256, 7445, 9838, 9583, 8581, 12079, 7506, 11574, 7329, 8863, 9460, 7417, 12593, 7493, 10110, 7214, 7607, 9857, 7322, 11658, 7461, 10484, 7210, 8332, 9582, 7178, 11909, 7247, 11007, 7418, 9262, 8716, 7889, 10550, 7327, 11141, 7249, 9722, 7071, 8427, 9656, 7356, 11737, 7122, 9010, 7253, 9371, 7209, 11692, 7292, 10255, 7749, 8230, 10717, 7383, 11736, 7402, 10505, 7636, 8937, 9078, 7989, 12528, 7322, 11469, 7958, 9284, 9865, 7774, 12803, 7490, 11521, 7357],
      "WindowCenter": [4413.0, 4429.0, 4385.0, 4413.0, 4362.0, 4399.0, 4348.0, 4368.0, 4366.0, 4336.0, 4397.0, 4336.0, 4386.0, 4334.0, 4376.0, 4336.0, 4358.0, 4386.0, 4335.0, 4386.0, 4347.0, 4386.0, 4335.0, 4357.0, 4377.0, 4349.0, 4398.0, 4347.0, 4387.0, 4335.0, 4378.0, 4366.0, 4357.0, 4386.0, 4348.0, 4398.0, 4346.0, 4368.0, 4336.0, 4368.0, 4389.0, 4349.0, 4398.0, 4348.0, 4388.0, 4349.0, 4381.0, 4390.0, 4356.0, 4387.0, 4348.0, 4397.0, 4347.0, 4377.0, 4366.0, 4359.0, 4407.0, 4346.0, 4386.0, 4335.0, 4356.0, 4346.0, 4368.0, 4376.0, 4346.0, 4397.0, 4346.0, 4386.0, 4346.0, 4378.0, 4366.0, 4357.0, 4397.0, 4345.0, 4385.0, 4335.0, 4377.0, 4352.0, 4353.0, 4372.0, 4336.0, 4383.0, 4332.0, 4387.0, 4322.0, 4344.0, 4353.0, 4334.0, 4364.0, 4345.0, 4397.0, 4346.0, 4398.0, 4335.0, 4367.0, 4375.0, 4355.0, 4385.0, 4345.0, 4384.0, 4333.0, 4375.0, 4353.0, 4357.0, 4342.0, 4343.0, 4363.0, 4343.0, 4352.0, 4334.0, 4385.0, 4332.0, 4386.0, 4345.0, 4385.0, 4345.0, 4379.0, 4356.0, 4367.0, 4385.0, 4344.0, 4373.0, 4322.0, 4374.0, 4351.0, 4355.0, 4381.0, 4322.0, 4370.0, 4319.0, 4350.0, 4349.0, 4332.0, 4380.0, 4319.0, 4361.0, 4319.0, 4331.0, 4359.0, 4319.0, 4379.0, 4333.0, 4372.0, 4332.0, 4353.0, 4360.0, 4334.0, 4382.0, 4332.0, 4383.0, 4332.0, 4365.0, 4351.0, 4356.0, 4373.0, 4333.0, 4385.0, 4335.0, 4374.0, 4334.0, 4355.0, 4376.0, 4346.0, 4406.0, 4337.0, 4376.0, 4348.0, 4377.0, 4346.0, 4395.0, 4334.0, 4375.0, 4333.0, 4356.0, 4373.0, 4335.0, 4383.0, 4333.0, 4386.0, 4344.0, 4363.0, 4352.0, 4341.0, 4392.0, 4333.0, 4382.0, 4330.0, 4350.0, 4359.0, 4329.0, 4379.0, 4317.0, 4368.0, 4317.0],
      "WindowWidth": [9754.0, 9766.0, 9694.0, 9728.0, 9659.0, 9704.0, 9631.0, 9657.0, 9651.0, 9612.0, 9694.0, 9610.0, 9677.0, 9606.0, 9663.0, 9612.0, 9645.0, 9679.0, 9610.0, 9680.0, 9628.0, 9680.0, 9609.0, 9641.0, 9669.0, 9635.0, 9698.0, 9627.0, 9681.0, 9610.0, 9670.0, 9651.0, 9640.0, 9679.0, 9631.0, 9699.0, 9627.0, 9657.0, 9612.0, 9658.0, 9689.0, 9637.0, 9698.0, 9631.0, 9684.0, 9636.0, 9679.0, 9690.0, 9641.0, 9682.0, 9634.0, 9697.0, 9627.0, 9669.0, 9650.0, 9646.0, 9712.0, 9625.0, 9680.0, 9608.0, 9639.0, 9627.0, 9660.0, 9668.0, 9627.0, 9696.0, 9626.0, 9681.0, 9626.0, 9673.0, 9655.0, 9643.0, 9695.0, 9624.0, 9675.0, 9611.0, 9670.0, 9628.0, 9631.0, 9653.0, 9610.0, 9670.0, 9600.0, 9683.0, 9588.0, 9621.0, 9630.0, 9607.0, 9646.0, 9623.0, 9698.0, 9627.0, 9701.0, 9610.0, 9658.0, 9662.0, 9636.0, 9676.0, 9623.0, 9673.0, 9603.0, 9663.0, 9628.0, 9642.0, 9612.0, 9618.0, 9642.0, 9616.0, 9628.0, 9605.0, 9677.0, 9604.0, 9680.0, 9623.0, 9678.0, 9624.0, 9678.0, 9640.0, 9657.0, 9677.0, 9620.0, 9657.0, 9588.0, 9660.0, 9624.0, 9635.0, 9664.0, 9586.0, 9649.0, 9578.0, 9620.0, 9616.0, 9601.0, 9661.0, 9577.0, 9637.0, 9578.0, 9597.0, 9630.0, 9578.0, 9660.0, 9606.0, 9655.0, 9603.0, 9631.0, 9635.0, 9608.0, 9668.0, 9602.0, 9672.0, 9602.0, 9650.0, 9627.0, 9639.0, 9657.0, 9603.0, 9678.0, 9611.0, 9661.0, 9607.0, 9636.0, 9668.0, 9628.0, 9712.0, 9617.0, 9669.0, 9635.0, 9674.0, 9628.0, 9690.0, 9607.0, 9662.0, 9605.0, 9640.0, 9659.0, 9608.0, 9671.0, 9603.0, 9678.0, 9620.0, 9646.0, 9627.0, 9611.0, 9681.0, 9605.0, 9668.0, 9592.0, 9619.0, 9629.0, 9591.0, 9657.0, 9572.0, 9640.0, 9571.0]
    },
    "slices": {}
  }
}