{
  "AcquisitionMatrixPE": 82,
  "AcquisitionNumber": 1,
  "AcquisitionTime": "20:00:43.575000",
  "BandwidthPerPixelPhaseEncode": 24.888,
  "BaseResolution": 82,
  "BodyPartExamined": "BRAIN",
  "ConsistencyInfo": "N4_VE11E_LATEST_20181129",
  "ConversionSoftware": "dcm2niix",
  "ConversionSoftwareVersion": "v1.0.20201102",
  "DerivedVendorReportedEchoSpacing": 0.00049,
  "DeviceSerialNumber": "66112",
  "DwellTime": 2e-06,
  "EchoTime": 0.0272,
  "EchoTrainLength": 82,
  "EffectiveEchoSpacing": 0.00049,
  "FlipAngle": 44,
  "ImageComments": "Unaliased MB8/PE3",
  "ImageOrientationPatientDICOM": [0.999949, 0.00967251, -0.0029223, -0.00942453, 0.997105, 0.075444],
  "ImageType": [
    "ORIGINAL",
    "PRIMARY",
    "M",
    "MB",
    "ND",
    "NORM",
    "MOSAIC"
],
  "ImagingFrequency": 123.259,
  "InPlanePhaseEncodingDirectionDICOM": "COL",
  "InstitutionAddress": "Maynard 3,Hanover,NH,US,03755",
  "InstitutionName": "Dartmouth College - PBS",
  "InstitutionalDepartmentName": "Department",
  "MRAcquisitionType": "2D",
  "MagneticFieldStrength": 3,
  "Manufacturer": "Siemens",
  "ManufacturersModelName": "Prisma",
  "Modality": "MR",
  "MultibandAccelerationFactor": 8,
  "PartialFourier": 1,
  "PatientPosition": "HFS",
  "PercentPhaseFOV": 100,
  "PercentSampling": 100,
  "PhaseEncodingDirection": "j-",
  "PhaseEncodingSteps": 82,
  "PhaseResolution": 1,
  "PixelBandwidth": 3050,
  "ProcedureStepDescription": "Wager_Wager^1076_spacetop",
  "ProtocolName": "func_run-01_task-alignvideo_acq-ap-mb8",
  "PulseSequenceDetails": "%CustomerSeq%\\cmrr_mbep2d_bold",
  "ReceiveCoilActiveElements": "HEA;HEP",
  "ReceiveCoilName": "Head_32",
  "ReconMatrixPE": 82,
  "RepetitionTime": 0.46,
  "SAR": 0.131514,
  "ScanOptions": "FS",
  "ScanningSequence": "EP",
  "SequenceName": "epfid2d1_82",
  "SequenceVariant": "SK\\SS",
  "SeriesDescription": "func_run-01_task-alignvideo_acq-ap-mb8",
  "SeriesNumber": 28,
  "ShimSetting": [4212, -7817, -7178, 54, -111, -157, -16, 107],
  "SliceThickness": 2.7,
  "SliceTiming": [0, 0.2525, 0.0625, 0.315, 0.125, 0.3775, 0.1875, 0, 0.2525, 0.0625, 0.315, 0.125, 0.3775, 0.1875, 0, 0.2525, 0.0625, 0.315, 0.125, 0.3775, 0.1875, 0, 0.2525, 0.0625, 0.315, 0.125, 0.3775, 0.1875, 0, 0.2525, 0.0625, 0.315, 0.125, 0.3775, 0.1875, 0, 0.2525, 0.0625, 0.315, 0.125, 0.3775, 0.1875, 0, 0.2525, 0.0625, 0.315, 0.125, 0.3775, 0.1875, 0, 0.2525, 0.0625, 0.315, 0.125, 0.3775, 0.1875],
  "SoftwareVersions": "syngo MR E11",
  "SpacingBetweenSlices": 2.7,
  "StationName": "AWP66112",
  "TaskName": "alignvideo",
  "TotalReadoutTime": 0.03969,
  "TxRefAmp": 318.233,
  "WipMemBlock": "74f5c0d2-2749-44e9-b74f-05ccd39437e4||Sequence: R016 ve11e/master r/434b28f1; Aug  7 2019 18:53:46 by eja",
  "dcmmeta_affine": [
    [-2.6827900409698486, -0.02528531476855278, -0.009837660007178783, 113.7848129272461],
    [-0.02595064416527748, 2.675161123275757, 0.20361410081386566, -87.75179290771484],
    [-0.007840326055884361, -0.20241080224514008, 2.692293405532837, -48.877197265625],
    [0.0, 0.0, 0.0, 1.0]
],
  "dcmmeta_reorient_transform": [
    [0.0, -1.0, 0.0, 81.0],
    [1.0, 0.0, 0.0, 0.0],
    [0.0, 0.0, 1.0, 0.0],
    [0.0, 0.0, 0.0, 1.0]
],
  "dcmmeta_shape": [82, 82, 56, 839],
  "dcmmeta_slice_dim": 2,
  "dcmmeta_version": 0.6,
  "global": {
    "const": {
      "AccessionNumber": "A004835",
      "AcquisitionMatrix": [82, 0, 0, 82],
      "AngioFlag": "N",
      "BitsAllocated": 16,
      "BitsStored": 16,
      "BodyPartExamined": "BRAIN",
      "Columns": 656,
      "EchoNumbers": 1,
      "EchoTime": 27.2,
      "EchoTrainLength": 82,
      "FlipAngle": 44.0,
      "HighBit": 15,
      "ImageOrientationPatient": [0.99994895002117, 0.00967251237793, -0.0029223031788, -0.0094245261029, 0.99710549979578, 0.07544402285631],
      "ImagePositionPatient": [-874.44053032484, -904.15534566404, -121.11419693008],
      "ImageType": [
        "ORIGINAL",
        "PRIMARY",
        "M",
        "MB",
        "ND",
        "NORM",
        "MOSAIC"
],
      "ImagedNucleus": "1H",
      "ImagingFrequency": 123.259012,
      "InPlanePhaseEncodingDirection": "COL",
      "MRAcquisitionType": "2D",
      "MagneticFieldStrength": 3.0,
      "Manufacturer": "SIEMENS",
      "ManufacturerModelName": "Prisma",
      "Modality": "MR",
      "NumberOfAverages": 1.0,
      "NumberOfPhaseEncodingSteps": 82,
      "PercentPhaseFieldOfView": 100.0,
      "PercentSampling": 100.0,
      "PerformedProcedureStepStartTime": "184058.782000",
      "PhotometricInterpretation": "MONOCHROME2",
      "PixelBandwidth": 3050.0,
      "PixelRepresentation": 0,
      "PixelSpacing": [2.6829268932343, 2.6829268932343],
      "ProtocolName": "func_run-01_task-alignvideo_acq-ap-mb8",
      "RepetitionTime": 460.0,
      "Rows": 656,
      "SAR": 0.13151394373664,
      "SamplesPerPixel": 1,
      "ScanOptions": "FS",
      "ScanningSequence": "EP",
      "SequenceName": "epfid2d1_82",
      "SequenceVariant": [
        "SK",
        "SS"
],
      "SeriesDescription": "func_run-01_task-alignvideo_acq-ap-mb8",
      "SeriesNumber": 28,
      "SeriesTime": "200059.853000",
      "SliceLocation": -55.769866978286,
      "SliceThickness": 2.7000000476837,
      "SmallestImagePixelValue": 0,
      "SoftwareVersions": "syngo MR E11",
      "SpacingBetweenSlices": 2.6999999379997,
      "SpecificCharacterSet": "ISO_IR 100",
      "StudyID": "2",
      "StudyTime": "184058.725000",
      "TransmitCoilName": "Body",
      "VariableFlipAngleFlag": "N",
      "WindowCenterWidthExplanation": "Algo1"
    },
    "slices": {}
  },
  "time": {
    "samples": {
      "AcquisitionNumber": [1, 2, 3, 4, 5, 6, 7, 8, 9, 10, 11, 12, 13, 14, 15, 16, 17, 18, 19, 20, 21, 22, 23, 24, 25, 26, 27, 28, 29, 30, 31, 32, 33, 34, 35, 36, 37, 38, 39, 40, 41, 42, 43, 44, 45, 46, 47, 48, 49, 50, 51, 52, 53, 54, 55, 56, 57, 58, 59, 60, 61, 62, 63, 64, 65, 66, 67, 68, 69, 70, 71, 72, 73, 74, 75, 76, 77, 78, 79, 80, 81, 82, 83, 84, 85, 86, 87, 88, 89, 90, 91, 92, 93, 94, 95, 96, 97, 98, 99, 100, 101, 102, 103, 104, 105, 106, 107, 108, 109, 110, 111, 112, 113, 114, 115, 116, 117, 118, 119, 120, 121, 122, 123, 124, 125, 126, 127, 128, 129, 130, 131, 132, 133, 134, 135, 136, 137, 138, 139, 140, 141, 142, 143, 144, 145, 146, 147, 148, 149, 150, 151, 152, 153, 154, 155, 156, 157, 158, 159, 160, 161, 162, 163, 164, 165, 166, 167, 168, 169, 170, 171, 172, 173, 174, 175, 176, 177, 178, 179, 180, 181, 182, 183, 184, 185, 186, 187, 188, 189, 190, 191, 192, 193, 194, 195, 196, 197, 198, 199, 200, 201, 202, 203, 204, 205, 206, 207, 208, 209, 210, 211, 212, 213, 214, 215, 216, 217, 218, 219, 220, 221, 222, 223, 224, 225, 226, 227, 228, 229, 230, 231, 232, 233, 234, 235, 236, 237, 238, 239, 240, 241, 242, 243, 244, 245, 246, 247, 248, 249, 250, 251, 252, 253, 254, 255, 256, 257, 258, 259, 260, 261, 262, 263, 264, 265, 266, 267, 268, 269, 270, 271, 272, 273, 274, 275, 276, 277, 278, 279, 280, 281, 282, 283, 284, 285, 286, 287, 288, 289, 290, 291, 292, 293, 294, 295, 296, 297, 298, 299, 300, 301, 302, 303, 304, 305, 306, 307, 308, 309, 310, 311, 312, 313, 314, 315, 316, 317, 318, 319, 320, 321, 322, 323, 324, 325, 326, 327, 328, 329, 330, 331, 332, 333, 334, 335, 336, 337, 338, 339, 340, 341, 342, 343, 344, 345, 346, 347, 348, 349, 350, 351, 352, 353, 354, 355, 356, 357, 358, 359, 360, 361, 362, 363, 364, 365, 366, 367, 368, 369, 370, 371, 372, 373, 374, 375, 376, 377, 378, 379, 380, 381, 382, 383, 384, 385, 386, 387, 388, 389, 390, 391, 392, 393, 394, 395, 396, 397, 398, 399, 400, 401, 402, 403, 404, 405, 406, 407, 408, 409, 410, 411, 412, 413, 414, 415, 416, 417, 418, 419, 420, 421, 422, 423, 424, 425, 426, 427, 428, 429, 430, 431, 432, 433, 434, 435, 436, 437, 438, 439, 440, 441, 442, 443, 444, 445, 446, 447, 448, 449, 450, 451, 452, 453, 454, 455, 456, 457, 458, 459, 460, 461, 462, 463, 464, 465, 466, 467, 468, 469, 470, 471, 472, 473, 474, 475, 476, 477, 478, 479, 480, 481, 482, 483, 484, 485, 486, 487, 488, 489, 490, 491, 492, 493, 494, 495, 496, 497, 498, 499, 500, 501, 502, 503, 504, 505, 506, 507, 508, 509, 510, 511, 512, 513, 514, 515, 516, 517, 518, 519, 520, 521, 522, 523, 524, 525, 526, 527, 528, 529, 530, 531, 532, 533, 534, 535, 536, 537, 538, 539, 540, 541, 542, 543, 544, 545, 546, 547, 548, 549, 550, 551, 552, 553, 554, 555, 556, 557, 558, 559, 560, 561, 562, 563, 564, 565, 566, 567, 568, 569, 570, 571, 572, 573, 574, 575, 576, 577, 578, 579, 580, 581, 582, 583, 584, 585, 586, 587, 588, 589, 590, 591, 592, 593, 594, 595, 596, 597, 598, 599, 600, 601, 602, 603, 604, 605, 606, 607, 608, 609, 610, 611, 612, 613, 614, 615, 616, 617, 618, 619, 620, 621, 622, 623, 624, 625, 626, 627, 628, 629, 630, 631, 632, 633, 634, 635, 636, 637, 638, 639, 640, 641, 642, 643, 644, 645, 646, 647, 648, 649, 650, 651, 652, 653, 654, 655, 656, 657, 658, 659, 660, 661, 662, 663, 664, 665, 666, 667, 668, 669, 670, 671, 672, 673, 674, 675, 676, 677, 678, 679, 680, 681, 682, 683, 684, 685, 686, 687, 688, 689, 690, 691, 692, 693, 694, 695, 696, 697, 698, 699, 700, 701, 702, 703, 704, 705, 706, 707, 708, 709, 710, 711, 712, 713, 714, 715, 716, 717, 718, 719, 720, 721, 722, 723, 724, 725, 726, 727, 728, 729, 730, 731, 732, 733, 734, 735, 736, 737, 738, 739, 740, 741, 742, 743, 744, 745, 746, 747, 748, 749, 750, 751, 752, 753, 754, 755, 756, 757, 758, 759, 760, 761, 762, 763, 764, 765, 766, 767, 768, 769, 770, 771, 772, 773, 774, 775, 776, 777, 778, 779, 780, 781, 782, 783, 784, 785, 786, 787, 788, 789, 790, 791, 792, 793, 794, 795, 796, 797, 798, 799, 800, 801, 802, 803, 804, 805, 806, 807, 808, 809, 810, 811, 812, 813, 814, 815, 816, 817, 818, 819, 820, 821, 822, 823, 824, 825, 826, 827, 828, 829, 830, 831, 832, 833, 834, 835, 836, 837, 838, 839],
      "AcquisitionTime": ["200043.575000", "200044.035000", "200044.495000", "200044.955000", "200045.415000", "200045.875000", "200046.335000", "200046.795000", "200047.255000", "200047.715000", "200048.175000", "200048.635000", "200049.095000", "200049.555000", "200050.015000", "200050.475000", "200050.935000", "200051.395000", "200051.855000", "200052.315000", "200052.775000", "200053.235000", "200053.695000", "200054.155000", "200054.615000", "200055.075000", "200055.535000", "200055.995000", "200056.455000", "200056.915000", "200057.375000", "200057.835000", "200058.295000", "200058.755000", "200059.215000", "200059.675000", "200100.135000", "200100.595000", "200101.055000", "200101.515000", "200101.975000", "200102.435000", "200102.895000", "200103.355000", "200103.815000", "200104.275000", "200104.735000", "200105.195000", "200105.655000", "200106.115000", "200106.575000", "200107.035000", "200107.495000", "200107.955000", "200108.415000", "200108.875000", "200109.335000", "200109.795000", "200110.255000", "200110.715000", "200111.175000", "200111.635000", "200112.095000", "200112.555000", "200113.015000", "200113.475000", "200113.935000", "200114.395000", "200114.855000", "200115.315000", "200115.775000", "200116.235000", "200116.695000", "200117.155000", "200117.615000", "200118.075000", "200118.535000", "200118.995000", "200119.455000", "200119.915000", "200120.375000", "200120.835000", "200121.295000", "200121.755000", "200122.215000", "200122.675000", "200123.135000", "200123.595000", "200124.055000", "200124.515000", "200124.975000", "200125.435000", "200125.895000", "200126.355000", "200126.815000", "200127.275000", "200127.735000", "200128.195000", "200128.655000", "200129.115000", "200129.575000", "200130.035000", "200130.495000", "200130.955000", "200131.415000", "200131.875000", "200132.335000", "200132.795000", "200133.255000", "200133.715000", "200134.175000", "200134.635000", "200135.095000", "200135.555000", "200136.015000", "200136.475000", "200136.935000", "200137.395000", "200137.855000", "200138.315000", "200138.775000", "200139.235000", "200139.695000", "200140.155000", "200140.615000", "200141.075000", "200141.535000", "200141.995000", "200142.455000", "200142.915000", "200143.375000", "200143.835000", "200144.295000", "200144.755000", "200145.215000", "200145.675000", "200146.135000", "200146.595000", "200147.055000", "200147.515000", "200147.975000", "200148.435000", "200148.895000", "200149.355000", "200149.815000", "200150.275000", "200150.735000", "200151.195000", "200151.655000", "200152.115000", "200152.575000", "200153.035000", "200153.495000", "200153.955000", "200154.415000", "200154.875000", "200155.335000", "200155.795000", "200156.255000", "200156.715000", "200157.175000", "200157.635000", "200158.095000", "200158.555000", "200159.015000", "200159.475000", "200159.935000", "200200.395000", "200200.855000", "200201.315000", "200201.775000", "200202.235000", "200202.695000", "200203.155000", "200203.615000", "200204.075000", "200204.535000", "200204.995000", "200205.455000", "200205.915000", "200206.375000", "200206.835000", "200207.295000", "200207.755000", "200208.215000", "200208.675000", "200209.135000", "200209.595000", "200210.055000", "200210.515000", "200210.975000", "200211.435000", "200211.895000", "200212.355000", "200212.815000", "200213.275000", "200213.735000", "200214.195000", "200214.655000", "200215.115000", "200215.575000", "200216.035000", "200216.495000", "200216.955000", "200217.415000", "200217.875000", "200218.335000", "200218.795000", "200219.255000", "200219.715000", "200220.175000", "200220.635000", "200221.095000", "200221.555000", "200222.015000", "200222.475000", "200222.935000", "200223.395000", "200223.855000", "200224.315000", "200224.775000", "200225.235000", "200225.695000", "200226.155000", "200226.615000", "200227.075000", "200227.535000", "200227.995000", "200228.455000", "200228.915000", "200229.375000", "200229.835000", "200230.295000", "200230.755000", "200231.215000", "200231.675000", "200232.135000", "200232.595000", "200233.055000", "200233.515000", "200233.975000", "200234.435000", "200234.895000", "200235.355000", "200235.815000", "200236.275000", "200236.735000", "200237.195000", "200237.655000", "200238.115000", "200238.575000", "200239.035000", "200239.495000", "200239.955000", "200240.415000", "200240.875000", "200241.335000", "200241.795000", "200242.255000", "200242.715000", "200243.175000", "200243.635000", "200244.095000", "200244.555000", "200245.015000", "200245.475000", "200245.935000", "200246.395000", "200246.855000", "200247.315000", "200247.775000", "200248.235000", "200248.695000", "200249.155000", "200249.615000", "200250.075000", "200250.535000", "200250.995000", "200251.455000", "200251.915000", "200252.375000", "200252.835000", "200253.295000", "200253.755000", "200254.215000", "200254.675000", "200255.135000", "200255.595000", "200256.055000", "200256.515000", "200256.975000", "200257.435000", "200257.895000", "200258.355000", "200258.815000", "200259.275000", "200259.735000", "200300.195000", "200300.655000", "200301.115000", "200301.575000", "200302.035000", "200302.495000", "200302.955000", "200303.415000", "200303.875000", "200304.335000", "200304.795000", "200305.255000", "200305.715000", "200306.175000", "200306.635000", "200307.095000", "200307.555000", "200308.015000", "200308.475000", "200308.935000", "200309.395000", "200309.855000", "200310.315000", "200310.775000", "200311.235000", "200311.695000", "200312.155000", "200312.615000", "200313.075000", "200313.535000", "200313.995000", "200314.455000", "200314.915000", "200315.375000", "200315.835000", "200316.295000", "200316.755000", "200317.215000", "200317.675000", "200318.135000", "200318.595000", "200319.055000", "200319.515000", "200319.975000", "200320.435000", "200320.895000", "200321.355000", "200321.815000", "200322.275000", "200322.735000", "200323.195000", "200323.655000", "200324.115000", "200324.575000", "200325.035000", "200325.495000", "200325.955000", "200326.415000", "200326.875000", "200327.335000", "200327.795000", "200328.255000", "200328.715000", "200329.175000", "200329.635000", "200330.095000", "200330.555000", "200331.015000", "200331.475000", "200331.935000", "200332.395000", "200332.855000", "200333.315000", "200333.775000", "200334.235000", "200334.695000", "200335.155000", "200335.615000", "200336.075000", "200336.535000", "200336.995000", "200337.455000", "200337.915000", "200338.375000", "200338.835000", "200339.295000", "200339.755000", "200340.215000", "200340.675000", "200341.135000", "200341.595000", "200342.055000", "200342.515000", "200342.975000", "200343.435000", "200343.895000", "200344.355000", "200344.815000", "200345.275000", "200345.735000", "200346.195000", "200346.655000", "200347.115000", "200347.575000", "200348.035000", "200348.495000", "200348.955000", "200349.415000", "200349.875000", "200350.335000", "200350.795000", "200351.255000", "200351.715000", "200352.175000", "200352.635000", "200353.095000", "200353.555000", "200354.015000", "200354.475000", "200354.935000", "200355.395000", "200355.855000", "200356.315000", "200356.775000", "200357.235000", "200357.695000", "200358.155000", "200358.615000", "200359.075000", "200359.535000", "200359.995000", "200400.455000", "200400.915000", "200401.375000", "200401.835000", "200402.295000", "200402.755000", "200403.215000", "200403.675000", "200404.135000", "200404.595000", "200405.055000", "200405.515000", "200405.975000", "200406.435000", "200406.895000", "200407.355000", "200407.815000", "200408.275000", "200408.735000", "200409.195000", "200409.655000", "200410.115000", "200410.575000", "200411.035000", "200411.495000", "200411.955000", "200412.415000", "200412.875000", "200413.335000", "200413.795000", "200414.255000", "200414.715000", "200415.175000", "200415.635000", "200416.095000", "200416.555000", "200417.015000", "200417.475000", "200417.935000", "200418.395000", "200418.855000", "200419.315000", "200419.775000", "200420.235000", "200420.695000", "200421.155000", "200421.615000", "200422.075000", "200422.535000", "200422.995000", "200423.455000", "200423.915000", "200424.375000", "200424.835000", "200425.295000", "200425.755000", "200426.215000", "200426.675000", "200427.135000", "200427.595000", "200428.055000", "200428.515000", "200428.975000", "200429.435000", "200429.895000", "200430.355000", "200430.815000", "200431.275000", "200431.735000", "200432.195000", "200432.655000", "200433.115000", "200433.575000", "200434.035000", "200434.495000", "200434.955000", "200435.415000", "200435.875000", "200436.335000", "200436.795000", "200437.255000", "200437.715000", "200438.175000", "200438.635000", "200439.095000", "200439.555000", "200440.015000", "200440.475000", "200440.935000", "200441.395000", "200441.855000", "200442.315000", "200442.775000", "200443.235000", "200443.695000", "200444.155000", "200444.615000", "200445.075000", "200445.535000", "200445.995000", "200446.455000", "200446.915000", "200447.375000", "200447.835000", "200448.295000", "200448.755000", "200449.215000", "200449.675000", "200450.135000", "200450.595000", "200451.055000", "200451.515000", "200451.975000", "200452.435000", "200452.895000", "200453.355000", "200453.815000", "200454.275000", "200454.735000", "200455.195000", "200455.655000", "200456.115000", "200456.575000", "200457.035000", "200457.495000", "200457.955000", "200458.415000", "200458.875000", "200459.335000", "200459.795000", "200500.255000", "200500.715000", "200501.175000", "200501.635000", "200502.095000", "200502.555000", "200503.015000", "200503.475000", "200503.935000", "200504.395000", "200504.855000", "200505.315000", "200505.775000", "200506.235000", "200506.695000", "200507.155000", "200507.615000", "200508.075000", "200508.535000", "200508.995000", "200509.455000", "200509.915000", "200510.375000", "200510.835000", "200511.295000", "200511.755000", "200512.215000", "200512.675000", "200513.135000", "200513.595000", "200514.055000", "200514.515000", "200514.975000", "200515.435000", "200515.895000", "200516.355000", "200516.815000", "200517.275000", "200517.735000", "200518.195000", "200518.655000", "200519.115000", "200519.575000", "200520.035000", "200520.495000", "200520.955000", "200521.415000", "200521.875000", "200522.335000", "200522.795000", "200523.255000", "200523.715000", "200524.175000", "200524.635000", "200525.095000", "200525.555000", "200526.015000", "200526.475000", "200526.935000", "200527.395000", "200527.855000", "200528.315000", "200528.775000", "200529.235000", "200529.695000", "200530.155000", "200530.615000", "200531.075000", "200531.535000", "200531.995000", "200532.455000", "200532.915000", "200533.375000", "200533.835000", "200534.295000", "200534.755000", "200535.215000", "200535.675000", "200536.135000", "200536.595000", "200537.055000", "200537.515000", "200537.975000", "200538.435000", "200538.895000", "200539.355000", "200539.815000", "200540.275000", "200540.735000", "200541.195000", "200541.655000", "200542.115000", "200542.575000", "200543.035000", "200543.495000", "200543.955000", "200544.415000", "200544.875000", "200545.335000", "200545.795000", "200546.255000", "200546.715000", "200547.175000", "200547.635000", "200548.095000", "200548.555000", "200549.015000", "200549.475000", "200549.935000", "200550.395000", "200550.855000", "200551.315000", "200551.775000", "200552.235000", "200552.695000", "200553.155000", "200553.615000", "200554.075000", "200554.535000", "200554.995000", "200555.455000", "200555.915000", "200556.375000", "200556.835000", "200557.295000", "200557.755000", "200558.215000", "200558.675000", "200559.135000", "200559.595000", "200600.055000", "200600.515000", "200600.975000", "200601.435000", "200601.895000", "200602.355000", "200602.815000", "200603.275000", "200603.735000", "200604.195000", "200604.655000", "200605.115000", "200605.575000", "200606.035000", "200606.495000", "200606.955000", "200607.415000", "200607.875000", "200608.335000", "200608.795000", "200609.255000", "200609.715000", "200610.175000", "200610.635000", "200611.095000", "200611.555000", "200612.015000", "200612.475000", "200612.935000", "200613.395000", "200613.855000", "200614.315000", "200614.775000", "200615.235000", "200615.695000", "200616.155000", "200616.615000", "200617.075000", "200617.535000", "200617.995000", "200618.455000", "200618.915000", "200619.375000", "200619.835000", "200620.295000", "200620.755000", "200621.215000", "200621.675000", "200622.135000", "200622.595000", "200623.055000", "200623.515000", "200623.975000", "200624.435000", "200624.895000", "200625.355000", "200625.815000", "200626.275000", "200626.735000", "200627.195000", "200627.655000", "200628.115000", "200628.575000", "200629.035000", "200629.495000", "200629.955000", "200630.415000", "200630.875000", "200631.335000", "200631.795000", "200632.255000", "200632.715000", "200633.175000", "200633.635000", "200634.095000", "200634.555000", "200635.015000", "200635.475000", "200635.935000", "200636.395000", "200636.855000", "200637.315000", "200637.775000", "200638.235000", "200638.695000", "200639.155000", "200639.615000", "200640.075000", "200640.535000", "200640.995000", "200641.455000", "200641.915000", "200642.375000", "200642.835000", "200643.295000", "200643.755000", "200644.215000", "200644.675000", "200645.135000", "200645.595000", "200646.055000", "200646.515000", "200646.975000", "200647.435000", "200647.895000", "200648.355000", "200648.815000", "200649.275000", "200649.735000", "200650.195000", "200650.655000", "200651.115000", "200651.575000", "200652.035000", "200652.495000", "200652.955000", "200653.415000", "200653.875000", "200654.335000", "200654.795000", "200655.255000", "200655.715000", "200656.175000", "200656.635000", "200657.095000", "200657.555000", "200658.015000", "200658.475000", "200658.935000", "200659.395000", "200659.855000", "200700.315000", "200700.775000", "200701.235000", "200701.695000", "200702.155000", "200702.615000", "200703.075000", "200703.535000", "200703.995000", "200704.455000", "200704.915000", "200705.375000", "200705.835000", "200706.295000", "200706.755000", "200707.215000", "200707.675000", "200708.135000", "200708.595000", "200709.055000"],
