{
  "AcquisitionMatrixPE": 140,
  "AcquisitionNumber": 1,
  "AcquisitionTime": "15:23:20.025000",
  "BandwidthPerPixelPhaseEncode": 10.352,
  "BaseResolution": 140,
  "BodyPartExamined": "BRAIN",
  "ConsistencyInfo": "N4_VE11E_LATEST_20181129",
  "ConversionSoftware": "dcm2niix",
  "ConversionSoftwareVersion": "v1.0.20201102",
  "DerivedVendorReportedEchoSpacing": 0.000689998,
  "DeviceSerialNumber": "66112",
  "DiffusionScheme": "Monopolar",
  "DwellTime": 2.1e-06,
  "EchoTime": 0.088,
  "EchoTrainLength": 105,
  "EffectiveEchoSpacing": 0.000689998,
  "FlipAngle": 90,
  "ImageComments": "Unaliased MB3/PE3",
  "ImageOrientationPatientDICOM": [0.997811, -0.0183376, 0.0635364, 0.00313476, 0.97282, 0.231541],
  "ImageType": [
    "ORIGINAL",
    "PRIMARY",
    "DIFFUSION",
    "NONE",
    "MB",
    "ND"
],
  "ImagingFrequency": 123.259,
  "InPlanePhaseEncodingDirectionDICOM": "COL",
  "InstitutionAddress": "Maynard 3,Hanover,NH,US,03755",
  "InstitutionName": "Dartmouth College - PBS",
  "InstitutionalDepartmentName": "Department",
  "IntendedFor": [
    "ses-01/dwi/sub-0106_ses-01_acq-96dirX6b0Xmb_dwi.nii.gz"
],
  "MRAcquisitionType": "2D",
  "MagneticFieldStrength": 3,
  "Manufacturer": "Siemens",
  "ManufacturersModelName": "Prisma",
  "Modality": "MR",
  "MultibandAccelerationFactor": 3,
  "PartialFourier": 0.75,
  "PatientPosition": "HFS",
  "PercentPhaseFOV": 100,
  "PercentSampling": 100,
  "PhaseEncodingDirection": "j-",
  "PhaseEncodingSteps": 105,
  "PhaseResolution": 1,
  "PixelBandwidth": 1700,
  "ProcedureStepDescription": "Wager_Wager^1076_spacetop",
  "ProtocolName": "dwi_acq-discorr-AP",
  "PulseSequenceDetails": "%CustomerSeq%\\cmrr_mbep2d_diff",
  "ReceiveCoilActiveElements": "HEA;HEP",
  "ReceiveCoilName": "Head_32",
  "ReconMatrixPE": 140,
  "RepetitionTime": 4.1,
  "SAR": 0.131763,
  "ScanOptions": "PFP\\FS",
  "ScanningSequence": "EP",
  "SequenceName": "ep_b0",
  "SequenceVariant": "SK\\SS",
  "SeriesDescription": "dwi_acq-discorr-AP",
  "SeriesNumber": 7,
  "ShimSetting": [4251, -7765, -7271, 288, -57, 72, -108, 79],
  "SliceThickness": 1.7,
  "SliceTiming": [0, 2.10938, 0.14062, 2.26562, 0.29688, 2.40625, 0.45312, 2.5625, 0.59375, 2.71875, 0.75, 2.85938, 0.90625, 3.01562, 1.04688, 3.17188, 1.20312, 3.3125, 1.35938, 3.46875, 1.5, 3.625, 1.65625, 3.76562, 1.8125, 3.92188, 1.95312, 0, 2.10938, 0.14062, 2.26562, 0.29688, 2.40625, 0.45312, 2.5625, 0.59375, 2.71875, 0.75, 2.85938, 0.90625, 3.01562, 1.04688, 3.17188, 1.20312, 3.3125, 1.35938, 3.46875, 1.5, 3.625, 1.65625, 3.76562, 1.8125, 3.92188, 1.95312, 0, 2.10938, 0.14062, 2.26562, 0.29688, 2.40625, 0.45312, 2.5625, 0.59375, 2.71875, 0.75, 2.85938, 0.90625, 3.01562, 1.04688, 3.17188, 1.20312, 3.3125, 1.35938, 3.46875, 1.5, 3.625, 1.65625, 3.76562, 1.8125, 3.92188, 1.95312],
  "SoftwareVersions": "syngo MR E11",
  "SpacingBetweenSlices": 1.7,
  "StationName": "AWP66112",
  "TotalReadoutTime": 0.0959097,
  "TxRefAmp": 227.379,
  "WipMemBlock": "a06ccb98-4a72-4eb3-8f70-299eef6d4a86||Sequence: R016 ve11e/master r/434b28f1; Aug  7 2019 19:06:17 by eja",
  "dcmmeta_affine": [
    [-1.7105332612991333, 0.0053738802671432495, 0.11229419708251953, 116.66532135009766],
    [0.031435877084732056, 1.6676915884017944, 0.3924217224121094, -98.56497955322266],
    [0.10891955345869064, -0.3969273269176483, 1.6502685546875, -40.59443664550781],
    [0.0, 0.0, 0.0, 1.0]
],
  "dcmmeta_reorient_transform": [
    [0.0, -1.0, 0.0, 139.0],
    [1.0, 0.0, 0.0, 0.0],
    [0.0, 0.0, -1.0, 80.0],
    [0.0, 0.0, 0.0, 1.0]
],
  "dcmmeta_shape": [140, 140, 81],
  "dcmmeta_slice_dim": 2,
  "dcmmeta_version": 0.6,
  "global": {
    "const": {
      "AccessionNumber": "A004413",
      "AcquisitionMatrix": [140, 0, 0, 140],
      "AcquisitionNumber": 1,
      "AngioFlag": "N",
      "BitsAllocated": 16,
      "BitsStored": 16,
      "BodyPartExamined": "BRAIN",
      "Columns": 140,
      "EchoNumbers": 1,
      "EchoTime": 88.0,
      "EchoTrainLength": 105,
      "FlipAngle": 90.0,
      "HighBit": 15,
      "ImageOrientationPatient": [0.9978110332466, -0.0183375937997, 0.06353640362015, 0.00313476339189, 0.97282011032289, 0.2315409385181],
      "ImageType": [
        "ORIGINAL",
        "PRIMARY",
        "DIFFUSION",
        "NONE",
        "MB",
        "ND"
],
      "ImagedNucleus": "1H",
      "ImagingFrequency": 123.259128,
      "InPlanePhaseEncodingDirection": "COL",
      "MRAcquisitionType": "2D",
      "MagneticFieldStrength": 3.0,
      "Manufacturer": "SIEMENS",
      "ManufacturerModelName": "Prisma",
      "Modality": "MR",
      "NumberOfAverages": 1.0,
      "NumberOfPhaseEncodingSteps": 105,
      "PercentPhaseFieldOfView": 100.0,
      "PercentSampling": 100.0,
      "PerformedProcedureStepStartTime": "150515.756000",
      "PhotometricInterpretation": "MONOCHROME2",
      "PixelBandwidth": 1700.0,
      "PixelRepresentation": 0,
      "PixelSpacing": [1.7142857313156, 1.7142857313156],
      "ProtocolName": "dwi_acq-discorr-AP",
      "RepetitionTime": 4100.0,
      "Rows": 140,
      "SAR": 0.13176326091639,
      "SamplesPerPixel": 1,
      "ScanOptions": [
        "PFP",
        "FS"
],
      "ScanningSequence": "EP",
      "SequenceName": "ep_b0",
      "SequenceVariant": [
        "SK",
        "SS"
],
      "SeriesDescription": "dwi_acq-discorr-AP",
      "SeriesNumber": 7,
      "SeriesTime": "152324.411000",
      "SliceThickness": 1.7000000476837,
      "SmallestImagePixelValue": 0,
      "SoftwareVersions": "syngo MR E11",
      "SpacingBetweenSlices": 1.7,
      "SpecificCharacterSet": "ISO_IR 100",
      "StudyID": "1",
      "StudyTime": "150515.680000",
      "TransmitCoilName": "Body",
      "VariableFlipAngleFlag": "N",
      "WindowCenterWidthExplanation": "Algo1"
    },
    "slices": {
      "AcquisitionTime": ["152320.025000", "152322.140000", "152320.177500", "152322.292500", "152320.327500", "152322.442500", "152320.480000", "152322.595000", "152320.630000", "152322.745000", "152320.780000", "152322.897500", "152320.932500", "152323.047500", "152321.082500", "152323.200000", "152321.235000", "152323.350000", "152321.385000", "152323.500000", "152321.537500", "152323.652500", "152321.687500", "152323.802500", "152321.840000", "152323.955000", "152321.990000", "152320.025000", "152322.140000", "152320.177500", "152322.292500", "152320.327500", "152322.442500", "152320.480000", "152322.595000", "152320.630000", "152322.745000", "152320.780000", "152322.897500", "152320.932500", "152323.047500", "152321.082500", "152323.200000", "152321.235000", "152323.350000", "152321.385000", "152323.500000", "152321.537500", "152323.652500", "152321.687500", "152323.802500", "152321.840000", "152323.955000", "152321.990000", "152320.025000", "152322.140000", "152320.177500", "152322.292500", "152320.327500", "152322.442500", "152320.480000", "152322.595000", "152320.630000", "152322.745000", "152320.780000", "152322.897500", "152320.932500", "152323.047500", "152321.082500", "152323.200000", "152321.235000", "152323.350000", "152321.385000", "152323.500000", "152321.537500", "152323.652500", "152321.687500", "152323.802500", "152321.840000", "152323.955000", "152321.990000"],
      "ContentTime": ["152324.413000", "152324.498000", "152324.420000", "152324.506000", "152324.426000", "152324.513000", "152324.432000", "152324.521000", "152324.438000", "152324.531000", "152324.444000", "152324.538000", "152324.450000", "152324.545000", "152324.456000", "152324.552000", "152324.461000", "152324.558000", "152324.467000", "152324.565000", "152324.474000", "152324.571000", "152324.480000", "152324.577000", "152324.486000", "152324.583000", "152324.492000", "152324.416000", "152324.502000", "152324.422000", "152324.509000", "152324.428000", "152324.516000", "152324.434000", "152324.523000", "152324.440000", "152324.533000", "152324.446000", "152324.540000", "152324.452000", "152324.547000", "152324.457000", "152324.554000", "152324.463000", "152324.561000", "152324.469000", "152324.567000", "152324.476000", "152324.573000", "152324.482000", "152324.579000", "152324.488000", "152324.585000", "152324.494000", "152324.418000", "152324.504000", "152324.424000", "152324.511000", "152324.430000", "152324.519000", "152324.436000", "152324.528000", "152324.442000", "152324.535000", "152324.448000", "152324.543000", "152324.454000", "152324.549000", "152324.459000", "152324.556000", "152324.465000", "152324.563000", "152324.471000", "152324.569000", "152324.478000", "152324.575000", "152324.484000", "152324.581000", "152324.490000", "152324.587000", "152324.496000"],
      "CsaImage.GSWDDataType": [
        "predicted",
        "predicted",
        "predicted",
        "predicted",
        "predicted",
        "predicted",
        "predicted",
        "predicted",
        "predicted",
        "predicted",
        "predicted",
        "predicted",
        "predicted",
        "predicted",
        "predicted",
        "predicted",
        "predicted",
        "predicted",
        "predicted",
        "predicted",
        "predicted",
        "predicted",
        "predicted",
        "measured",
        "predicted",
        "measured",
        "predicted",
        "predicted",
        "predicted",
        "predicted",
        "predicted",
        "predicted",
        "predicted",
        "predicted",
        "predicted",
        "predicted",
        "predicted",
        "predicted",
        "predicted",
        "predicted",
        "predicted",
        "predicted",
        "predicted",
        "predicted",
        "predicted",
        "predicted",
        "predicted",
        "predicted",
        "predicted",
        "predicted",
        "measured",
        "predicted",
        "measured",
        "predicted",
        "predicted",
        "predicted",
        "predicted",
        "predicted",
        "predicted",
        "predicted",
        "predicted",
        "predicted",
        "predicted",
        "predicted",
        "predicted",
        "predicted",
        "predicted",
        "predicted",
        "predicted",
        "predicted",
        "predicted",
        "predicted",
        "predicted",
        "predicted",
        "predicted",
        "predicted",
        "predicted",
        "measured",
        "predicted",
        "measured",
        "predicted"
],
      "CsaImage.ICE_Dims": [
        "X_1_1_1_1_1_1_1_1_1_1_1_199",
        "X_1_1_1_1_1_1_42_1_1_2_1_199",
        "X_1_1_1_1_1_1_2_1_1_3_1_199",
        "X_1_1_1_1_1_1_43_1_1_4_1_199",
        "X_1_1_1_1_1_1_3_1_1_5_1_199",
        "X_1_1_1_1_1_1_44_1_1_6_1_199",
        "X_1_1_1_1_1_1_4_1_1_7_1_199",
        "X_1_1_1_1_1_1_45_1_1_8_1_199",
        "X_1_1_1_1_1_1_5_1_1_9_1_199",
        "X_1_1_1_1_1_1_46_1_1_10_1_199",
        "X_1_1_1_1_1_1_6_1_1_11_1_199",
        "X_1_1_1_1_1_1_47_1_1_12_1_199",
        "X_1_1_1_1_1_1_7_1_1_13_1_199",
        "X_1_1_1_1_1_1_48_1_1_14_1_199",
        "X_1_1_1_1_1_1_8_1_1_15_1_199",
        "X_1_1_1_1_1_1_49_1_1_16_1_199",
        "X_1_1_1_1_1_1_9_1_1_17_1_199",
        "X_1_1_1_1_1_1_50_1_1_18_1_199",
        "X_1_1_1_1_1_1_10_1_1_19_1_199",
        "X_1_1_1_1_1_1_51_1_1_20_1_199",
        "X_1_1_1_1_1_1_11_1_1_21_1_199",
        "X_1_1_1_1_1_1_52_1_1_22_1_199",
        "X_1_1_1_1_1_1_12_1_1_23_1_199",
        "X_1_1_1_1_1_1_53_1_1_24_1_199",
        "X_1_1_1_1_1_1_13_1_1_25_1_199",
        "X_1_1_1_1_1_1_54_1_1_26_1_199",
        "X_1_1_1_1_1_1_14_1_1_27_1_199",
        "X_1_1_1_1_1_1_55_1_1_28_1_199",
        "X_1_1_1_1_1_1_15_1_1_29_1_199",
        "X_1_1_1_1_1_1_56_1_1_30_1_199",
        "X_1_1_1_1_1_1_16_1_1_31_1_199",
        "X_1_1_1_1_1_1_57_1_1_32_1_199",
        "X_1_1_1_1_1_1_17_1_1_33_1_199",
        "X_1_1_1_1_1_1_58_1_1_34_1_199",
        "X_1_1_1_1_1_1_18_1_1_35_1_199",
        "X_1_1_1_1_1_1_59_1_1_36_1_199",
        "X_1_1_1_1_1_1_19_1_1_37_1_199",
        "X_1_1_1_1_1_1_60_1_1_38_1_199",
        "X_1_1_1_1_1_1_20_1_1_39_1_199",
        "X_1_1_1_1_1_1_61_1_1_40_1_199",
        "X_1_1_1_1_1_1_21_1_1_41_1_199",
        "X_1_1_1_1_1_1_62_1_1_42_1_199",
        "X_1_1_1_1_1_1_22_1_1_43_1_199",
        "X_1_1_1_1_1_1_63_1_1_44_1_199",
        "X_1_1_1_1_1_1_23_1_1_45_1_199",
        "X_1_1_1_1_1_1_64_1_1_46_1_199",
        "X_1_1_1_1_1_1_24_1_1_47_1_199",
        "X_1_1_1_1_1_1_65_1_1_48_1_199",
        "X_1_1_1_1_1_1_25_1_1_49_1_199",
        "X_1_1_1_1_1_1_66_1_1_50_1_199",
        "X_1_1_1_1_1_1_26_1_1_51_1_199",
        "X_1_1_1_1_1_1_67_1_1_52_1_199",
        "X_1_1_1_1_1_1_27_1_1_53_1_199",
        "X_1_1_1_1_1_1_68_1_1_54_1_199",
        "X_1_1_1_1_1_1_28_1_1_55_1_199",
        "X_1_1_1_1_1_1_69_1_1_56_1_199",
        "X_1_1_1_1_1_1_29_1_1_57_1_199",
        "X_1_1_1_1_1_1_70_1_1_58_1_199",
        "X_1_1_1_1_1_1_30_1_1_59_1_199",
        "X_1_1_1_1_1_1_71_1_1_60_1_199",
        "X_1_1_1_1_1_1_31_1_1_61_1_199",
        "X_1_1_1_1_1_1_72_1_1_62_1_199",
        "X_1_1_1_1_1_1_32_1_1_63_1_199",
        "X_1_1_1_1_1_1_73_1_1_64_1_199",
        "X_1_1_1_1_1_1_33_1_1_65_1_199",
        "X_1_1_1_1_1_1_74_1_1_66_1_199",
        "X_1_1_1_1_1_1_34_1_1_67_1_199",
        "X_1_1_1_1_1_1_75_1_1_68_1_199",
        "X_1_1_1_1_1_1_35_1_1_69_1_199",
        "X_1_1_1_1_1_1_76_1_1_70_1_199",
        "X_1_1_1_1_1_1_36_1_1_71_1_199",
        "X_1_1_1_1_1_1_77_1_1_72_1_199",
        "X_1_1_1_1_1_1_37_1_1_73_1_199",
        "X_1_1_1_1_1_1_78_1_1_74_1_199",
        "X_1_1_1_1_1_1_38_1_1_75_1_199",
        "X_1_1_1_1_1_1_79_1_1_76_1_199",
        "X_1_1_1_1_1_1_39_1_1_77_1_199",
        "X_1_1_1_1_1_1_80_1_1_78_1_199",
        "X_1_1_1_1_1_1_40_1_1_79_1_199",
        "X_1_1_1_1_1_1_81_1_1_80_1_199",
        "X_1_1_1_1_1_1_41_1_1_81_1_199"
],
      "CsaImage.ProtocolSliceNumber": [0, 1, 2, 3, 4, 5, 6, 7, 8, 9, 10, 11, 12, 13, 14, 15, 16, 17, 18, 19, 20, 21, 22, 23, 24, 25, 26, 27, 28, 29, 30, 31, 32, 33, 34, 35, 36, 37, 38, 39, 40, 41, 42, 43, 44, 45, 46, 47, 48, 49, 50, 51, 52, 53, 54, 55, 56, 57, 58, 59, 60, 61, 62, 63, 64, 65, 66, 67, 68, 69, 70, 71, 72, 73, 74, 75, 76, 77, 78, 79, 80],
      "CsaImage.RFSWDDataType": [
        "predicted",
        "predicted",
        "predicted",
        "predicted",
        "predicted",
        "predicted",
        "predicted",
        "predicted",
        "predicted",
        "predicted",
        "predicted",
        "predicted",
        "predicted",
        "predicted",
        "predicted",
        "predicted",
        "predicted",
        "predicted",
        "predicted",
        "predicted",
        "predicted",
        "predicted",
        "predicted",
        "measured",
        "predicted",
        "measured",
        "predicted",
        "predicted",
        "predicted",
        "predicted",
        "predicted",
        "predicted",
        "predicted",
        "predicted",
        "predicted",
        "predicted",
        "predicted",
        "predicted",
        "predicted",
        "predicted",
        "predicted",
        "predicted",
        "predicted",
        "predicted",
        "predicted",
        "predicted",
        "predicted",
        "predicted",
        "predicted",
        "predicted",
        "measured",
        "predicted",
        "measured",
        "predicted",
        "predicted",
        "predicted",
        "predicted",
        "predicted",
        "predicted",
        "predicted",
        "predicted",
        "predicted",
        "predicted",
        "predicted",
        "predicted",
        "predicted",
        "predicted",
        "predicted",
        "predicted",
        "predicted",
        "predicted",
        "predicted",
        "predicted",
        "predicted",
        "predicted",
        "predicted",
        "predicted",
        "measured",
        "predicted",
        "measured",
        "predicted"
],
      "CsaImage.SlicePosition_PCS": [
        [-117.41228891, -133.244345, -95.76759592],
        [-117.52458311, -133.63676481, -94.11732355],
        [-117.63687731, -134.02918463, -92.46705118],
        [-117.7491715, -134.42160445, -90.81677881],
        [-117.8614657, -134.81402235, -89.16651026],
        [-117.9737599, -135.20644217, -87.51623789],
        [-118.08605386, -135.59886198, -85.86596552],
        [-118.19834817, -135.9912818, -84.21569315],
        [-118.31064237, -136.38370161, -82.56542078],
        [-118.42293645, -136.77611952, -80.91514841],
        [-118.53523065, -137.16853934, -79.26487604],
        [-118.64752484, -137.56095915, -77.61460749],
        [-118.75981904, -137.95337897, -75.96433512],
        [-118.87211324, -138.34579687, -74.31406275],
        [-118.98440732, -138.73821669, -72.66379038],
        [-119.09670151, -139.1306365, -71.01351801],
        [-119.20899571, -139.52305632, -69.36324564],
        [-119.32128985, -139.91547613, -67.71297327],
        [-119.43358404, -140.30789404, -66.06270281],
        [-119.54587824, -140.70031386, -64.41243044],
        [-119.65817241, -141.09273367, -62.76215998],
        [-119.77046658, -141.48515349, -61.11188761],
        [-119.88276074, -141.87757139, -59.46161524],
        [-119.99505492, -142.26999121, -57.81134478],
        [-120.10734909, -142.66241102, -56.16107241],
        [-120.21964326, -143.05483084, -54.51080004],
        [-120.33193744, -143.44725065, -52.86052958],
        [-120.44423161, -143.83966856, -51.21025721],
        [-120.55652578, -144.23208838, -49.55998484],
        [-120.66881997, -144.62450819, -47.90971342],
        [-120.78111411, -145.01692801, -46.25944105],
        [-120.89340831, -145.40934592, -44.60916964],
        [-121.00570245, -145.80176573, -42.95889775],
        [-121.1179967, -146.19418555, -41.30862585],
        [-121.23029078, -146.58660536, -39.65835444],
        [-121.34258498, -146.97902327, -38.00808231],
        [-121.45487917, -147.37144499, -36.35781059],
        [-121.56717337, -147.7638629, -34.70753876],
        [-121.67946757, -148.15628081, -33.05726687],
        [-121.79176165, -148.54870253, -31.40699497],
        [-121.90405584, -148.94112044, -29.75672356],
        [-122.01635004, -149.33354216, -28.10645167],
        [-122.12864424, -149.72596007, -26.4561793],
        [-122.24093843, -150.11837797, -24.80590788],
        [-122.35323263, -150.5107997, -23.15563647],
        [-122.46552683, -150.9032176, -21.5053641],
        [-122.57782079, -151.29563933, -19.85509268],
        [-122.69011498, -151.68805723, -18.20482126],
        [-122.80240918, -152.08047514, -16.55454889],
        [-122.91470338, -152.47289686, -14.90427653],
        [-123.02699758, -152.86531477, -13.25400606],
        [-123.13929177, -153.25773649, -11.60373369],
        [-123.25158597, -153.6501544, -9.95346132],
        [-123.36388017, -154.04257231, -8.30318896],
        [-123.47617436, -154.43499403, -6.65291849],
        [-123.58846856, -154.82741194, -5.00264612],
        [-123.70076252, -155.21982985, -3.35237375],
        [-123.81305672, -155.61225157, -1.70210139],
        [-123.92535091, -156.00466948, -0.05182902],
        [-124.03764511, -156.3970912, 1.59843954],
        [-124.14993955, -156.78950911, 3.24871191],
        [-124.26223327, -157.18192702, 4.89898428],
        [-124.37452746, -157.57434874, 6.54925665],
        [-124.48682166, -157.96676665, 8.19952902],
        [-124.59911586, -158.35918837, 9.84980139],
        [-124.71141006, -158.75160628, 11.50006994],
        [-124.82370425, -159.14402418, 13.15034231],
        [-124.93599845, -159.53644591, 14.80061468],
        [-125.04829265, -159.92886381, 16.45088705],
        [-125.16058684, -160.32128554, 18.10115942],
        [-125.27288104, -160.71370344, 19.75143179],
        [-125.38517524, -161.10612135, 21.40170416],
        [-125.49746943, -161.49854307, 23.05197271],
        [-125.60976363, -161.89096098, 24.70224508],
        [-125.72205783, -162.28337889, 26.35251745],
        [-125.83435203, -162.67580061, 28.00278982],
        [-125.94664622, -163.06821852, 29.65305837],
        [-126.05894042, -163.46064024, 31.30333456],
        [-126.17123462, -163.85305815, 32.95360311],
        [-126.28352881, -164.24547606, 34.6038793],
        [-126.39582301, -164.63789778, 36.25414785]
],
      "CsaImage.TimeAfterStart": [16.4, 18.515, 16.55, 18.6675, 16.7025, 18.8175, 16.8525, 18.97, 17.005, 19.12, 17.155, 19.27, 17.3075, 19.4225, 17.4575, 19.5725, 17.61, 19.725, 17.76, 19.875, 17.91, 20.0275, 18.0625, 20.1775, 18.2125, 20.33, 18.365, 16.4, 18.515, 16.55, 18.6675, 16.7025, 18.8175, 16.8525, 18.97, 17.005, 19.12, 17.155, 19.27, 17.3075, 19.4225, 17.4575, 19.5725, 17.61, 19.725, 17.76, 19.875, 17.91, 20.0275, 18.0625, 20.1775, 18.2125, 20.33, 18.365, 16.4, 18.515, 16.55, 18.6675, 16.7025, 18.8175, 16.8525, 18.97, 17.005, 19.12, 17.155, 19.27, 17.3075, 19.4225, 17.4575, 19.5725, 17.61, 19.725, 17.76, 19.875, 17.91, 20.0275, 18.0625, 20.1775, 18.2125, 20.33, 18.365],
      "ImagePositionPatient": [
        [-117.41228891363, -133.24434499988, -95.76759592251],
        [-117.52458311072, -133.63676481495, -94.117323553125],
        [-117.6368773078, -134.02918463001, -92.467051183741],
        [-117.74917150488, -134.42160444507, -90.816778814356],
        [-117.86146570196, -134.81402235279, -89.166510259668],
        [-117.97375989905, -135.20644216785, -87.516237890284],
        [-118.08605385771, -135.59886198291, -85.865965520899],
        [-118.198348174, -135.99128179798, -84.215693151514],
        [-118.31064237108, -136.38370161304, -82.565420782129],
        [-118.42293644896, -136.77611952076, -80.915148412745],
        [-118.53523064604, -137.16853933582, -79.26487604336],
        [-118.64752484312, -137.56095915088, -77.614607488672],
        [-118.75981904021, -137.95337896595, -75.964335119287],
        [-118.87211323729, -138.34579687366, -74.314062749903],
        [-118.98440731516, -138.73821668873, -72.663790380518],
        [-119.09670151224, -139.13063650379, -71.013518011133],
        [-119.20899570933, -139.52305631885, -69.363245641748],
        [-119.3212898468, -139.91547613392, -67.712973272364],
        [-119.43358404389, -140.30789404163, -66.062702810328],
        [-119.54587824097, -140.70031385669, -64.412430440943],
        [-119.65817240825, -141.09273367176, -62.762159978907],
        [-119.77046657553, -141.48515348682, -61.111887609522],
        [-119.88276074281, -141.87757139454, -59.461615240137],
        [-119.99505491754, -142.2699912096, -57.811344778101],
        [-120.10734908808, -142.66241102466, -56.161072408716],
        [-120.21964325955, -143.05483083973, -54.510800039331],
        [-120.33193744173, -143.44725065479, -52.860529577295],
        [-120.44423160901, -143.8396685625, -51.210257207911],
        [-120.55652577629, -144.23208837757, -49.559984838526],
        [-120.66881997338, -144.62450819263, -47.909713422815],
        [-120.78111411085, -145.01692800769, -46.259441053431],
        [-120.89340830794, -145.40934591541, -44.60916963772],
        [-121.00570244541, -145.80176573047, -42.958897745172],
        [-121.1179967021, -146.19418554554, -41.308625852625],
        [-121.23029077997, -146.5866053606, -39.658354436914],
        [-121.34258497706, -146.97902326831, -38.008082305948],
        [-121.45487917414, -147.37144499073, -36.357810592215],
        [-121.56717337122, -147.76386289844, -34.707538759272],
        [-121.6794675683, -148.15628080616, -33.057266866724],
        [-121.79176164618, -148.54870252857, -31.406994974176],
        [-121.90405584326, -148.94112043628, -29.756723558466],
        [-122.01635004034, -149.3335421587, -28.106451665918],
        [-122.12864423743, -149.72596006641, -26.456179296534],
        [-122.24093843451, -150.11837797413, -24.805907880823],
        [-122.35323263159, -150.51079969654, -23.155636465113],
        [-122.46552682867, -150.90321760425, -21.505364095728],
        [-122.57782078734, -151.29563932666, -19.855092680017],
        [-122.69011498442, -151.68805723438, -18.204821264307],
        [-122.8024091815, -152.08047514209, -16.554548894922],
        [-122.91470337858, -152.47289686451, -14.904276525537],
        [-123.02699757567, -152.86531477222, -13.254006063501],
        [-123.13929177275, -153.25773649463, -11.603733694117],
        [-123.25158596983, -153.65015440235, -9.9534613247318],
        [-123.36388016691, -154.04257231006, -8.303188955347],
        [-123.476174364, -154.43499403248, -6.6529184933109],
        [-123.58846856108, -154.82741194019, -5.0026461239261],
        [-123.70076251974, -155.2198298479, -3.3523737545414],
        [-123.81305671683, -155.61225157032, -1.7021013851566],
        [-123.92535091391, -156.00466947803, -0.0518290157718],
        [-124.03764511099, -156.39709120044, 1.5984395389157],
        [-124.14993954649, -156.78950910816, 3.2487119083004],
        [-124.26223326674, -157.18192701587, 4.8989842776852],
        [-124.37452746382, -157.57434873829, 6.54925664707],
        [-124.4868216609, -157.966766646, 8.1995290164547],
        [-124.59911585798, -158.35918836841, 9.8498013858395],
        [-124.71141005507, -158.75160627613, 11.500069940527],
        [-124.82370425215, -159.14402418384, 13.150342309912],
        [-124.93599844923, -159.53644590625, 14.800614679297],
        [-125.04829264631, -159.92886381397, 16.450887048681],
        [-125.1605868434, -160.32128553638, 18.101159418066],
        [-125.27288104048, -160.7137034441, 19.751431787451],
        [-125.38517523756, -161.10612135181, 21.401704156836],
        [-125.49746943464, -161.49854307422, 23.051972711523],
        [-125.60976363173, -161.89096098194, 24.702245080908],
        [-125.72205782881, -162.28337888965, 26.352517450293],
        [-125.83435202589, -162.67580061206, 28.002789819677],
        [-125.94664622298, -163.06821851978, 29.653058374365],
        [-126.05894042006, -163.46064024219, 31.303334558447],
        [-126.17123461714, -163.85305814991, 32.953603113134],
        [-126.28352881422, -164.24547605762, 34.603879297216],
        [-126.39582301131, -164.63789778003, 36.254147851904]
],
      "InstanceCreationTime": ["152324.413000", "152324.498000", "152324.420000", "152324.506000", "152324.426000", "152324.513000", "152324.432000", "152324.521000", "152324.438000", "152324.531000", "152324.444000", "152324.538000", "152324.450000", "152324.545000", "152324.456000", "152324.552000", "152324.461000", "152324.558000", "152324.467000", "152324.565000", "152324.474000", "152324.571000", "152324.480000", "152324.577000", "152324.486000", "152324.583000", "152324.492000", "152324.416000", "152324.502000", "152324.422000", "152324.509000", "152324.428000", "152324.516000", "152324.434000", "152324.523000", "152324.440000", "152324.533000", "152324.446000", "152324.540000", "152324.452000", "152324.547000", "152324.457000", "152324.554000", "152324.463000", "152324.561000", "152324.469000", "152324.567000", "152324.476000", "152324.573000", "152324.482000", "152324.579000", "152324.488000", "152324.585000", "152324.494000", "152324.418000", "152324.504000", "152324.424000", "152324.511000", "152324.430000", "152324.519000", "152324.436000", "152324.528000", "152324.442000", "152324.535000", "152324.448000", "152324.543000", "152324.454000", "152324.549000", "152324.459000", "152324.556000", "152324.465000", "152324.563000", "152324.471000", "152324.569000", "152324.478000", "152324.575000", "152324.484000", "152324.581000", "152324.490000", "152324.587000", "152324.496000"],
      "InstanceNumber": [1, 2, 3, 4, 5, 6, 7, 8, 9, 10, 11, 12, 13, 14, 15, 16, 17, 18, 19, 20, 21, 22, 23, 24, 25, 26, 27, 28, 29, 30, 31, 32, 33, 34, 35, 36, 37, 38, 39, 40, 41, 42, 43, 44, 45, 46, 47, 48, 49, 50, 51, 52, 53, 54, 55, 56, 57, 58, 59, 60, 61, 62, 63, 64, 65, 66, 67, 68, 69, 70, 71, 72, 73, 74, 75, 76, 77, 78, 79, 80, 81],
      "LargestImagePixelValue": [23864, 28989, 34109, 23292, 27304, 22253, 23316, 26676, 28407, 28693, 25056, 24362, 22798, 22517, 35504, 50033, 63437, 61810, 62585, 65535, 51166, 49244, 55100, 60552, 61273, 41483, 40621, 51128, 51273, 54812, 52918, 46838, 32863, 29434, 43536, 36554, 37936, 35333, 35273, 33298, 32744, 46740, 51274, 54074, 64924, 56216, 63303, 44959, 40245, 40785, 37436, 48387, 41860, 37801, 43920, 37028, 43884, 39978, 40447, 41668, 41812, 39383, 39039, 40446, 43200, 40541, 41364, 41876, 44326, 39721, 40731, 60510, 65535, 65535, 65535, 48457, 36676, 15334, 11753, 8911, 1018],
      "SliceLocation": [-54.453049672823, -52.75304902838, -51.053048383937, -49.353047739493, -47.653051238443, -45.953050594, -44.253049965305, -42.553049312988, -40.853048668544, -39.153048472258, -37.453047827815, -35.753050886482, -34.053050242038, -32.353050037878, -30.653049401309, -28.953048756866, -27.253048112422, -25.553047471916, -23.853049119311, -22.153048474868, -20.453049683948, -18.753049041473, -17.053048839281, -15.35305004787, -13.65304940518, -11.953048762428, -10.253049970524, -8.5530497683322, -6.8530491258575, -5.1530494071918, -3.4530487666857, -1.7530494883027, -0.0530493106854, 1.6469508748064, 3.3469505855977, 5.0469505583139, 6.7469510065678, 8.4469506899785, 10.14695043125, 11.846951045213, 13.546950323596, 15.246950945433, 16.946951149594, 18.646950427977, 20.346950586925, 22.046950791086, 23.746950934286, 25.446950212669, 27.146950416829, 28.846951501555, 30.546949854161, 32.246950938887, 33.946951143047, 35.646951347208, 37.346950580379, 39.046950784539, 40.746950972951, 42.446952057677, 44.146952261838, 45.846949643453, 47.546949863363, 49.246950036026, 50.946951120752, 52.646951324912, 54.346952409638, 56.046948910689, 57.746949114849, 59.446950199575, 61.146950403736, 62.846951488462, 64.546951692622, 66.246951896783, 67.946949278399, 69.646949482559, 71.34694968672, 73.046950771446, 74.746947272496, 76.446952060333, 78.146948561383, 79.846952468654, 81.546949850269],
