{
  "AcquisitionMatrixPE": 82,
  "AcquisitionNumber": 1,
  "AcquisitionTime": "10:24:56.392500",
  "BandwidthPerPixelPhaseEncode": 24.888,
  "BaseResolution": 82,
  "BodyPartExamined": "BRAIN",
  "ConsistencyInfo": "N4_VE11C_LATEST_20160120",
  "ConversionSoftware": "dcm2niix",
  "ConversionSoftwareVersion": "v1.0.20201102",
  "DerivedVendorReportedEchoSpacing": 0.00049,
  "DeviceSerialNumber": "66112",
  "DwellTime": 2e-06,
  "EchoTime": 0.0272,
  "EchoTrainLength": 82,
  "EffectiveEchoSpacing": 0.00049,
  "FlipAngle": 44,
  "ImageComments": "Unaliased MB8/PE3",
  "ImageOrientationPatientDICOM": [0.997332, 0.0280842, 0.0673761, -0.0351761, 0.993691, 0.106496],
  "ImageType": [
    "ORIGINAL",
    "PRIMARY",
    "M",
    "MB",
    "ND",
    "NORM",
    "MOSAIC"
],
  "ImagingFrequency": 123.252,
  "InPlanePhaseEncodingDirectionDICOM": "COL",
  "InstitutionAddress": "Maynard 3,Hanover,NH,US,03755",
  "InstitutionName": "Dartmouth College - PBS",
  "InstitutionalDepartmentName": "Department",
  "MRAcquisitionType": "2D",
  "MagneticFieldStrength": 3,
  "Manufacturer": "Siemens",
  "ManufacturersModelName": "Prisma",
  "Modality": "MR",
  "MultibandAccelerationFactor": 8,
  "PartialFourier": 1,
  "PatientPosition": "HFS",
  "PercentPhaseFOV": 100,
  "PercentSampling": 100,
  "PhaseEncodingDirection": "j-",
  "PhaseEncodingSteps": 82,
  "PhaseResolution": 1,
  "PixelBandwidth": 3050,
  "ProcedureStepDescription": "Wager_Wager^1076_spacetop",
  "ProtocolName": "func_run-06_task-social_acq-ap-mb8",
  "PulseSequenceDetails": "%CustomerSeq%\\cmrr_mbep2d_bold",
  "ReceiveCoilActiveElements": "HEA;HEP",
  "ReceiveCoilName": "Head_32",
  "ReconMatrixPE": 82,
  "RepetitionTime": 0.46,
  "SAR": 0.100624,
  "ScanOptions": "FS",
  "ScanningSequence": "EP",
  "SequenceName": "epfid2d1_82",
  "SequenceVariant": "SK\\SS",
  "SeriesDescription": "func_run-06_task-social_acq-ap-mb8",
  "SeriesNumber": 22,
  "ShimSetting": [4175, -7734, -7263, 602, 9, -100, 17, 31],
  "SliceThickness": 2.7,
  "SliceTiming": [0, 0.2525, 0.0625, 0.315, 0.125, 0.3775, 0.1875, 0, 0.2525, 0.0625, 0.315, 0.125, 0.3775, 0.1875, 0, 0.2525, 0.0625, 0.315, 0.125, 0.3775, 0.1875, 0, 0.2525, 0.0625, 0.315, 0.125, 0.3775, 0.1875, 0, 0.2525, 0.0625, 0.315, 0.125, 0.3775, 0.1875, 0, 0.2525, 0.0625, 0.315, 0.125, 0.3775, 0.1875, 0, 0.2525, 0.0625, 0.315, 0.125, 0.3775, 0.1875, 0, 0.2525, 0.0625, 0.315, 0.125, 0.3775, 0.1875],
  "SoftwareVersions": "syngo MR E11",
  "SpacingBetweenSlices": 2.7,
  "StationName": "AWP66112",
  "TaskName": "social",
  "TotalReadoutTime": 0.03969,
  "TxRefAmp": 268.764,
  "WipMemBlock": "e3ff0f75-7995-4718-8006-594f41527fcf||Sequence: R016 ve11c/master r/e634e98; Dec 19 2017 11:00:25 by eja",
  "dcmmeta_affine": [
    [-2.675769567489624, -0.09437492489814758, 0.1726924031972885, 111.96189880371094],
    [-0.07534785568714142, 2.6659996509552, 0.293170303106308, -89.41337585449219],
    [0.18076510727405548, -0.2857200503349304, 2.6784751415252686, -46.80150604248047],
    [0.0, 0.0, 0.0, 1.0]
],
  "dcmmeta_reorient_transform": [
    [0.0, -1.0, 0.0, 81.0],
    [1.0, 0.0, 0.0, 0.0],
    [0.0, 0.0, 1.0, 0.0],
    [0.0, 0.0, 0.0, 1.0]
],
  "dcmmeta_shape": [82, 82, 56, 872],
  "dcmmeta_slice_dim": 2,
  "dcmmeta_version": 0.6,
  "global": {
    "const": {
      "AccessionNumber": "A003733",
      "AcquisitionMatrix": [82, 0, 0, 82],
      "AngioFlag": "N",
      "BitsAllocated": 16,
      "BitsStored": 16,
      "BodyPartExamined": "BRAIN",
      "Columns": 656,
      "EchoNumbers": 1,
      "EchoTime": 27.2,
      "EchoTrainLength": 82,
      "FlipAngle": 44.0,
      "HighBit": 15,
      "ImageOrientationPatient": [0.99733231209868, 0.02808419890765, 0.06737608637795, -0.035176108185, 0.99369075509401, 0.10649565556235],
      "ImagePositionPatient": [-845.17782476083, -913.29932818052, -203.82607576442],
      "ImageType": [
        "ORIGINAL",
        "PRIMARY",
        "M",
        "MB",
        "ND",
        "NORM",
        "MOSAIC"
],
      "ImagedNucleus": "1H",
      "ImagingFrequency": 123.252153,
      "InPlanePhaseEncodingDirection": "COL",
      "MRAcquisitionType": "2D",
      "MagneticFieldStrength": 3.0,
      "Manufacturer": "SIEMENS",
      "ManufacturerModelName": "Prisma",
      "Modality": "MR",
      "NumberOfAverages": 1.0,
      "NumberOfPhaseEncodingSteps": 82,
      "PercentPhaseFieldOfView": 100.0,
      "PercentSampling": 100.0,
      "PerformedProcedureStepStartTime": "090819.556000",
      "PhotometricInterpretation": "MONOCHROME2",
      "PixelBandwidth": 3050.0,
      "PixelRepresentation": 0,
      "PixelSpacing": [2.6829268932343, 2.6829268932343],
      "ProtocolName": "func_run-06_task-social_acq-ap-mb8",
      "RepetitionTime": 460.0,
      "Rows": 656,
      "SAR": 0.10062436891553,
      "SamplesPerPixel": 1,
      "ScanOptions": "FS",
      "ScanningSequence": "EP",
      "SequenceName": "epfid2d1_82",
      "SequenceVariant": [
        "SK",
        "SS"
],
      "SeriesDescription": "func_run-06_task-social_acq-ap-mb8",
      "SeriesNumber": 22,
      "SeriesTime": "102519.989000",
      "SliceLocation": -48.975941766053,
      "SliceThickness": 2.7000000476837,
      "SmallestImagePixelValue": 0,
      "SoftwareVersions": "syngo MR E11",
      "SpacingBetweenSlices": 2.7000000825663,
      "SpecificCharacterSet": "ISO_IR 100",
      "StudyID": "2",
      "StudyTime": "090819.488000",
      "TransmitCoilName": "Body",
      "VariableFlipAngleFlag": "N",
      "WindowCenterWidthExplanation": "Algo1",
      "dBdt": 0.0},
    "slices": {}
  },
  "time": {
    "samples": {
      "AcquisitionNumber": [1, 2, 3, 4, 5, 6, 7, 8, 9, 10, 11, 12, 13, 14, 15, 16, 17, 18, 19, 20, 21, 22, 23, 24, 25, 26, 27, 28, 29, 30, 31, 32, 33, 34, 35, 36, 37, 38, 39, 40, 41, 42, 43, 44, 45, 46, 47, 48, 49, 50, 51, 52, 53, 54, 55, 56, 57, 58, 59, 60, 61, 62, 63, 64, 65, 66, 67, 68, 69, 70, 71, 72, 73, 74, 75, 76, 77, 78, 79, 80, 81, 82, 83, 84, 85, 86, 87, 88, 89, 90, 91, 92, 93, 94, 95, 96, 97, 98, 99, 100, 101, 102, 103, 104, 105, 106, 107, 108, 109, 110, 111, 112, 113, 114, 115, 116, 117, 118, 119, 120, 121, 122, 123, 124, 125, 126, 127, 128, 129, 130, 131, 132, 133, 134, 135, 136, 137, 138, 139, 140, 141, 142, 143, 144, 145, 146, 147, 148, 149, 150, 151, 152, 153, 154, 155, 156, 157, 158, 159, 160, 161, 162, 163, 164, 165, 166, 167, 168, 169, 170, 171, 172, 173, 174, 175, 176, 177, 178, 179, 180, 181, 182, 183, 184, 185, 186, 187, 188, 189, 190, 191, 192, 193, 194, 195, 196, 197, 198, 199, 200, 201, 202, 203, 204, 205, 206, 207, 208, 209, 210, 211, 212, 213, 214, 215, 216, 217, 218, 219, 220, 221, 222, 223, 224, 225, 226, 227, 228, 229, 230, 231, 232, 233, 234, 235, 236, 237, 238, 239, 240, 241, 242, 243, 244, 245, 246, 247, 248, 249, 250, 251, 252, 253, 254, 255, 256, 257, 258, 259, 260, 261, 262, 263, 264, 265, 266, 267, 268, 269, 270, 271, 272, 273, 274, 275, 276, 277, 278, 279, 280, 281, 282, 283, 284, 285, 286, 287, 288, 289, 290, 291, 292, 293, 294, 295, 296, 297, 298, 299, 300, 301, 302, 303, 304, 305, 306, 307, 308, 309, 310, 311, 312, 313, 314, 315, 316, 317, 318, 319, 320, 321, 322, 323, 324, 325, 326, 327, 328, 329, 330, 331, 332, 333, 334, 335, 336, 337, 338, 339, 340, 341, 342, 343, 344, 345, 346, 347, 348, 349, 350, 351, 352, 353, 354, 355, 356, 357, 358, 359, 360, 361, 362, 363, 364, 365, 366, 367, 368, 369, 370, 371, 372, 373, 374, 375, 376, 377, 378, 379, 380, 381, 382, 383, 384, 385, 386, 387, 388, 389, 390, 391, 392, 393, 394, 395, 396, 397, 398, 399, 400, 401, 402, 403, 404, 405, 406, 407, 408, 409, 410, 411, 412, 413, 414, 415, 416, 417, 418, 419, 420, 421, 422, 423, 424, 425, 426, 427, 428, 429, 430, 431, 432, 433, 434, 435, 436, 437, 438, 439, 440, 441, 442, 443, 444, 445, 446, 447, 448, 449, 450, 451, 452, 453, 454, 455, 456, 457, 458, 459, 460, 461, 462, 463, 464, 465, 466, 467, 468, 469, 470, 471, 472, 473, 474, 475, 476, 477, 478, 479, 480, 481, 482, 483, 484, 485, 486, 487, 488, 489, 490, 491, 492, 493, 494, 495, 496, 497, 498, 499, 500, 501, 502, 503, 504, 505, 506, 507, 508, 509, 510, 511, 512, 513, 514, 515, 516, 517, 518, 519, 520, 521, 522, 523, 524, 525, 526, 527, 528, 529, 530, 531, 532, 533, 534, 535, 536, 537, 538, 539, 540, 541, 542, 543, 544, 545, 546, 547, 548, 549, 550, 551, 552, 553, 554, 555, 556, 557, 558, 559, 560, 561, 562, 563, 564, 565, 566, 567, 568, 569, 570, 571, 572, 573, 574, 575, 576, 577, 578, 579, 580, 581, 582, 583, 584, 585, 586, 587, 588, 589, 590, 591, 592, 593, 594, 595, 596, 597, 598, 599, 600, 601, 602, 603, 604, 605, 606, 607, 608, 609, 610, 611, 612, 613, 614, 615, 616, 617, 618, 619, 620, 621, 622, 623, 624, 625, 626, 627, 628, 629, 630, 631, 632, 633, 634, 635, 636, 637, 638, 639, 640, 641, 642, 643, 644, 645, 646, 647, 648, 649, 650, 651, 652, 653, 654, 655, 656, 657, 658, 659, 660, 661, 662, 663, 664, 665, 666, 667, 668, 669, 670, 671, 672, 673, 674, 675, 676, 677, 678, 679, 680, 681, 682, 683, 684, 685, 686, 687, 688, 689, 690, 691, 692, 693, 694, 695, 696, 697, 698, 699, 700, 701, 702, 703, 704, 705, 706, 707, 708, 709, 710, 711, 712, 713, 714, 715, 716, 717, 718, 719, 720, 721, 722, 723, 724, 725, 726, 727, 728, 729, 730, 731, 732, 733, 734, 735, 736, 737, 738, 739, 740, 741, 742, 743, 744, 745, 746, 747, 748, 749, 750, 751, 752, 753, 754, 755, 756, 757, 758, 759, 760, 761, 762, 763, 764, 765, 766, 767, 768, 769, 770, 771, 772, 773, 774, 775, 776, 777, 778, 779, 780, 781, 782, 783, 784, 785, 786, 787, 788, 789, 790, 791, 792, 793, 794, 795, 796, 797, 798, 799, 800, 801, 802, 803, 804, 805, 806, 807, 808, 809, 810, 811, 812, 813, 814, 815, 816, 817, 818, 819, 820, 821, 822, 823, 824, 825, 826, 827, 828, 829, 830, 831, 832, 833, 834, 835, 836, 837, 838, 839, 840, 841, 842, 843, 844, 845, 846, 847, 848, 849, 850, 851, 852, 853, 854, 855, 856, 857, 858, 859, 860, 861, 862, 863, 864, 865, 866, 867, 868, 869, 870, 871, 872],
      "AcquisitionTime": ["102456.392500", "102456.852500", "102457.312500", "102457.772500", "102458.232500", "102458.692500", "102459.152500", "102459.612500", "102500.072500", "102500.532500", "102500.992500", "102501.452500", "102501.912500", "102502.372500", "102502.832500", "102503.292500", "102503.752500", "102504.212500", "102504.672500", "102505.132500", "102505.592500", "102506.052500", "102506.512500", "102506.972500", "102507.432500", "102507.892500", "102508.352500", "102508.812500", "102509.272500", "102509.732500", "102510.192500", "102510.652500", "102511.112500", "102511.572500", "102512.032500", "102512.492500", "102512.952500", "102513.412500", "102513.872500", "102514.332500", "102514.792500", "102515.252500", "102515.712500", "102516.172500", "102516.632500", "102517.092500", "102517.552500", "102518.012500", "102518.472500", "102518.932500", "102519.392500", "102519.852500", "102520.312500", "102520.772500", "102521.232500", "102521.692500", "102522.152500", "102522.612500", "102523.072500", "102523.532500", "102523.992500", "102524.452500", "102524.912500", "102525.372500", "102525.832500", "102526.292500", "102526.752500", "102527.212500", "102527.672500", "102528.132500", "102528.592500", "102529.052500", "102529.512500", "102529.972500", "102530.432500", "102530.892500", "102531.352500", "102531.812500", "102532.272500", "102532.732500", "102533.192500", "102533.652500", "102534.112500", "102534.572500", "102535.032500", "102535.492500", "102535.952500", "102536.412500", "102536.872500", "102537.332500", "102537.792500", "102538.252500", "102538.712500", "102539.172500", "102539.632500", "102540.092500", "102540.552500", "102541.012500", "102541.472500", "102541.932500", "102542.392500", "102542.852500", "102543.312500", "102543.772500", "102544.232500", "102544.692500", "102545.152500", "102545.612500", "102546.072500", "102546.532500", "102546.992500", "102547.452500", "102547.912500", "102548.372500", "102548.832500", "102549.292500", "102549.752500", "102550.212500", "102550.672500", "102551.132500", "102551.592500", "102552.052500", "102552.512500", "102552.972500", "102553.432500", "102553.892500", "102554.352500", "102554.812500", "102555.272500", "102555.732500", "102556.192500", "102556.652500", "102557.112500", "102557.572500", "102558.032500", "102558.492500", "102558.952500", "102559.412500", "102559.872500", "102600.332500", "102600.792500", "102601.252500", "102601.712500", "102602.172500", "102602.632500", "102603.092500", "102603.552500", "102604.012500", "102604.472500", "102604.932500", "102605.392500", "102605.852500", "102606.312500", "102606.772500", "102607.232500", "102607.692500", "102608.152500", "102608.612500", "102609.072500", "102609.532500", "102609.992500", "102610.452500", "102610.912500", "102611.372500", "102611.832500", "102612.292500", "102612.752500", "102613.212500", "102613.672500", "102614.132500", "102614.592500", "102615.052500", "102615.512500", "102615.972500", "102616.432500", "102616.892500", "102617.352500", "102617.812500", "102618.272500", "102618.732500", "102619.192500", "102619.652500", "102620.112500", "102620.572500", "102621.032500", "102621.492500", "102621.952500", "102622.412500", "102622.872500", "102623.332500", "102623.792500", "102624.252500", "102624.712500", "102625.172500", "102625.632500", "102626.092500", "102626.552500", "102627.012500", "102627.472500", "102627.932500", "102628.392500", "102628.852500", "102629.312500", "102629.772500", "102630.232500", "102630.692500", "102631.152500", "102631.612500", "102632.072500", "102632.532500", "102632.992500", "102633.452500", "102633.912500", "102634.372500", "102634.832500", "102635.292500", "102635.752500", "102636.212500", "102636.672500", "102637.132500", "102637.592500", "102638.052500", "102638.512500", "102638.972500", "102639.432500", "102639.892500", "102640.352500", "102640.812500", "102641.272500", "102641.732500", "102642.192500", "102642.652500", "102643.112500", "102643.572500", "102644.032500", "102644.492500", "102644.952500", "102645.412500", "102645.872500", "102646.332500", "102646.792500", "102647.252500", "102647.712500", "102648.172500", "102648.632500", "102649.092500", "102649.552500", "102650.012500", "102650.472500", "102650.932500", "102651.392500", "102651.852500", "102652.312500", "102652.772500", "102653.232500", "102653.692500", "102654.152500", "102654.612500", "102655.072500", "102655.532500", "102655.992500", "102656.452500", "102656.912500", "102657.372500", "102657.832500", "102658.292500", "102658.752500", "102659.212500", "102659.672500", "102700.132500", "102700.592500", "102701.052500", "102701.512500", "102701.972500", "102702.432500", "102702.892500", "102703.352500", "102703.812500", "102704.272500", "102704.732500", "102705.192500", "102705.652500", "102706.112500", "102706.572500", "102707.032500", "102707.492500", "102707.952500", "102708.412500", "102708.872500", "102709.332500", "102709.792500", "102710.252500", "102710.712500", "102711.172500", "102711.632500", "102712.092500", "102712.552500", "102713.012500", "102713.472500", "102713.932500", "102714.392500", "102714.852500", "102715.312500", "102715.772500", "102716.232500", "102716.692500", "102717.152500", "102717.612500", "102718.072500", "102718.532500", "102718.992500", "102719.452500", "102719.912500", "102720.372500", "102720.832500", "102721.292500", "102721.752500", "102722.212500", "102722.672500", "102723.132500", "102723.592500", "102724.052500", "102724.512500", "102724.972500", "102725.432500", "102725.892500", "102726.352500", "102726.812500", "102727.272500", "102727.732500", "102728.192500", "102728.652500", "102729.112500", "102729.572500", "102730.032500", "102730.492500", "102730.952500", "102731.412500", "102731.872500", "102732.332500", "102732.792500", "102733.252500", "102733.712500", "102734.172500", "102734.632500", "102735.092500", "102735.552500", "102736.012500", "102736.472500", "102736.932500", "102737.392500", "102737.852500", "102738.312500", "102738.772500", "102739.232500", "102739.692500", "102740.152500", "102740.612500", "102741.072500", "102741.532500", "102741.992500", "102742.452500", "102742.912500", "102743.372500", "102743.832500", "102744.292500", "102744.752500", "102745.212500", "102745.672500", "102746.132500", "102746.592500", "102747.052500", "102747.512500", "102747.972500", "102748.432500", "102748.892500", "102749.352500", "102749.812500", "102750.272500", "102750.732500", "102751.192500", "102751.652500", "102752.112500", "102752.572500", "102753.032500", "102753.492500", "102753.952500", "102754.412500", "102754.872500", "102755.332500", "102755.792500", "102756.252500", "102756.712500", "102757.172500", "102757.632500", "102758.092500", "102758.552500", "102759.012500", "102759.472500", "102759.932500", "102800.392500", "102800.852500", "102801.312500", "102801.772500", "102802.232500", "102802.692500", "102803.152500", "102803.612500", "102804.072500", "102804.532500", "102804.992500", "102805.452500", "102805.912500", "102806.372500", "102806.832500", "102807.292500", "102807.752500", "102808.212500", "102808.672500", "102809.132500", "102809.592500", "102810.052500", "102810.512500", "102810.972500", "102811.432500", "102811.892500", "102812.352500", "102812.812500", "102813.272500", "102813.732500", "102814.192500", "102814.652500", "102815.112500", "102815.572500", "102816.032500", "102816.492500", "102816.952500", "102817.412500", "102817.872500", "102818.332500", "102818.792500", "102819.252500", "102819.712500", "102820.172500", "102820.632500", "102821.092500", "102821.552500", "102822.012500", "102822.472500", "102822.932500", "102823.392500", "102823.852500", "102824.312500", "102824.772500", "102825.232500", "102825.692500", "102826.152500", "102826.612500", "102827.072500", "102827.532500", "102827.992500", "102828.452500", "102828.912500", "102829.372500", "102829.832500", "102830.292500", "102830.752500", "102831.212500", "102831.672500", "102832.132500", "102832.592500", "102833.052500", "102833.512500", "102833.972500", "102834.432500", "102834.892500", "102835.352500", "102835.812500", "102836.272500", "102836.732500", "102837.192500", "102837.652500", "102838.112500", "102838.572500", "102839.032500", "102839.492500", "102839.952500", "102840.412500", "102840.872500", "102841.332500", "102841.792500", "102842.252500", "102842.712500", "102843.172500", "102843.632500", "102844.092500", "102844.552500", "102845.012500", "102845.472500", "102845.932500", "102846.392500", "102846.852500", "102847.312500", "102847.772500", "102848.232500", "102848.692500", "102849.152500", "102849.612500", "102850.072500", "102850.532500", "102850.992500", "102851.452500", "102851.912500", "102852.372500", "102852.832500", "102853.292500", "102853.752500", "102854.212500", "102854.672500", "102855.132500", "102855.592500", "102856.052500", "102856.512500", "102856.972500", "102857.432500", "102857.892500", "102858.352500", "102858.812500", "102859.272500", "102859.732500", "102900.192500", "102900.652500", "102901.112500", "102901.572500", "102902.032500", "102902.492500", "102902.952500", "102903.412500", "102903.872500", "102904.332500", "102904.792500", "102905.252500", "102905.712500", "102906.172500", "102906.632500", "102907.092500", "102907.552500", "102908.012500", "102908.472500", "102908.932500", "102909.392500", "102909.852500", "102910.312500", "102910.772500", "102911.232500", "102911.692500", "102912.152500", "102912.612500", "102913.072500", "102913.532500", "102913.992500", "102914.452500", "102914.912500", "102915.372500", "102915.832500", "102916.292500", "102916.752500", "102917.212500", "102917.672500", "102918.132500", "102918.592500", "102919.052500", "102919.512500", "102919.972500", "102920.432500", "102920.892500", "102921.352500", "102921.812500", "102922.272500", "102922.732500", "102923.192500", "102923.652500", "102924.112500", "102924.572500", "102925.032500", "102925.492500", "102925.952500", "102926.412500", "102926.872500", "102927.332500", "102927.792500", "102928.252500", "102928.712500", "102929.172500", "102929.632500", "102930.092500", "102930.552500", "102931.012500", "102931.472500", "102931.932500", "102932.392500", "102932.852500", "102933.312500", "102933.772500", "102934.232500", "102934.692500", "102935.152500", "102935.612500", "102936.072500", "102936.532500", "102936.992500", "102937.452500", "102937.912500", "102938.372500", "102938.832500", "102939.292500", "102939.752500", "102940.212500", "102940.672500", "102941.132500", "102941.592500", "102942.052500", "102942.512500", "102942.972500", "102943.432500", "102943.892500", "102944.352500", "102944.812500", "102945.272500", "102945.732500", "102946.192500", "102946.652500", "102947.112500", "102947.572500", "102948.032500", "102948.492500", "102948.952500", "102949.412500", "102949.872500", "102950.332500", "102950.792500", "102951.252500", "102951.712500", "102952.172500", "102952.632500", "102953.092500", "102953.552500", "102954.012500", "102954.472500", "102954.932500", "102955.392500", "102955.852500", "102956.312500", "102956.772500", "102957.232500", "102957.692500", "102958.152500", "102958.612500", "102959.072500", "102959.532500", "102959.992500", "103000.452500", "103000.912500", "103001.372500", "103001.832500", "103002.292500", "103002.752500", "103003.212500", "103003.672500", "103004.132500", "103004.592500", "103005.052500", "103005.512500", "103005.972500", "103006.432500", "103006.892500", "103007.352500", "103007.812500", "103008.272500", "103008.732500", "103009.192500", "103009.652500", "103010.112500", "103010.572500", "103011.032500", "103011.492500", "103011.952500", "103012.412500", "103012.872500", "103013.332500", "103013.792500", "103014.252500", "103014.712500", "103015.172500", "103015.632500", "103016.092500", "103016.552500", "103017.012500", "103017.472500", "103017.932500", "103018.392500", "103018.852500", "103019.312500", "103019.772500", "103020.232500", "103020.692500", "103021.152500", "103021.612500", "103022.072500", "103022.532500", "103022.992500", "103023.452500", "103023.912500", "103024.372500", "103024.832500", "103025.292500", "103025.752500", "103026.212500", "103026.672500", "103027.132500", "103027.592500", "103028.052500", "103028.512500", "103028.972500", "103029.432500", "103029.892500", "103030.352500", "103030.812500", "103031.272500", "103031.732500", "103032.192500", "103032.652500", "103033.112500", "103033.572500", "103034.032500", "103034.492500", "103034.952500", "103035.412500", "103035.872500", "103036.332500", "103036.792500", "103037.252500", "103037.712500", "103038.172500", "103038.632500", "103039.092500", "103039.552500", "103040.012500", "103040.472500", "103040.932500", "103041.392500", "103041.852500", "103042.312500", "103042.772500", "103043.232500", "103043.692500", "103044.152500", "103044.612500", "103045.072500", "103045.532500", "103045.992500", "103046.452500", "103046.912500", "103047.372500", "103047.832500", "103048.292500", "103048.752500", "103049.212500", "103049.672500", "103050.132500", "103050.592500", "103051.052500", "103051.512500", "103051.972500", "103052.432500", "103052.892500", "103053.352500", "103053.812500", "103054.272500", "103054.732500", "103055.192500", "103055.652500", "103056.112500", "103056.572500", "103057.032500", "103057.492500", "103057.952500", "103058.412500", "103058.872500", "103059.332500", "103059.792500", "103100.252500", "103100.712500", "103101.172500", "103101.632500", "103102.092500", "103102.552500", "103103.012500", "103103.472500", "103103.932500", "103104.392500", "103104.852500", "103105.312500", "103105.772500", "103106.232500", "103106.692500", "103107.152500", "103107.612500", "103108.072500", "103108.532500", "103108.992500", "103109.452500", "103109.912500", "103110.372500", "103110.832500", "103111.292500", "103111.752500", "103112.212500", "103112.672500", "103113.132500", "103113.592500", "103114.052500", "103114.512500", "103114.972500", "103115.432500", "103115.892500", "103116.352500", "103116.812500", "103117.272500", "103117.732500", "103118.192500", "103118.652500", "103119.112500", "103119.572500", "103120.032500", "103120.492500", "103120.952500", "103121.412500", "103121.872500", "103122.332500", "103122.792500", "103123.252500", "103123.712500", "103124.172500", "103124.632500", "103125.092500", "103125.552500", "103126.012500", "103126.472500", "103126.932500", "103127.392500", "103127.852500", "103128.312500", "103128.772500", "103129.232500", "103129.692500", "103130.152500", "103130.612500", "103131.072500", "103131.532500", "103131.992500", "103132.452500", "103132.912500", "103133.372500", "103133.832500", "103134.292500", "103134.752500", "103135.212500", "103135.672500", "103136.132500", "103136.592500", "103137.052500"],
