{
  "AcquisitionMatrixPE": 82,
  "AcquisitionNumber": 1,
  "AcquisitionTime": "10:10:3.912500",
  "BandwidthPerPixelPhaseEncode": 24.888,
  "BaseResolution": 82,
  "BodyPartExamined": "BRAIN",
  "ConsistencyInfo": "N4_VE11C_LATEST_20160120",
  "ConversionSoftware": "dcm2niix",
  "ConversionSoftwareVersion": "v1.0.20201102",
  "DerivedVendorReportedEchoSpacing": 0.00049,
  "DeviceSerialNumber": "66112",
  "DwellTime": 2e-06,
  "EchoTime": 0.0272,
  "EchoTrainLength": 82,
  "EffectiveEchoSpacing": 0.00049,
  "FlipAngle": 44,
  "ImageComments": "Unaliased MB8/PE3",
  "ImageOrientationPatientDICOM": [0.997332, 0.0280842, 0.0673761, -0.0351761, 0.993691, 0.106496],
  "ImageType": [
    "ORIGINAL",
    "PRIMARY",
    "M",
    "MB",
    "ND",
    "NORM",
    "MOSAIC"
],
  "ImagingFrequency": 123.252,
  "InPlanePhaseEncodingDirectionDICOM": "COL",
  "InstitutionAddress": "Maynard 3,Hanover,NH,US,03755",
  "InstitutionName": "Dartmouth College - PBS",
  "InstitutionalDepartmentName": "Department",
  "MRAcquisitionType": "2D",
  "MagneticFieldStrength": 3,
  "Manufacturer": "Siemens",
  "ManufacturersModelName": "Prisma",
  "Modality": "MR",
  "MultibandAccelerationFactor": 8,
  "PartialFourier": 1,
  "PatientPosition": "HFS",
  "PercentPhaseFOV": 100,
  "PercentSampling": 100,
  "PhaseEncodingDirection": "j-",
  "PhaseEncodingSteps": 82,
  "PhaseResolution": 1,
  "PixelBandwidth": 3050,
  "ProcedureStepDescription": "Wager_Wager^1076_spacetop",
  "ProtocolName": "func_run-04_task-social_acq-ap-mb8",
  "PulseSequenceDetails": "%CustomerSeq%\\cmrr_mbep2d_bold",
  "ReceiveCoilActiveElements": "HEA;HEP",
  "ReceiveCoilName": "Head_32",
  "ReconMatrixPE": 82,
  "RepetitionTime": 0.46,
  "SAR": 0.100624,
  "ScanOptions": "FS",
  "ScanningSequence": "EP",
  "SequenceName": "epfid2d1_82",
  "SequenceVariant": "SK\\SS",
  "SeriesDescription": "func_run-04_task-social_acq-ap-mb8",
  "SeriesNumber": 18,
  "ShimSetting": [4175, -7734, -7263, 602, 9, -100, 17, 31],
  "SliceThickness": 2.7,
  "SliceTiming": [0, 0.2525, 0.0625, 0.315, 0.125, 0.3775, 0.1875, 0, 0.2525, 0.0625, 0.315, 0.125, 0.3775, 0.1875, 0, 0.2525, 0.0625, 0.315, 0.125, 0.3775, 0.1875, 0, 0.2525, 0.0625, 0.315, 0.125, 0.3775, 0.1875, 0, 0.2525, 0.0625, 0.315, 0.125, 0.3775, 0.1875, 0, 0.2525, 0.0625, 0.315, 0.125, 0.3775, 0.1875, 0, 0.2525, 0.0625, 0.315, 0.125, 0.3775, 0.1875, 0, 0.2525, 0.0625, 0.315, 0.125, 0.3775, 0.1875],
  "SoftwareVersions": "syngo MR E11",
  "SpacingBetweenSlices": 2.7,
  "StationName": "AWP66112",
  "TaskName": "social",
  "TotalReadoutTime": 0.03969,
  "TxRefAmp": 268.764,
  "WipMemBlock": "3ad5c1cb-e7c2-4c14-9fd4-bebf29277928||Sequence: R016 ve11c/master r/e634e98; Dec 19 2017 11:00:25 by eja",
  "dcmmeta_affine": [
    [-2.675769567489624, -0.09437492489814758, 0.1726924031972885, 111.96189880371094],
    [-0.07534785568714142, 2.6659996509552, 0.293170303106308, -89.41337585449219],
    [0.18076510727405548, -0.2857200503349304, 2.6784751415252686, -46.80150604248047],
    [0.0, 0.0, 0.0, 1.0]
],
  "dcmmeta_reorient_transform": [
    [0.0, -1.0, 0.0, 81.0],
    [1.0, 0.0, 0.0, 0.0],
    [0.0, 0.0, 1.0, 0.0],
    [0.0, 0.0, 0.0, 1.0]
],
  "dcmmeta_shape": [82, 82, 56, 872],
  "dcmmeta_slice_dim": 2,
  "dcmmeta_version": 0.6,
  "global": {
    "const": {
      "AccessionNumber": "A003733",
      "AcquisitionMatrix": [82, 0, 0, 82],
      "AngioFlag": "N",
      "BitsAllocated": 16,
      "BitsStored": 16,
      "BodyPartExamined": "BRAIN",
      "Columns": 656,
      "EchoNumbers": 1,
      "EchoTime": 27.2,
      "EchoTrainLength": 82,
      "FlipAngle": 44.0,
      "HighBit": 15,
      "ImageOrientationPatient": [0.99733231209868, 0.02808419890765, 0.06737608637795, -0.035176108185, 0.99369075509401, 0.10649565556235],
      "ImagePositionPatient": [-845.17782476083, -913.29932818052, -203.82607576442],
      "ImageType": [
        "ORIGINAL",
        "PRIMARY",
        "M",
        "MB",
        "ND",
        "NORM",
        "MOSAIC"
],
      "ImagedNucleus": "1H",
      "ImagingFrequency": 123.252153,
      "InPlanePhaseEncodingDirection": "COL",
      "MRAcquisitionType": "2D",
      "MagneticFieldStrength": 3.0,
      "Manufacturer": "SIEMENS",
      "ManufacturerModelName": "Prisma",
      "Modality": "MR",
      "NumberOfAverages": 1.0,
      "NumberOfPhaseEncodingSteps": 82,
      "PercentPhaseFieldOfView": 100.0,
      "PercentSampling": 100.0,
      "PerformedProcedureStepStartTime": "090819.556000",
      "PhotometricInterpretation": "MONOCHROME2",
      "PixelBandwidth": 3050.0,
      "PixelRepresentation": 0,
      "PixelSpacing": [2.6829268932343, 2.6829268932343],
      "ProtocolName": "func_run-04_task-social_acq-ap-mb8",
      "RepetitionTime": 460.0,
      "Rows": 656,
      "SAR": 0.10062436891553,
      "SamplesPerPixel": 1,
      "ScanOptions": "FS",
      "ScanningSequence": "EP",
      "SequenceName": "epfid2d1_82",
      "SequenceVariant": [
        "SK",
        "SS"
],
      "SeriesDescription": "func_run-04_task-social_acq-ap-mb8",
      "SeriesNumber": 18,
      "SeriesTime": "101020.058000",
      "SliceLocation": -48.975941766053,
      "SliceThickness": 2.7000000476837,
      "SmallestImagePixelValue": 0,
      "SoftwareVersions": "syngo MR E11",
      "SpacingBetweenSlices": 2.7000000825663,
      "SpecificCharacterSet": "ISO_IR 100",
      "StudyID": "2",
      "StudyTime": "090819.488000",
      "TransmitCoilName": "Body",
      "VariableFlipAngleFlag": "N",
      "WindowCenterWidthExplanation": "Algo1",
      "dBdt": 0.0},
    "slices": {}
  },
  "time": {
    "samples": {
      "AcquisitionNumber": [1, 2, 3, 4, 5, 6, 7, 8, 9, 10, 11, 12, 13, 14, 15, 16, 17, 18, 19, 20, 21, 22, 23, 24, 25, 26, 27, 28, 29, 30, 31, 32, 33, 34, 35, 36, 37, 38, 39, 40, 41, 42, 43, 44, 45, 46, 47, 48, 49, 50, 51, 52, 53, 54, 55, 56, 57, 58, 59, 60, 61, 62, 63, 64, 65, 66, 67, 68, 69, 70, 71, 72, 73, 74, 75, 76, 77, 78, 79, 80, 81, 82, 83, 84, 85, 86, 87, 88, 89, 90, 91, 92, 93, 94, 95, 96, 97, 98, 99, 100, 101, 102, 103, 104, 105, 106, 107, 108, 109, 110, 111, 112, 113, 114, 115, 116, 117, 118, 119, 120, 121, 122, 123, 124, 125, 126, 127, 128, 129, 130, 131, 132, 133, 134, 135, 136, 137, 138, 139, 140, 141, 142, 143, 144, 145, 146, 147, 148, 149, 150, 151, 152, 153, 154, 155, 156, 157, 158, 159, 160, 161, 162, 163, 164, 165, 166, 167, 168, 169, 170, 171, 172, 173, 174, 175, 176, 177, 178, 179, 180, 181, 182, 183, 184, 185, 186, 187, 188, 189, 190, 191, 192, 193, 194, 195, 196, 197, 198, 199, 200, 201, 202, 203, 204, 205, 206, 207, 208, 209, 210, 211, 212, 213, 214, 215, 216, 217, 218, 219, 220, 221, 222, 223, 224, 225, 226, 227, 228, 229, 230, 231, 232, 233, 234, 235, 236, 237, 238, 239, 240, 241, 242, 243, 244, 245, 246, 247, 248, 249, 250, 251, 252, 253, 254, 255, 256, 257, 258, 259, 260, 261, 262, 263, 264, 265, 266, 267, 268, 269, 270, 271, 272, 273, 274, 275, 276, 277, 278, 279, 280, 281, 282, 283, 284, 285, 286, 287, 288, 289, 290, 291, 292, 293, 294, 295, 296, 297, 298, 299, 300, 301, 302, 303, 304, 305, 306, 307, 308, 309, 310, 311, 312, 313, 314, 315, 316, 317, 318, 319, 320, 321, 322, 323, 324, 325, 326, 327, 328, 329, 330, 331, 332, 333, 334, 335, 336, 337, 338, 339, 340, 341, 342, 343, 344, 345, 346, 347, 348, 349, 350, 351, 352, 353, 354, 355, 356, 357, 358, 359, 360, 361, 362, 363, 364, 365, 366, 367, 368, 369, 370, 371, 372, 373, 374, 375, 376, 377, 378, 379, 380, 381, 382, 383, 384, 385, 386, 387, 388, 389, 390, 391, 392, 393, 394, 395, 396, 397, 398, 399, 400, 401, 402, 403, 404, 405, 406, 407, 408, 409, 410, 411, 412, 413, 414, 415, 416, 417, 418, 419, 420, 421, 422, 423, 424, 425, 426, 427, 428, 429, 430, 431, 432, 433, 434, 435, 436, 437, 438, 439, 440, 441, 442, 443, 444, 445, 446, 447, 448, 449, 450, 451, 452, 453, 454, 455, 456, 457, 458, 459, 460, 461, 462, 463, 464, 465, 466, 467, 468, 469, 470, 471, 472, 473, 474, 475, 476, 477, 478, 479, 480, 481, 482, 483, 484, 485, 486, 487, 488, 489, 490, 491, 492, 493, 494, 495, 496, 497, 498, 499, 500, 501, 502, 503, 504, 505, 506, 507, 508, 509, 510, 511, 512, 513, 514, 515, 516, 517, 518, 519, 520, 521, 522, 523, 524, 525, 526, 527, 528, 529, 530, 531, 532, 533, 534, 535, 536, 537, 538, 539, 540, 541, 542, 543, 544, 545, 546, 547, 548, 549, 550, 551, 552, 553, 554, 555, 556, 557, 558, 559, 560, 561, 562, 563, 564, 565, 566, 567, 568, 569, 570, 571, 572, 573, 574, 575, 576, 577, 578, 579, 580, 581, 582, 583, 584, 585, 586, 587, 588, 589, 590, 591, 592, 593, 594, 595, 596, 597, 598, 599, 600, 601, 602, 603, 604, 605, 606, 607, 608, 609, 610, 611, 612, 613, 614, 615, 616, 617, 618, 619, 620, 621, 622, 623, 624, 625, 626, 627, 628, 629, 630, 631, 632, 633, 634, 635, 636, 637, 638, 639, 640, 641, 642, 643, 644, 645, 646, 647, 648, 649, 650, 651, 652, 653, 654, 655, 656, 657, 658, 659, 660, 661, 662, 663, 664, 665, 666, 667, 668, 669, 670, 671, 672, 673, 674, 675, 676, 677, 678, 679, 680, 681, 682, 683, 684, 685, 686, 687, 688, 689, 690, 691, 692, 693, 694, 695, 696, 697, 698, 699, 700, 701, 702, 703, 704, 705, 706, 707, 708, 709, 710, 711, 712, 713, 714, 715, 716, 717, 718, 719, 720, 721, 722, 723, 724, 725, 726, 727, 728, 729, 730, 731, 732, 733, 734, 735, 736, 737, 738, 739, 740, 741, 742, 743, 744, 745, 746, 747, 748, 749, 750, 751, 752, 753, 754, 755, 756, 757, 758, 759, 760, 761, 762, 763, 764, 765, 766, 767, 768, 769, 770, 771, 772, 773, 774, 775, 776, 777, 778, 779, 780, 781, 782, 783, 784, 785, 786, 787, 788, 789, 790, 791, 792, 793, 794, 795, 796, 797, 798, 799, 800, 801, 802, 803, 804, 805, 806, 807, 808, 809, 810, 811, 812, 813, 814, 815, 816, 817, 818, 819, 820, 821, 822, 823, 824, 825, 826, 827, 828, 829, 830, 831, 832, 833, 834, 835, 836, 837, 838, 839, 840, 841, 842, 843, 844, 845, 846, 847, 848, 849, 850, 851, 852, 853, 854, 855, 856, 857, 858, 859, 860, 861, 862, 863, 864, 865, 866, 867, 868, 869, 870, 871, 872],
      "AcquisitionTime": ["101003.912500", "101004.372500", "101004.832500", "101005.292500", "101005.752500", "101006.212500", "101006.672500", "101007.132500", "101007.592500", "101008.052500", "101008.512500", "101008.972500", "101009.432500", "101009.892500", "101010.352500", "101010.812500", "101011.272500", "101011.732500", "101012.192500", "101012.652500", "101013.112500", "101013.572500", "101014.032500", "101014.492500", "101014.952500", "101015.412500", "101015.872500", "101016.332500", "101016.792500", "101017.252500", "101017.712500", "101018.172500", "101018.632500", "101019.092500", "101019.552500", "101020.012500", "101020.472500", "101020.932500", "101021.392500", "101021.852500", "101022.312500", "101022.772500", "101023.232500", "101023.692500", "101024.152500", "101024.612500", "101025.072500", "101025.532500", "101025.992500", "101026.452500", "101026.912500", "101027.372500", "101027.832500", "101028.292500", "101028.752500", "101029.212500", "101029.672500", "101030.132500", "101030.592500", "101031.052500", "101031.512500", "101031.972500", "101032.432500", "101032.892500", "101033.352500", "101033.812500", "101034.272500", "101034.732500", "101035.192500", "101035.652500", "101036.112500", "101036.572500", "101037.032500", "101037.492500", "101037.952500", "101038.412500", "101038.872500", "101039.332500", "101039.792500", "101040.252500", "101040.712500", "101041.172500", "101041.632500", "101042.092500", "101042.552500", "101043.012500", "101043.472500", "101043.932500", "101044.392500", "101044.852500", "101045.312500", "101045.772500", "101046.232500", "101046.692500", "101047.152500", "101047.612500", "101048.072500", "101048.532500", "101048.992500", "101049.452500", "101049.912500", "101050.372500", "101050.832500", "101051.292500", "101051.752500", "101052.212500", "101052.672500", "101053.132500", "101053.592500", "101054.052500", "101054.512500", "101054.972500", "101055.432500", "101055.892500", "101056.352500", "101056.812500", "101057.272500", "101057.732500", "101058.192500", "101058.652500", "101059.112500", "101059.572500", "101100.032500", "101100.492500", "101100.952500", "101101.412500", "101101.872500", "101102.332500", "101102.792500", "101103.252500", "101103.712500", "101104.172500", "101104.632500", "101105.092500", "101105.552500", "101106.012500", "101106.472500", "101106.932500", "101107.392500", "101107.852500", "101108.312500", "101108.772500", "101109.232500", "101109.692500", "101110.152500", "101110.612500", "101111.072500", "101111.532500", "101111.992500", "101112.452500", "101112.912500", "101113.372500", "101113.832500", "101114.292500", "101114.752500", "101115.212500", "101115.672500", "101116.132500", "101116.592500", "101117.052500", "101117.512500", "101117.972500", "101118.432500", "101118.892500", "101119.352500", "101119.812500", "101120.272500", "101120.732500", "101121.192500", "101121.652500", "101122.112500", "101122.572500", "101123.032500", "101123.492500", "101123.952500", "101124.412500", "101124.872500", "101125.332500", "101125.792500", "101126.252500", "101126.712500", "101127.172500", "101127.632500", "101128.092500", "101128.552500", "101129.012500", "101129.472500", "101129.932500", "101130.392500", "101130.852500", "101131.312500", "101131.772500", "101132.232500", "101132.692500", "101133.152500", "101133.612500", "101134.072500", "101134.532500", "101134.992500", "101135.452500", "101135.912500", "101136.372500", "101136.832500", "101137.292500", "101137.752500", "101138.212500", "101138.672500", "101139.132500", "101139.592500", "101140.052500", "101140.512500", "101140.972500", "101141.432500", "101141.892500", "101142.352500", "101142.812500", "101143.272500", "101143.732500", "101144.192500", "101144.652500", "101145.112500", "101145.572500", "101146.032500", "101146.492500", "101146.952500", "101147.412500", "101147.872500", "101148.332500", "101148.792500", "101149.252500", "101149.712500", "101150.172500", "101150.632500", "101151.092500", "101151.552500", "101152.012500", "101152.472500", "101152.932500", "101153.392500", "101153.852500", "101154.312500", "101154.772500", "101155.232500", "101155.692500", "101156.152500", "101156.612500", "101157.072500", "101157.532500", "101157.992500", "101158.452500", "101158.912500", "101159.372500", "101159.832500", "101200.292500", "101200.752500", "101201.212500", "101201.672500", "101202.132500", "101202.592500", "101203.052500", "101203.512500", "101203.972500", "101204.432500", "101204.892500", "101205.352500", "101205.812500", "101206.272500", "101206.732500", "101207.192500", "101207.652500", "101208.112500", "101208.572500", "101209.032500", "101209.492500", "101209.952500", "101210.412500", "101210.872500", "101211.332500", "101211.792500", "101212.252500", "101212.712500", "101213.172500", "101213.632500", "101214.092500", "101214.552500", "101215.012500", "101215.472500", "101215.932500", "101216.392500", "101216.852500", "101217.312500", "101217.772500", "101218.232500", "101218.692500", "101219.152500", "101219.612500", "101220.072500", "101220.532500", "101220.992500", "101221.452500", "101221.912500", "101222.372500", "101222.832500", "101223.292500", "101223.752500", "101224.212500", "101224.672500", "101225.132500", "101225.592500", "101226.052500", "101226.512500", "101226.972500", "101227.432500", "101227.892500", "101228.352500", "101228.812500", "101229.272500", "101229.732500", "101230.192500", "101230.652500", "101231.112500", "101231.572500", "101232.032500", "101232.492500", "101232.952500", "101233.412500", "101233.872500", "101234.332500", "101234.792500", "101235.252500", "101235.712500", "101236.172500", "101236.632500", "101237.092500", "101237.552500", "101238.012500", "101238.472500", "101238.932500", "101239.392500", "101239.852500", "101240.312500", "101240.772500", "101241.232500", "101241.692500", "101242.152500", "101242.612500", "101243.072500", "101243.532500", "101243.992500", "101244.452500", "101244.912500", "101245.372500", "101245.832500", "101246.292500", "101246.752500", "101247.212500", "101247.672500", "101248.132500", "101248.592500", "101249.052500", "101249.512500", "101249.972500", "101250.432500", "101250.892500", "101251.352500", "101251.812500", "101252.272500", "101252.732500", "101253.192500", "101253.652500", "101254.112500", "101254.572500", "101255.032500", "101255.492500", "101255.952500", "101256.412500", "101256.872500", "101257.332500", "101257.792500", "101258.252500", "101258.712500", "101259.172500", "101259.632500", "101300.092500", "101300.552500", "101301.012500", "101301.472500", "101301.932500", "101302.392500", "101302.852500", "101303.312500", "101303.772500", "101304.232500", "101304.692500", "101305.152500", "101305.612500", "101306.072500", "101306.532500", "101306.992500", "101307.452500", "101307.912500", "101308.372500", "101308.832500", "101309.292500", "101309.752500", "101310.212500", "101310.672500", "101311.132500", "101311.592500", "101312.052500", "101312.512500", "101312.972500", "101313.432500", "101313.892500", "101314.352500", "101314.812500", "101315.272500", "101315.732500", "101316.192500", "101316.652500", "101317.112500", "101317.572500", "101318.032500", "101318.492500", "101318.952500", "101319.412500", "101319.872500", "101320.332500", "101320.792500", "101321.252500", "101321.712500", "101322.172500", "101322.632500", "101323.092500", "101323.552500", "101324.012500", "101324.472500", "101324.932500", "101325.392500", "101325.852500", "101326.312500", "101326.772500", "101327.232500", "101327.692500", "101328.152500", "101328.612500", "101329.072500", "101329.532500", "101329.992500", "101330.452500", "101330.912500", "101331.372500", "101331.832500", "101332.292500", "101332.752500", "101333.212500", "101333.672500", "101334.132500", "101334.592500", "101335.052500", "101335.512500", "101335.972500", "101336.432500", "101336.892500", "101337.352500", "101337.812500", "101338.272500", "101338.732500", "101339.192500", "101339.652500", "101340.112500", "101340.572500", "101341.032500", "101341.492500", "101341.952500", "101342.412500", "101342.872500", "101343.332500", "101343.792500", "101344.252500", "101344.712500", "101345.172500", "101345.632500", "101346.092500", "101346.552500", "101347.012500", "101347.472500", "101347.932500", "101348.392500", "101348.852500", "101349.312500", "101349.772500", "101350.232500", "101350.692500", "101351.152500", "101351.612500", "101352.072500", "101352.532500", "101352.992500", "101353.452500", "101353.912500", "101354.372500", "101354.832500", "101355.292500", "101355.752500", "101356.212500", "101356.672500", "101357.132500", "101357.592500", "101358.052500", "101358.512500", "101358.972500", "101359.432500", "101359.892500", "101400.352500", "101400.812500", "101401.272500", "101401.732500", "101402.192500", "101402.652500", "101403.112500", "101403.572500", "101404.032500", "101404.492500", "101404.952500", "101405.412500", "101405.872500", "101406.332500", "101406.792500", "101407.252500", "101407.712500", "101408.172500", "101408.632500", "101409.092500", "101409.552500", "101410.012500", "101410.472500", "101410.932500", "101411.392500", "101411.852500", "101412.312500", "101412.772500", "101413.232500", "101413.692500", "101414.152500", "101414.612500", "101415.072500", "101415.532500", "101415.992500", "101416.452500", "101416.912500", "101417.372500", "101417.832500", "101418.292500", "101418.752500", "101419.212500", "101419.672500", "101420.132500", "101420.592500", "101421.052500", "101421.512500", "101421.972500", "101422.432500", "101422.892500", "101423.352500", "101423.812500", "101424.272500", "101424.732500", "101425.192500", "101425.652500", "101426.112500", "101426.572500", "101427.032500", "101427.492500", "101427.952500", "101428.412500", "101428.872500", "101429.332500", "101429.792500", "101430.252500", "101430.712500", "101431.172500", "101431.632500", "101432.092500", "101432.552500", "101433.012500", "101433.472500", "101433.932500", "101434.392500", "101434.852500", "101435.312500", "101435.772500", "101436.232500", "101436.692500", "101437.152500", "101437.612500", "101438.072500", "101438.532500", "101438.992500", "101439.452500", "101439.912500", "101440.372500", "101440.832500", "101441.292500", "101441.752500", "101442.212500", "101442.672500", "101443.132500", "101443.592500", "101444.052500", "101444.512500", "101444.972500", "101445.432500", "101445.892500", "101446.352500", "101446.812500", "101447.272500", "101447.732500", "101448.192500", "101448.652500", "101449.112500", "101449.572500", "101450.032500", "101450.492500", "101450.952500", "101451.412500", "101451.872500", "101452.332500", "101452.792500", "101453.252500", "101453.712500", "101454.172500", "101454.632500", "101455.092500", "101455.552500", "101456.012500", "101456.472500", "101456.932500", "101457.392500", "101457.852500", "101458.312500", "101458.772500", "101459.232500", "101459.692500", "101500.152500", "101500.612500", "101501.072500", "101501.532500", "101501.992500", "101502.452500", "101502.912500", "101503.372500", "101503.832500", "101504.292500", "101504.752500", "101505.212500", "101505.672500", "101506.132500", "101506.592500", "101507.052500", "101507.512500", "101507.972500", "101508.432500", "101508.892500", "101509.352500", "101509.812500", "101510.272500", "101510.732500", "101511.192500", "101511.652500", "101512.112500", "101512.572500", "101513.032500", "101513.492500", "101513.952500", "101514.412500", "101514.872500", "101515.332500", "101515.792500", "101516.252500", "101516.712500", "101517.172500", "101517.632500", "101518.092500", "101518.552500", "101519.012500", "101519.472500", "101519.932500", "101520.392500", "101520.852500", "101521.312500", "101521.772500", "101522.232500", "101522.692500", "101523.152500", "101523.612500", "101524.072500", "101524.532500", "101524.992500", "101525.452500", "101525.912500", "101526.372500", "101526.832500", "101527.292500", "101527.752500", "101528.212500", "101528.672500", "101529.132500", "101529.592500", "101530.052500", "101530.512500", "101530.972500", "101531.432500", "101531.892500", "101532.352500", "101532.812500", "101533.272500", "101533.732500", "101534.192500", "101534.652500", "101535.112500", "101535.572500", "101536.032500", "101536.492500", "101536.952500", "101537.412500", "101537.872500", "101538.332500", "101538.792500", "101539.252500", "101539.712500", "101540.172500", "101540.632500", "101541.092500", "101541.552500", "101542.012500", "101542.472500", "101542.932500", "101543.392500", "101543.852500", "101544.312500", "101544.772500", "101545.232500", "101545.692500", "101546.152500", "101546.612500", "101547.072500", "101547.532500", "101547.992500", "101548.452500", "101548.912500", "101549.372500", "101549.832500", "101550.292500", "101550.752500", "101551.212500", "101551.672500", "101552.132500", "101552.592500", "101553.052500", "101553.512500", "101553.972500", "101554.432500", "101554.892500", "101555.352500", "101555.812500", "101556.272500", "101556.732500", "101557.192500", "101557.652500", "101558.112500", "101558.572500", "101559.032500", "101559.492500", "101559.952500", "101600.412500", "101600.872500", "101601.332500", "101601.792500", "101602.252500", "101602.712500", "101603.172500", "101603.632500", "101604.092500", "101604.552500", "101605.012500", "101605.472500", "101605.932500", "101606.392500", "101606.852500", "101607.312500", "101607.772500", "101608.232500", "101608.692500", "101609.152500", "101609.612500", "101610.072500", "101610.532500", "101610.992500", "101611.452500", "101611.912500", "101612.372500", "101612.832500", "101613.292500", "101613.752500", "101614.212500", "101614.672500", "101615.132500", "101615.592500", "101616.052500", "101616.512500", "101616.972500", "101617.432500", "101617.892500", "101618.352500", "101618.812500", "101619.272500", "101619.732500", "101620.192500", "101620.652500", "101621.112500", "101621.572500", "101622.032500", "101622.492500", "101622.952500", "101623.412500", "101623.872500", "101624.332500", "101624.792500", "101625.252500", "101625.712500", "101626.172500", "101626.632500", "101627.092500", "101627.552500", "101628.012500", "101628.472500", "101628.932500", "101629.392500", "101629.852500", "101630.312500", "101630.772500", "101631.232500", "101631.692500", "101632.152500", "101632.612500", "101633.072500", "101633.532500", "101633.992500", "101634.452500", "101634.912500", "101635.372500", "101635.832500", "101636.292500", "101636.752500", "101637.212500", "101637.672500", "101638.132500", "101638.592500", "101639.052500", "101639.512500", "101639.972500", "101640.432500", "101640.892500", "101641.352500", "101641.812500", "101642.272500", "101642.732500", "101643.192500", "101643.652500", "101644.112500", "101644.572500"],
