{
  "AcquisitionMatrixPE": 82,
  "AcquisitionNumber": 1,
  "AcquisitionTime": "21:58:29.550000",
  "BandwidthPerPixelPhaseEncode": 24.888,
  "BaseResolution": 82,
  "BodyPartExamined": "BRAIN",
  "ConsistencyInfo": "N4_VE11E_LATEST_20181129",
  "ConversionSoftware": "dcm2niix",
  "ConversionSoftwareVersion": "v1.0.20201102",
  "DerivedVendorReportedEchoSpacing": 0.00049,
  "DeviceSerialNumber": "66112",
  "DwellTime": 2e-06,
  "EchoTime": 0.0272,
  "EchoTrainLength": 82,
  "EffectiveEchoSpacing": 0.00049,
  "FlipAngle": 44,
  "ImageComments": "Unaliased MB8/PE3",
  "ImageOrientationPatientDICOM": [0.989583, 0.0972624, 0.106138, -0.103835, 0.992887, 0.05825],
  "ImageType": [
    "ORIGINAL",
    "PRIMARY",
    "M",
    "MB",
    "ND",
    "NORM",
    "MOSAIC"
],
  "ImagingFrequency": 123.259,
  "InPlanePhaseEncodingDirectionDICOM": "COL",
  "InstitutionAddress": "Maynard 3,Hanover,NH,US,03755",
  "InstitutionName": "Dartmouth College - PBS",
  "InstitutionalDepartmentName": "Department",
  "MRAcquisitionType": "2D",
  "MagneticFieldStrength": 3,
  "Manufacturer": "Siemens",
  "ManufacturersModelName": "Prisma",
  "Modality": "MR",
  "MultibandAccelerationFactor": 8,
  "PartialFourier": 1,
  "PatientPosition": "HFS",
  "PercentPhaseFOV": 100,
  "PercentSampling": 100,
  "PhaseEncodingDirection": "j-",
  "PhaseEncodingSteps": 82,
  "PhaseResolution": 1,
  "PixelBandwidth": 3050,
  "ProcedureStepDescription": "Wager_Wager^1076_spacetop",
  "ProtocolName": "func_run-02_task-alignvideo_acq-ap-mb8",
  "PulseSequenceDetails": "%CustomerSeq%\\cmrr_mbep2d_bold",
  "ReceiveCoilActiveElements": "HEA;HEP",
  "ReceiveCoilName": "Head_32",
  "ReconMatrixPE": 82,
  "RepetitionTime": 0.46,
  "SAR": 0.0844545,
  "ScanOptions": "FS",
  "ScanningSequence": "EP",
  "SequenceName": "epfid2d1_82",
  "SequenceVariant": "SK\\SS",
  "SeriesDescription": "func_run-02_task-alignvideo_acq-ap-mb8",
  "SeriesNumber": 32,
  "ShimSetting": [4250, -7766, -7219, 267, -123, -46, 42, 72],
  "SliceThickness": 2.7,
  "SliceTiming": [0, 0.2525, 0.0625, 0.315, 0.125, 0.3775, 0.1875, 0, 0.2525, 0.0625, 0.315, 0.125, 0.3775, 0.1875, 0, 0.2525, 0.0625, 0.315, 0.125, 0.3775, 0.1875, 0, 0.2525, 0.0625, 0.315, 0.125, 0.3775, 0.1875, 0, 0.2525, 0.0625, 0.315, 0.125, 0.3775, 0.1875, 0, 0.2525, 0.0625, 0.315, 0.125, 0.3775, 0.1875, 0, 0.2525, 0.0625, 0.315, 0.125, 0.3775, 0.1875, 0, 0.2525, 0.0625, 0.315, 0.125, 0.3775, 0.1875],
  "SoftwareVersions": "syngo MR E11",
  "SpacingBetweenSlices": 2.7,
  "StationName": "AWP66112",
  "TaskName": "alignvideo",
  "TotalReadoutTime": 0.03969,
  "TxRefAmp": 240.42,
  "WipMemBlock": "51bc3790-a73f-430d-ac82-6071b85f75d5||Sequence: R016 ve11e/master r/434b28f1; Aug  7 2019 18:53:46 by eja",
  "dcmmeta_affine": [
    [-2.6549792289733887, -0.27858102321624756, 0.26923668384552, 114.45268249511719],
    [-0.2609478533267975, 2.663844108581543, 0.18539278209209442, -85.84812927246094],
    [0.2847598195075989, -0.15628047287464142, 2.680138111114502, -69.65721893310547],
    [0.0, 0.0, 0.0, 1.0]
],
  "dcmmeta_reorient_transform": [
    [0.0, -1.0, 0.0, 81.0],
    [1.0, 0.0, 0.0, 0.0],
    [0.0, 0.0, 1.0, 0.0],
    [0.0, 0.0, 0.0, 1.0]
],
  "dcmmeta_shape": [82, 82, 56, 926],
  "dcmmeta_slice_dim": 2,
  "dcmmeta_version": 0.6,
  "global": {
    "const": {
      "AccessionNumber": "A004335",
      "AcquisitionMatrix": [82, 0, 0, 82],
      "AngioFlag": "N",
      "BitsAllocated": 16,
      "BitsStored": 16,
      "BodyPartExamined": "BRAIN",
      "Columns": 656,
      "EchoNumbers": 1,
      "EchoTime": 27.2,
      "EchoTrainLength": 82,
      "FlipAngle": 44.0,
      "HighBit": 15,
      "ImageOrientationPatient": [0.98958314858264, 0.09726238127319, 0.10613774649171, -0.1038347419235, 0.99288734736634, 0.05824999407306],
      "ImagePositionPatient": [-773.91390723814, -969.33855707003, -208.89449914257],
      "ImageType": [
        "ORIGINAL",
        "PRIMARY",
        "M",
        "MB",
        "ND",
        "NORM",
        "MOSAIC"
],
      "ImagedNucleus": "1H",
      "ImagingFrequency": 123.259104,
      "InPlanePhaseEncodingDirection": "COL",
      "MRAcquisitionType": "2D",
      "MagneticFieldStrength": 3.0,
      "Manufacturer": "SIEMENS",
      "ManufacturerModelName": "Prisma",
      "Modality": "MR",
      "NumberOfAverages": 1.0,
      "NumberOfPhaseEncodingSteps": 82,
      "PercentPhaseFieldOfView": 100.0,
      "PercentSampling": 100.0,
      "PerformedProcedureStepStartTime": "201309.640000",
      "PhotometricInterpretation": "MONOCHROME2",
      "PixelBandwidth": 3050.0,
      "PixelRepresentation": 0,
      "PixelSpacing": [2.6829268932343, 2.6829268932343],
      "ProtocolName": "func_run-02_task-alignvideo_acq-ap-mb8",
      "RepetitionTime": 460.0,
      "Rows": 656,
      "SAR": 0.08445452226989,
      "SamplesPerPixel": 1,
      "ScanOptions": "FS",
      "ScanningSequence": "EP",
      "SequenceName": "epfid2d1_82",
      "SequenceVariant": [
        "SK",
        "SS"
],
      "SeriesDescription": "func_run-02_task-alignvideo_acq-ap-mb8",
      "SeriesNumber": 32,
      "SeriesTime": "215857.422000",
      "SliceLocation": -63.626569566894,
      "SliceThickness": 2.7000000476837,
      "SmallestImagePixelValue": 0,
      "SoftwareVersions": "syngo MR E11",
      "SpacingBetweenSlices": 2.6999999232283,
      "SpecificCharacterSet": "ISO_IR 100",
      "StudyID": "1",
      "StudyTime": "201309.576000",
      "TransmitCoilName": "Body",
      "VariableFlipAngleFlag": "N",
      "WindowCenterWidthExplanation": "Algo1"
    },
    "slices": {}
  },
  "time": {
    "samples": {
      "AcquisitionNumber": [1, 2, 3, 4, 5, 6, 7, 8, 9, 10, 11, 12, 13, 14, 15, 16, 17, 18, 19, 20, 21, 22, 23, 24, 25, 26, 27, 28, 29, 30, 31, 32, 33, 34, 35, 36, 37, 38, 39, 40, 41, 42, 43, 44, 45, 46, 47, 48, 49, 50, 51, 52, 53, 54, 55, 56, 57, 58, 59, 60, 61, 62, 63, 64, 65, 66, 67, 68, 69, 70, 71, 72, 73, 74, 75, 76, 77, 78, 79, 80, 81, 82, 83, 84, 85, 86, 87, 88, 89, 90, 91, 92, 93, 94, 95, 96, 97, 98, 99, 100, 101, 102, 103, 104, 105, 106, 107, 108, 109, 110, 111, 112, 113, 114, 115, 116, 117, 118, 119, 120, 121, 122, 123, 124, 125, 126, 127, 128, 129, 130, 131, 132, 133, 134, 135, 136, 137, 138, 139, 140, 141, 142, 143, 144, 145, 146, 147, 148, 149, 150, 151, 152, 153, 154, 155, 156, 157, 158, 159, 160, 161, 162, 163, 164, 165, 166, 167, 168, 169, 170, 171, 172, 173, 174, 175, 176, 177, 178, 179, 180, 181, 182, 183, 184, 185, 186, 187, 188, 189, 190, 191, 192, 193, 194, 195, 196, 197, 198, 199, 200, 201, 202, 203, 204, 205, 206, 207, 208, 209, 210, 211, 212, 213, 214, 215, 216, 217, 218, 219, 220, 221, 222, 223, 224, 225, 226, 227, 228, 229, 230, 231, 232, 233, 234, 235, 236, 237, 238, 239, 240, 241, 242, 243, 244, 245, 246, 247, 248, 249, 250, 251, 252, 253, 254, 255, 256, 257, 258, 259, 260, 261, 262, 263, 264, 265, 266, 267, 268, 269, 270, 271, 272, 273, 274, 275, 276, 277, 278, 279, 280, 281, 282, 283, 284, 285, 286, 287, 288, 289, 290, 291, 292, 293, 294, 295, 296, 297, 298, 299, 300, 301, 302, 303, 304, 305, 306, 307, 308, 309, 310, 311, 312, 313, 314, 315, 316, 317, 318, 319, 320, 321, 322, 323, 324, 325, 326, 327, 328, 329, 330, 331, 332, 333, 334, 335, 336, 337, 338, 339, 340, 341, 342, 343, 344, 345, 346, 347, 348, 349, 350, 351, 352, 353, 354, 355, 356, 357, 358, 359, 360, 361, 362, 363, 364, 365, 366, 367, 368, 369, 370, 371, 372, 373, 374, 375, 376, 377, 378, 379, 380, 381, 382, 383, 384, 385, 386, 387, 388, 389, 390, 391, 392, 393, 394, 395, 396, 397, 398, 399, 400, 401, 402, 403, 404, 405, 406, 407, 408, 409, 410, 411, 412, 413, 414, 415, 416, 417, 418, 419, 420, 421, 422, 423, 424, 425, 426, 427, 428, 429, 430, 431, 432, 433, 434, 435, 436, 437, 438, 439, 440, 441, 442, 443, 444, 445, 446, 447, 448, 449, 450, 451, 452, 453, 454, 455, 456, 457, 458, 459, 460, 461, 462, 463, 464, 465, 466, 467, 468, 469, 470, 471, 472, 473, 474, 475, 476, 477, 478, 479, 480, 481, 482, 483, 484, 485, 486, 487, 488, 489, 490, 491, 492, 493, 494, 495, 496, 497, 498, 499, 500, 501, 502, 503, 504, 505, 506, 507, 508, 509, 510, 511, 512, 513, 514, 515, 516, 517, 518, 519, 520, 521, 522, 523, 524, 525, 526, 527, 528, 529, 530, 531, 532, 533, 534, 535, 536, 537, 538, 539, 540, 541, 542, 543, 544, 545, 546, 547, 548, 549, 550, 551, 552, 553, 554, 555, 556, 557, 558, 559, 560, 561, 562, 563, 564, 565, 566, 567, 568, 569, 570, 571, 572, 573, 574, 575, 576, 577, 578, 579, 580, 581, 582, 583, 584, 585, 586, 587, 588, 589, 590, 591, 592, 593, 594, 595, 596, 597, 598, 599, 600, 601, 602, 603, 604, 605, 606, 607, 608, 609, 610, 611, 612, 613, 614, 615, 616, 617, 618, 619, 620, 621, 622, 623, 624, 625, 626, 627, 628, 629, 630, 631, 632, 633, 634, 635, 636, 637, 638, 639, 640, 641, 642, 643, 644, 645, 646, 647, 648, 649, 650, 651, 652, 653, 654, 655, 656, 657, 658, 659, 660, 661, 662, 663, 664, 665, 666, 667, 668, 669, 670, 671, 672, 673, 674, 675, 676, 677, 678, 679, 680, 681, 682, 683, 684, 685, 686, 687, 688, 689, 690, 691, 692, 693, 694, 695, 696, 697, 698, 699, 700, 701, 702, 703, 704, 705, 706, 707, 708, 709, 710, 711, 712, 713, 714, 715, 716, 717, 718, 719, 720, 721, 722, 723, 724, 725, 726, 727, 728, 729, 730, 731, 732, 733, 734, 735, 736, 737, 738, 739, 740, 741, 742, 743, 744, 745, 746, 747, 748, 749, 750, 751, 752, 753, 754, 755, 756, 757, 758, 759, 760, 761, 762, 763, 764, 765, 766, 767, 768, 769, 770, 771, 772, 773, 774, 775, 776, 777, 778, 779, 780, 781, 782, 783, 784, 785, 786, 787, 788, 789, 790, 791, 792, 793, 794, 795, 796, 797, 798, 799, 800, 801, 802, 803, 804, 805, 806, 807, 808, 809, 810, 811, 812, 813, 814, 815, 816, 817, 818, 819, 820, 821, 822, 823, 824, 825, 826, 827, 828, 829, 830, 831, 832, 833, 834, 835, 836, 837, 838, 839, 840, 841, 842, 843, 844, 845, 846, 847, 848, 849, 850, 851, 852, 853, 854, 855, 856, 857, 858, 859, 860, 861, 862, 863, 864, 865, 866, 867, 868, 869, 870, 871, 872, 873, 874, 875, 876, 877, 878, 879, 880, 881, 882, 883, 884, 885, 886, 887, 888, 889, 890, 891, 892, 893, 894, 895, 896, 897, 898, 899, 900, 901, 902, 903, 904, 905, 906, 907, 908, 909, 910, 911, 912, 913, 914, 915, 916, 917, 918, 919, 920, 921, 922, 923, 924, 925, 926],
      "AcquisitionTime": ["215829.550000", "215830.010000", "215830.470000", "215830.930000", "215831.390000", "215831.850000", "215832.310000", "215832.770000", "215833.230000", "215833.690000", "215834.150000", "215834.610000", "215835.070000", "215835.530000", "215835.990000", "215836.450000", "215836.910000", "215837.370000", "215837.830000", "215838.290000", "215838.750000", "215839.210000", "215839.670000", "215840.130000", "215840.590000", "215841.050000", "215841.510000", "215841.970000", "215842.430000", "215842.890000", "215843.350000", "215843.810000", "215844.270000", "215844.730000", "215845.190000", "215845.650000", "215846.110000", "215846.570000", "215847.030000", "215847.490000", "215847.950000", "215848.410000", "215848.870000", "215849.330000", "215849.790000", "215850.250000", "215850.710000", "215851.170000", "215851.630000", "215852.090000", "215852.550000", "215853.010000", "215853.470000", "215853.930000", "215854.390000", "215854.850000", "215855.310000", "215855.770000", "215856.230000", "215856.690000", "215857.150000", "215857.610000", "215858.070000", "215858.530000", "215858.990000", "215859.450000", "215859.910000", "215900.370000", "215900.830000", "215901.290000", "215901.750000", "215902.210000", "215902.670000", "215903.130000", "215903.590000", "215904.050000", "215904.510000", "215904.970000", "215905.430000", "215905.890000", "215906.350000", "215906.810000", "215907.270000", "215907.730000", "215908.190000", "215908.650000", "215909.110000", "215909.570000", "215910.030000", "215910.490000", "215910.950000", "215911.410000", "215911.870000", "215912.330000", "215912.790000", "215913.250000", "215913.710000", "215914.170000", "215914.630000", "215915.090000", "215915.550000", "215916.010000", "215916.470000", "215916.930000", "215917.390000", "215917.850000", "215918.310000", "215918.770000", "215919.230000", "215919.690000", "215920.150000", "215920.610000", "215921.070000", "215921.530000", "215921.990000", "215922.450000", "215922.910000", "215923.370000", "215923.830000", "215924.290000", "215924.750000", "215925.210000", "215925.670000", "215926.130000", "215926.590000", "215927.050000", "215927.510000", "215927.970000", "215928.430000", "215928.890000", "215929.350000", "215929.810000", "215930.270000", "215930.730000", "215931.190000", "215931.650000", "215932.110000", "215932.570000", "215933.030000", "215933.490000", "215933.950000", "215934.410000", "215934.870000", "215935.330000", "215935.790000", "215936.250000", "215936.710000", "215937.170000", "215937.630000", "215938.090000", "215938.550000", "215939.010000", "215939.470000", "215939.930000", "215940.390000", "215940.850000", "215941.310000", "215941.770000", "215942.230000", "215942.690000", "215943.150000", "215943.610000", "215944.070000", "215944.530000", "215944.990000", "215945.450000", "215945.910000", "215946.370000", "215946.830000", "215947.290000", "215947.750000", "215948.210000", "215948.670000", "215949.130000", "215949.590000", "215950.050000", "215950.510000", "215950.970000", "215951.430000", "215951.890000", "215952.350000", "215952.810000", "215953.270000", "215953.730000", "215954.190000", "215954.650000", "215955.110000", "215955.570000", "215956.030000", "215956.490000", "215956.950000", "215957.410000", "215957.870000", "215958.330000", "215958.790000", "215959.250000", "215959.710000", "220000.170000", "220000.630000", "220001.090000", "220001.550000", "220002.010000", "220002.470000", "220002.930000", "220003.390000", "220003.850000", "220004.310000", "220004.770000", "220005.230000", "220005.690000", "220006.150000", "220006.610000", "220007.070000", "220007.530000", "220007.990000", "220008.450000", "220008.910000", "220009.370000", "220009.830000", "220010.290000", "220010.750000", "220011.210000", "220011.670000", "220012.130000", "220012.590000", "220013.050000", "220013.510000", "220013.970000", "220014.430000", "220014.890000", "220015.350000", "220015.810000", "220016.270000", "220016.730000", "220017.190000", "220017.650000", "220018.110000", "220018.570000", "220019.030000", "220019.490000", "220019.950000", "220020.410000", "220020.870000", "220021.330000", "220021.790000", "220022.250000", "220022.710000", "220023.170000", "220023.630000", "220024.090000", "220024.550000", "220025.010000", "220025.470000", "220025.930000", "220026.390000", "220026.850000", "220027.310000", "220027.770000", "220028.230000", "220028.690000", "220029.150000", "220029.610000", "220030.070000", "220030.530000", "220030.990000", "220031.450000", "220031.910000", "220032.370000", "220032.830000", "220033.290000", "220033.750000", "220034.210000", "220034.670000", "220035.130000", "220035.590000", "220036.050000", "220036.510000", "220036.970000", "220037.430000", "220037.890000", "220038.350000", "220038.810000", "220039.270000", "220039.730000", "220040.190000", "220040.650000", "220041.110000", "220041.570000", "220042.030000", "220042.490000", "220042.950000", "220043.410000", "220043.870000", "220044.330000", "220044.790000", "220045.250000", "220045.710000", "220046.170000", "220046.630000", "220047.090000", "220047.550000", "220048.010000", "220048.470000", "220048.930000", "220049.390000", "220049.850000", "220050.310000", "220050.770000", "220051.230000", "220051.690000", "220052.150000", "220052.610000", "220053.070000", "220053.530000", "220053.990000", "220054.450000", "220054.910000", "220055.370000", "220055.830000", "220056.290000", "220056.750000", "220057.210000", "220057.670000", "220058.130000", "220058.590000", "220059.050000", "220059.510000", "220059.970000", "220100.430000", "220100.890000", "220101.350000", "220101.810000", "220102.270000", "220102.730000", "220103.190000", "220103.650000", "220104.110000", "220104.570000", "220105.030000", "220105.490000", "220105.950000", "220106.410000", "220106.870000", "220107.330000", "220107.790000", "220108.250000", "220108.710000", "220109.170000", "220109.630000", "220110.090000", "220110.550000", "220111.010000", "220111.470000", "220111.930000", "220112.390000", "220112.850000", "220113.310000", "220113.770000", "220114.230000", "220114.690000", "220115.150000", "220115.610000", "220116.070000", "220116.530000", "220116.990000", "220117.450000", "220117.910000", "220118.370000", "220118.830000", "220119.290000", "220119.750000", "220120.210000", "220120.670000", "220121.130000", "220121.590000", "220122.050000", "220122.510000", "220122.970000", "220123.430000", "220123.890000", "220124.350000", "220124.810000", "220125.270000", "220125.730000", "220126.190000", "220126.650000", "220127.110000", "220127.570000", "220128.030000", "220128.490000", "220128.950000", "220129.410000", "220129.870000", "220130.330000", "220130.790000", "220131.250000", "220131.710000", "220132.170000", "220132.630000", "220133.090000", "220133.550000", "220134.010000", "220134.470000", "220134.930000", "220135.390000", "220135.850000", "220136.310000", "220136.770000", "220137.230000", "220137.690000", "220138.150000", "220138.610000", "220139.070000", "220139.530000", "220139.990000", "220140.450000", "220140.910000", "220141.370000", "220141.830000", "220142.290000", "220142.750000", "220143.210000", "220143.670000", "220144.130000", "220144.590000", "220145.050000", "220145.510000", "220145.970000", "220146.430000", "220146.890000", "220147.350000", "220147.810000", "220148.270000", "220148.730000", "220149.190000", "220149.650000", "220150.110000", "220150.570000", "220151.030000", "220151.490000", "220151.950000", "220152.410000", "220152.870000", "220153.330000", "220153.790000", "220154.250000", "220154.710000", "220155.170000", "220155.630000", "220156.090000", "220156.550000", "220157.010000", "220157.470000", "220157.930000", "220158.390000", "220158.850000", "220159.310000", "220159.770000", "220200.230000", "220200.690000", "220201.150000", "220201.610000", "220202.070000", "220202.530000", "220202.990000", "220203.450000", "220203.910000", "220204.370000", "220204.830000", "220205.290000", "220205.750000", "220206.210000", "220206.670000", "220207.130000", "220207.590000", "220208.050000", "220208.510000", "220208.970000", "220209.430000", "220209.890000", "220210.350000", "220210.810000", "220211.270000", "220211.730000", "220212.190000", "220212.650000", "220213.110000", "220213.570000", "220214.030000", "220214.490000", "220214.950000", "220215.410000", "220215.870000", "220216.330000", "220216.790000", "220217.250000", "220217.710000", "220218.170000", "220218.630000", "220219.090000", "220219.550000", "220220.010000", "220220.470000", "220220.930000", "220221.390000", "220221.850000", "220222.310000", "220222.770000", "220223.230000", "220223.690000", "220224.150000", "220224.610000", "220225.070000", "220225.530000", "220225.990000", "220226.450000", "220226.910000", "220227.370000", "220227.830000", "220228.290000", "220228.750000", "220229.210000", "220229.670000", "220230.130000", "220230.590000", "220231.050000", "220231.510000", "220231.970000", "220232.430000", "220232.890000", "220233.350000", "220233.810000", "220234.270000", "220234.730000", "220235.190000", "220235.650000", "220236.110000", "220236.570000", "220237.030000", "220237.490000", "220237.950000", "220238.410000", "220238.870000", "220239.330000", "220239.790000", "220240.250000", "220240.710000", "220241.170000", "220241.630000", "220242.090000", "220242.550000", "220243.010000", "220243.470000", "220243.930000", "220244.390000", "220244.850000", "220245.310000", "220245.770000", "220246.230000", "220246.690000", "220247.150000", "220247.610000", "220248.070000", "220248.530000", "220248.990000", "220249.450000", "220249.910000", "220250.370000", "220250.830000", "220251.290000", "220251.750000", "220252.210000", "220252.670000", "220253.130000", "220253.590000", "220254.050000", "220254.510000", "220254.970000", "220255.430000", "220255.890000", "220256.350000", "220256.810000", "220257.270000", "220257.730000", "220258.190000", "220258.650000", "220259.110000", "220259.570000", "220300.030000", "220300.490000", "220300.950000", "220301.410000", "220301.870000", "220302.330000", "220302.790000", "220303.250000", "220303.710000", "220304.170000", "220304.630000", "220305.090000", "220305.550000", "220306.010000", "220306.470000", "220306.930000", "220307.390000", "220307.850000", "220308.310000", "220308.770000", "220309.230000", "220309.690000", "220310.150000", "220310.610000", "220311.070000", "220311.530000", "220311.990000", "220312.450000", "220312.910000", "220313.370000", "220313.830000", "220314.290000", "220314.750000", "220315.210000", "220315.670000", "220316.130000", "220316.590000", "220317.050000", "220317.510000", "220317.970000", "220318.430000", "220318.890000", "220319.350000", "220319.810000", "220320.270000", "220320.730000", "220321.190000", "220321.650000", "220322.110000", "220322.570000", "220323.030000", "220323.490000", "220323.950000", "220324.410000", "220324.870000", "220325.330000", "220325.790000", "220326.250000", "220326.710000", "220327.170000", "220327.630000", "220328.090000", "220328.550000", "220329.010000", "220329.470000", "220329.930000", "220330.390000", "220330.850000", "220331.310000", "220331.770000", "220332.230000", "220332.690000", "220333.150000", "220333.610000", "220334.070000", "220334.530000", "220334.990000", "220335.450000", "220335.910000", "220336.370000", "220336.830000", "220337.290000", "220337.750000", "220338.210000", "220338.670000", "220339.130000", "220339.590000", "220340.050000", "220340.510000", "220340.970000", "220341.430000", "220341.890000", "220342.350000", "220342.810000", "220343.270000", "220343.730000", "220344.190000", "220344.650000", "220345.110000", "220345.570000", "220346.030000", "220346.490000", "220346.950000", "220347.410000", "220347.870000", "220348.330000", "220348.790000", "220349.250000", "220349.710000", "220350.170000", "220350.630000", "220351.090000", "220351.550000", "220352.010000", "220352.470000", "220352.930000", "220353.390000", "220353.850000", "220354.310000", "220354.770000", "220355.230000", "220355.690000", "220356.150000", "220356.610000", "220357.070000", "220357.530000", "220357.990000", "220358.450000", "220358.910000", "220359.370000", "220359.830000", "220400.290000", "220400.750000", "220401.210000", "220401.670000", "220402.130000", "220402.590000", "220403.050000", "220403.510000", "220403.970000", "220404.430000", "220404.890000", "220405.350000", "220405.810000", "220406.270000", "220406.730000", "220407.190000", "220407.650000", "220408.110000", "220408.570000", "220409.030000", "220409.490000", "220409.950000", "220410.410000", "220410.870000", "220411.330000", "220411.790000", "220412.250000", "220412.710000", "220413.170000", "220413.630000", "220414.090000", "220414.550000", "220415.010000", "220415.470000", "220415.930000", "220416.390000", "220416.850000", "220417.310000", "220417.770000", "220418.230000", "220418.690000", "220419.150000", "220419.610000", "220420.070000", "220420.530000", "220420.990000", "220421.450000", "220421.910000", "220422.370000", "220422.830000", "220423.290000", "220423.750000", "220424.210000", "220424.670000", "220425.130000", "220425.590000", "220426.050000", "220426.510000", "220426.970000", "220427.430000", "220427.890000", "220428.350000", "220428.810000", "220429.270000", "220429.730000", "220430.190000", "220430.650000", "220431.110000", "220431.570000", "220432.030000", "220432.490000", "220432.950000", "220433.410000", "220433.870000", "220434.330000", "220434.790000", "220435.250000", "220435.710000", "220436.170000", "220436.630000", "220437.090000", "220437.550000", "220438.010000", "220438.470000", "220438.930000", "220439.390000", "220439.850000", "220440.310000", "220440.770000", "220441.230000", "220441.690000", "220442.150000", "220442.610000", "220443.070000", "220443.530000", "220443.990000", "220444.450000", "220444.910000", "220445.370000", "220445.830000", "220446.290000", "220446.750000", "220447.210000", "220447.670000", "220448.130000", "220448.590000", "220449.050000", "220449.510000", "220449.970000", "220450.430000", "220450.890000", "220451.350000", "220451.810000", "220452.270000", "220452.730000", "220453.190000", "220453.650000", "220454.110000", "220454.570000", "220455.030000", "220455.490000", "220455.950000", "220456.410000", "220456.870000", "220457.330000", "220457.790000", "220458.250000", "220458.710000", "220459.170000", "220459.630000", "220500.090000", "220500.550000", "220501.010000", "220501.470000", "220501.930000", "220502.390000", "220502.850000", "220503.310000", "220503.770000", "220504.230000", "220504.690000", "220505.150000", "220505.610000", "220506.070000", "220506.530000", "220506.990000", "220507.450000", "220507.910000", "220508.370000", "220508.830000", "220509.290000", "220509.750000", "220510.210000", "220510.670000", "220511.130000", "220511.590000", "220512.050000", "220512.510000", "220512.970000", "220513.430000", "220513.890000", "220514.350000", "220514.810000", "220515.270000", "220515.730000", "220516.190000", "220516.650000", "220517.110000", "220517.570000", "220518.030000", "220518.490000", "220518.950000", "220519.410000", "220519.870000", "220520.330000", "220520.790000", "220521.250000", "220521.710000", "220522.170000", "220522.630000", "220523.090000", "220523.550000", "220524.010000", "220524.470000", "220524.930000", "220525.390000", "220525.850000", "220526.310000", "220526.770000", "220527.230000", "220527.690000", "220528.150000", "220528.610000", "220529.070000", "220529.530000", "220529.990000", "220530.450000", "220530.910000", "220531.370000", "220531.830000", "220532.290000", "220532.750000", "220533.210000", "220533.670000", "220534.130000", "220534.590000", "220535.050000"],
