{
  "AcquisitionMatrixPE": 82,
  "AcquisitionNumber": 1,
  "AcquisitionTime": "10:41:57.195000",
  "BandwidthPerPixelPhaseEncode": 24.888,
  "BaseResolution": 82,
  "BodyPartExamined": "BRAIN",
  "ConsistencyInfo": "N4_VE11E_LATEST_20181129",
  "ConversionSoftware": "dcm2niix",
  "ConversionSoftwareVersion": "v1.0.20201102",
  "DerivedVendorReportedEchoSpacing": 0.00049,
  "DeviceSerialNumber": "66112",
  "DwellTime": 2e-06,
  "EchoTime": 0.0272,
  "EchoTrainLength": 82,
  "EffectiveEchoSpacing": 0.00049,
  "FlipAngle": 44,
  "ImageComments": "Unaliased MB8/PE3",
  "ImageOrientationPatientDICOM": [0.999874, -0.0058623, 0.0147813, 0.00383928, 0.991061, 0.133351],
  "ImageType": [
    "ORIGINAL",
    "PRIMARY",
    "M",
    "MB",
    "ND",
    "NORM",
    "MOSAIC"
],
  "ImagingFrequency": 123.252,
  "InPlanePhaseEncodingDirectionDICOM": "COL",
  "InstitutionAddress": "Maynard 3,Hanover,NH,US,03755",
  "InstitutionName": "Dartmouth College - PBS",
  "InstitutionalDepartmentName": "Department",
  "MRAcquisitionType": "2D",
  "MagneticFieldStrength": 3,
  "Manufacturer": "Siemens",
  "ManufacturersModelName": "Prisma",
  "Modality": "MR",
  "MultibandAccelerationFactor": 8,
  "PartialFourier": 1,
  "PatientPosition": "HFS",
  "PercentPhaseFOV": 100,
  "PercentSampling": 100,
  "PhaseEncodingDirection": "j-",
  "PhaseEncodingSteps": 82,
  "PhaseResolution": 1,
  "PixelBandwidth": 3050,
  "ProcedureStepDescription": "Wager_Wager^1076_spacetop",
  "ProtocolName": "func_run-01_task-social_acq-ap-mb8",
  "PulseSequenceDetails": "%CustomerSeq%\\cmrr_mbep2d_bold",
  "ReceiveCoilActiveElements": "HEA;HEP",
  "ReceiveCoilName": "Head_32",
  "ReconMatrixPE": 82,
  "RepetitionTime": 0.46,
  "SAR": 0.0916533,
  "ScanOptions": "FS",
  "ScanningSequence": "EP",
  "SequenceName": "epfid2d1_82",
  "SequenceVariant": "SK\\SS",
  "SeriesDescription": "func_run-01_task-social_acq-ap-mb8",
  "SeriesNumber": 12,
  "ShimSetting": [4161, -7749, -7292, 473, -39, -148, 24, 0],
  "SliceThickness": 2.7,
  "SliceTiming": [0, 0.2525, 0.0625, 0.315, 0.125, 0.3775, 0.1875, 0, 0.2525, 0.0625, 0.315, 0.125, 0.3775, 0.1875, 0, 0.2525, 0.0625, 0.315, 0.125, 0.3775, 0.1875, 0, 0.2525, 0.0625, 0.315, 0.125, 0.3775, 0.1875, 0, 0.2525, 0.0625, 0.315, 0.125, 0.3775, 0.1875, 0, 0.2525, 0.0625, 0.315, 0.125, 0.3775, 0.1875, 0, 0.2525, 0.0625, 0.315, 0.125, 0.3775, 0.1875, 0, 0.2525, 0.0625, 0.315, 0.125, 0.3775, 0.1875],
  "SoftwareVersions": "syngo MR E11",
  "SpacingBetweenSlices": 2.7,
  "StationName": "AWP66112",
  "TaskName": "social",
  "TotalReadoutTime": 0.03969,
  "TxRefAmp": 244.373,
  "WipMemBlock": "7bac7272-eee9-4831-9693-3b15d8b44129||Sequence: R016 ve11e/master r/434b28f1; Aug  7 2019 18:53:46 by eja",
  "dcmmeta_affine": [
    [-2.6825876235961914, 0.010300515219569206, 0.041663557291030884, 108.13566589355469],
    [0.015728123486042023, 2.6589455604553223, 0.3598484396934509, -94.39238739013672],
    [0.03965722396969795, -0.35777047276496887, 2.675588369369507, -70.34264373779297],
    [0.0, 0.0, 0.0, 1.0]
],
  "dcmmeta_reorient_transform": [
    [0.0, -1.0, 0.0, 81.0],
    [1.0, 0.0, 0.0, 0.0],
    [0.0, 0.0, 1.0, 0.0],
    [0.0, 0.0, 0.0, 1.0]
],
  "dcmmeta_shape": [82, 82, 56, 872],
  "dcmmeta_slice_dim": 2,
  "dcmmeta_version": 0.6,
  "global": {
    "const": {
      "AccessionNumber": "A004009",
      "AcquisitionMatrix": [82, 0, 0, 82],
      "AngioFlag": "N",
      "BitsAllocated": 16,
      "BitsStored": 16,
      "BodyPartExamined": "BRAIN",
      "Columns": 656,
      "EchoNumbers": 1,
      "EchoTime": 27.2,
      "EchoTrainLength": 82,
      "FlipAngle": 44.0,
      "HighBit": 15,
      "ImageOrientationPatient": [0.99987356488678, -0.005862300091, 0.01478132870391, 0.00383928290037, 0.99106146141524, 0.13335081403687],
      "ImagePositionPatient": [-881.82891921348, -879.58556744096, -213.38380794589],
      "ImageType": [
        "ORIGINAL",
        "PRIMARY",
        "M",
        "MB",
        "ND",
        "NORM",
        "MOSAIC"
],
      "ImagedNucleus": "1H",
      "ImagingFrequency": 123.252182,
      "InPlanePhaseEncodingDirection": "COL",
      "MRAcquisitionType": "2D",
      "MagneticFieldStrength": 3.0,
      "Manufacturer": "SIEMENS",
      "ManufacturerModelName": "Prisma",
      "Modality": "MR",
      "NumberOfAverages": 1.0,
      "NumberOfPhaseEncodingSteps": 82,
      "PercentPhaseFieldOfView": 100.0,
      "PercentSampling": 100.0,
      "PerformedProcedureStepStartTime": "094144.550000",
      "PhotometricInterpretation": "MONOCHROME2",
      "PixelBandwidth": 3050.0,
      "PixelRepresentation": 0,
      "PixelSpacing": [2.6829268932343, 2.6829268932343],
      "ProtocolName": "func_run-01_task-social_acq-ap-mb8",
      "RepetitionTime": 460.0,
      "Rows": 656,
      "SAR": 0.09165330883595,
      "SamplesPerPixel": 1,
      "ScanOptions": "FS",
      "ScanningSequence": "EP",
      "SequenceName": "epfid2d1_82",
      "SequenceVariant": [
        "SK",
        "SS"
],
      "SeriesDescription": "func_run-01_task-social_acq-ap-mb8",
      "SeriesNumber": 12,
      "SeriesTime": "104212.457000",
      "SliceLocation": -80.618371979168,
      "SliceThickness": 2.7000000476837,
      "SmallestImagePixelValue": 0,
      "SoftwareVersions": "syngo MR E11",
      "SpacingBetweenSlices": 2.6999999081503,
      "SpecificCharacterSet": "ISO_IR 100",
      "StudyID": "1",
      "StudyTime": "094144.425000",
      "TransmitCoilName": "Body",
      "VariableFlipAngleFlag": "N",
      "WindowCenterWidthExplanation": "Algo1"
    },
    "slices": {}
  },
  "time": {
    "samples": {
      "AcquisitionNumber": [1, 2, 3, 4, 5, 6, 7, 8, 9, 10, 11, 12, 13, 14, 15, 16, 17, 18, 19, 20, 21, 22, 23, 24, 25, 26, 27, 28, 29, 30, 31, 32, 33, 34, 35, 36, 37, 38, 39, 40, 41, 42, 43, 44, 45, 46, 47, 48, 49, 50, 51, 52, 53, 54, 55, 56, 57, 58, 59, 60, 61, 62, 63, 64, 65, 66, 67, 68, 69, 70, 71, 72, 73, 74, 75, 76, 77, 78, 79, 80, 81, 82, 83, 84, 85, 86, 87, 88, 89, 90, 91, 92, 93, 94, 95, 96, 97, 98, 99, 100, 101, 102, 103, 104, 105, 106, 107, 108, 109, 110, 111, 112, 113, 114, 115, 116, 117, 118, 119, 120, 121, 122, 123, 124, 125, 126, 127, 128, 129, 130, 131, 132, 133, 134, 135, 136, 137, 138, 139, 140, 141, 142, 143, 144, 145, 146, 147, 148, 149, 150, 151, 152, 153, 154, 155, 156, 157, 158, 159, 160, 161, 162, 163, 164, 165, 166, 167, 168, 169, 170, 171, 172, 173, 174, 175, 176, 177, 178, 179, 180, 181, 182, 183, 184, 185, 186, 187, 188, 189, 190, 191, 192, 193, 194, 195, 196, 197, 198, 199, 200, 201, 202, 203, 204, 205, 206, 207, 208, 209, 210, 211, 212, 213, 214, 215, 216, 217, 218, 219, 220, 221, 222, 223, 224, 225, 226, 227, 228, 229, 230, 231, 232, 233, 234, 235, 236, 237, 238, 239, 240, 241, 242, 243, 244, 245, 246, 247, 248, 249, 250, 251, 252, 253, 254, 255, 256, 257, 258, 259, 260, 261, 262, 263, 264, 265, 266, 267, 268, 269, 270, 271, 272, 273, 274, 275, 276, 277, 278, 279, 280, 281, 282, 283, 284, 285, 286, 287, 288, 289, 290, 291, 292, 293, 294, 295, 296, 297, 298, 299, 300, 301, 302, 303, 304, 305, 306, 307, 308, 309, 310, 311, 312, 313, 314, 315, 316, 317, 318, 319, 320, 321, 322, 323, 324, 325, 326, 327, 328, 329, 330, 331, 332, 333, 334, 335, 336, 337, 338, 339, 340, 341, 342, 343, 344, 345, 346, 347, 348, 349, 350, 351, 352, 353, 354, 355, 356, 357, 358, 359, 360, 361, 362, 363, 364, 365, 366, 367, 368, 369, 370, 371, 372, 373, 374, 375, 376, 377, 378, 379, 380, 381, 382, 383, 384, 385, 386, 387, 388, 389, 390, 391, 392, 393, 394, 395, 396, 397, 398, 399, 400, 401, 402, 403, 404, 405, 406, 407, 408, 409, 410, 411, 412, 413, 414, 415, 416, 417, 418, 419, 420, 421, 422, 423, 424, 425, 426, 427, 428, 429, 430, 431, 432, 433, 434, 435, 436, 437, 438, 439, 440, 441, 442, 443, 444, 445, 446, 447, 448, 449, 450, 451, 452, 453, 454, 455, 456, 457, 458, 459, 460, 461, 462, 463, 464, 465, 466, 467, 468, 469, 470, 471, 472, 473, 474, 475, 476, 477, 478, 479, 480, 481, 482, 483, 484, 485, 486, 487, 488, 489, 490, 491, 492, 493, 494, 495, 496, 497, 498, 499, 500, 501, 502, 503, 504, 505, 506, 507, 508, 509, 510, 511, 512, 513, 514, 515, 516, 517, 518, 519, 520, 521, 522, 523, 524, 525, 526, 527, 528, 529, 530, 531, 532, 533, 534, 535, 536, 537, 538, 539, 540, 541, 542, 543, 544, 545, 546, 547, 548, 549, 550, 551, 552, 553, 554, 555, 556, 557, 558, 559, 560, 561, 562, 563, 564, 565, 566, 567, 568, 569, 570, 571, 572, 573, 574, 575, 576, 577, 578, 579, 580, 581, 582, 583, 584, 585, 586, 587, 588, 589, 590, 591, 592, 593, 594, 595, 596, 597, 598, 599, 600, 601, 602, 603, 604, 605, 606, 607, 608, 609, 610, 611, 612, 613, 614, 615, 616, 617, 618, 619, 620, 621, 622, 623, 624, 625, 626, 627, 628, 629, 630, 631, 632, 633, 634, 635, 636, 637, 638, 639, 640, 641, 642, 643, 644, 645, 646, 647, 648, 649, 650, 651, 652, 653, 654, 655, 656, 657, 658, 659, 660, 661, 662, 663, 664, 665, 666, 667, 668, 669, 670, 671, 672, 673, 674, 675, 676, 677, 678, 679, 680, 681, 682, 683, 684, 685, 686, 687, 688, 689, 690, 691, 692, 693, 694, 695, 696, 697, 698, 699, 700, 701, 702, 703, 704, 705, 706, 707, 708, 709, 710, 711, 712, 713, 714, 715, 716, 717, 718, 719, 720, 721, 722, 723, 724, 725, 726, 727, 728, 729, 730, 731, 732, 733, 734, 735, 736, 737, 738, 739, 740, 741, 742, 743, 744, 745, 746, 747, 748, 749, 750, 751, 752, 753, 754, 755, 756, 757, 758, 759, 760, 761, 762, 763, 764, 765, 766, 767, 768, 769, 770, 771, 772, 773, 774, 775, 776, 777, 778, 779, 780, 781, 782, 783, 784, 785, 786, 787, 788, 789, 790, 791, 792, 793, 794, 795, 796, 797, 798, 799, 800, 801, 802, 803, 804, 805, 806, 807, 808, 809, 810, 811, 812, 813, 814, 815, 816, 817, 818, 819, 820, 821, 822, 823, 824, 825, 826, 827, 828, 829, 830, 831, 832, 833, 834, 835, 836, 837, 838, 839, 840, 841, 842, 843, 844, 845, 846, 847, 848, 849, 850, 851, 852, 853, 854, 855, 856, 857, 858, 859, 860, 861, 862, 863, 864, 865, 866, 867, 868, 869, 870, 871, 872],
      "AcquisitionTime": ["104157.195000", "104157.655000", "104158.115000", "104158.575000", "104159.035000", "104159.495000", "104159.955000", "104200.415000", "104200.875000", "104201.335000", "104201.795000", "104202.255000", "104202.715000", "104203.175000", "104203.635000", "104204.095000", "104204.555000", "104205.015000", "104205.475000", "104205.935000", "104206.395000", "104206.855000", "104207.315000", "104207.775000", "104208.235000", "104208.695000", "104209.155000", "104209.615000", "104210.075000", "104210.535000", "104210.995000", "104211.455000", "104211.915000", "104212.375000", "104212.835000", "104213.295000", "104213.755000", "104214.215000", "104214.675000", "104215.135000", "104215.595000", "104216.055000", "104216.515000", "104216.975000", "104217.435000", "104217.895000", "104218.355000", "104218.815000", "104219.275000", "104219.735000", "104220.195000", "104220.655000", "104221.115000", "104221.575000", "104222.035000", "104222.495000", "104222.955000", "104223.415000", "104223.875000", "104224.335000", "104224.795000", "104225.255000", "104225.715000", "104226.175000", "104226.635000", "104227.095000", "104227.555000", "104228.015000", "104228.475000", "104228.935000", "104229.395000", "104229.855000", "104230.315000", "104230.775000", "104231.235000", "104231.695000", "104232.155000", "104232.615000", "104233.075000", "104233.535000", "104233.995000", "104234.455000", "104234.915000", "104235.375000", "104235.835000", "104236.295000", "104236.755000", "104237.215000", "104237.675000", "104238.135000", "104238.595000", "104239.055000", "104239.515000", "104239.975000", "104240.435000", "104240.895000", "104241.355000", "104241.815000", "104242.275000", "104242.735000", "104243.195000", "104243.655000", "104244.115000", "104244.575000", "104245.035000", "104245.495000", "104245.955000", "104246.415000", "104246.875000", "104247.335000", "104247.795000", "104248.255000", "104248.715000", "104249.175000", "104249.635000", "104250.095000", "104250.555000", "104251.015000", "104251.475000", "104251.935000", "104252.395000", "104252.855000", "104253.315000", "104253.775000", "104254.235000", "104254.695000", "104255.155000", "104255.615000", "104256.075000", "104256.535000", "104256.995000", "104257.455000", "104257.915000", "104258.375000", "104258.835000", "104259.295000", "104259.755000", "104300.215000", "104300.675000", "104301.135000", "104301.595000", "104302.055000", "104302.515000", "104302.975000", "104303.435000", "104303.895000", "104304.355000", "104304.815000", "104305.275000", "104305.735000", "104306.195000", "104306.655000", "104307.115000", "104307.575000", "104308.035000", "104308.495000", "104308.955000", "104309.415000", "104309.875000", "104310.335000", "104310.795000", "104311.255000", "104311.715000", "104312.175000", "104312.635000", "104313.095000", "104313.555000", "104314.015000", "104314.475000", "104314.935000", "104315.395000", "104315.855000", "104316.315000", "104316.775000", "104317.235000", "104317.695000", "104318.155000", "104318.615000", "104319.075000", "104319.535000", "104319.995000", "104320.455000", "104320.915000", "104321.375000", "104321.835000", "104322.295000", "104322.755000", "104323.215000", "104323.675000", "104324.135000", "104324.595000", "104325.055000", "104325.515000", "104325.975000", "104326.435000", "104326.895000", "104327.355000", "104327.815000", "104328.275000", "104328.735000", "104329.195000", "104329.655000", "104330.115000", "104330.575000", "104331.035000", "104331.495000", "104331.955000", "104332.415000", "104332.875000", "104333.335000", "104333.795000", "104334.255000", "104334.715000", "104335.175000", "104335.635000", "104336.095000", "104336.555000", "104337.015000", "104337.475000", "104337.935000", "104338.395000", "104338.855000", "104339.315000", "104339.775000", "104340.235000", "104340.695000", "104341.155000", "104341.615000", "104342.075000", "104342.535000", "104342.995000", "104343.455000", "104343.915000", "104344.375000", "104344.835000", "104345.295000", "104345.755000", "104346.215000", "104346.675000", "104347.135000", "104347.595000", "104348.055000", "104348.515000", "104348.975000", "104349.435000", "104349.895000", "104350.355000", "104350.815000", "104351.275000", "104351.735000", "104352.195000", "104352.655000", "104353.115000", "104353.575000", "104354.035000", "104354.495000", "104354.955000", "104355.415000", "104355.875000", "104356.335000", "104356.795000", "104357.255000", "104357.715000", "104358.175000", "104358.635000", "104359.095000", "104359.555000", "104400.015000", "104400.475000", "104400.935000", "104401.395000", "104401.855000", "104402.315000", "104402.775000", "104403.235000", "104403.695000", "104404.155000", "104404.615000", "104405.075000", "104405.535000", "104405.995000", "104406.455000", "104406.915000", "104407.375000", "104407.835000", "104408.295000", "104408.755000", "104409.215000", "104409.675000", "104410.135000", "104410.595000", "104411.055000", "104411.515000", "104411.975000", "104412.435000", "104412.895000", "104413.355000", "104413.815000", "104414.275000", "104414.735000", "104415.195000", "104415.655000", "104416.115000", "104416.575000", "104417.035000", "104417.495000", "104417.955000", "104418.415000", "104418.875000", "104419.335000", "104419.795000", "104420.255000", "104420.715000", "104421.175000", "104421.635000", "104422.095000", "104422.555000", "104423.015000", "104423.475000", "104423.935000", "104424.395000", "104424.855000", "104425.315000", "104425.775000", "104426.235000", "104426.695000", "104427.155000", "104427.615000", "104428.075000", "104428.535000", "104428.995000", "104429.455000", "104429.915000", "104430.375000", "104430.835000", "104431.295000", "104431.755000", "104432.215000", "104432.675000", "104433.135000", "104433.595000", "104434.055000", "104434.515000", "104434.975000", "104435.435000", "104435.895000", "104436.355000", "104436.815000", "104437.275000", "104437.735000", "104438.195000", "104438.655000", "104439.115000", "104439.575000", "104440.035000", "104440.495000", "104440.955000", "104441.415000", "104441.875000", "104442.335000", "104442.795000", "104443.255000", "104443.715000", "104444.175000", "104444.635000", "104445.095000", "104445.555000", "104446.015000", "104446.475000", "104446.935000", "104447.395000", "104447.855000", "104448.315000", "104448.775000", "104449.235000", "104449.695000", "104450.155000", "104450.615000", "104451.075000", "104451.535000", "104451.995000", "104452.455000", "104452.915000", "104453.375000", "104453.835000", "104454.295000", "104454.755000", "104455.215000", "104455.675000", "104456.135000", "104456.595000", "104457.055000", "104457.515000", "104457.975000", "104458.435000", "104458.895000", "104459.355000", "104459.815000", "104500.275000", "104500.735000", "104501.195000", "104501.655000", "104502.115000", "104502.575000", "104503.035000", "104503.495000", "104503.955000", "104504.415000", "104504.875000", "104505.335000", "104505.795000", "104506.255000", "104506.715000", "104507.175000", "104507.635000", "104508.095000", "104508.555000", "104509.015000", "104509.475000", "104509.935000", "104510.395000", "104510.855000", "104511.315000", "104511.775000", "104512.235000", "104512.695000", "104513.155000", "104513.615000", "104514.075000", "104514.535000", "104514.995000", "104515.455000", "104515.915000", "104516.375000", "104516.835000", "104517.295000", "104517.755000", "104518.215000", "104518.675000", "104519.135000", "104519.595000", "104520.055000", "104520.515000", "104520.975000", "104521.435000", "104521.895000", "104522.355000", "104522.815000", "104523.275000", "104523.735000", "104524.195000", "104524.655000", "104525.115000", "104525.575000", "104526.035000", "104526.495000", "104526.955000", "104527.415000", "104527.875000", "104528.335000", "104528.795000", "104529.255000", "104529.715000", "104530.175000", "104530.635000", "104531.095000", "104531.555000", "104532.015000", "104532.475000", "104532.935000", "104533.395000", "104533.855000", "104534.315000", "104534.775000", "104535.235000", "104535.695000", "104536.155000", "104536.615000", "104537.075000", "104537.535000", "104537.995000", "104538.455000", "104538.915000", "104539.375000", "104539.835000", "104540.295000", "104540.755000", "104541.215000", "104541.675000", "104542.135000", "104542.595000", "104543.055000", "104543.515000", "104543.975000", "104544.435000", "104544.895000", "104545.355000", "104545.815000", "104546.275000", "104546.735000", "104547.195000", "104547.655000", "104548.115000", "104548.575000", "104549.035000", "104549.495000", "104549.955000", "104550.415000", "104550.875000", "104551.335000", "104551.795000", "104552.255000", "104552.715000", "104553.175000", "104553.635000", "104554.095000", "104554.555000", "104555.015000", "104555.475000", "104555.935000", "104556.395000", "104556.855000", "104557.315000", "104557.775000", "104558.235000", "104558.695000", "104559.155000", "104559.615000", "104600.075000", "104600.535000", "104600.995000", "104601.455000", "104601.915000", "104602.375000", "104602.835000", "104603.295000", "104603.755000", "104604.215000", "104604.675000", "104605.135000", "104605.595000", "104606.055000", "104606.515000", "104606.975000", "104607.435000", "104607.895000", "104608.355000", "104608.815000", "104609.275000", "104609.735000", "104610.195000", "104610.655000", "104611.115000", "104611.575000", "104612.035000", "104612.495000", "104612.955000", "104613.415000", "104613.875000", "104614.335000", "104614.795000", "104615.255000", "104615.715000", "104616.175000", "104616.635000", "104617.095000", "104617.555000", "104618.015000", "104618.475000", "104618.935000", "104619.395000", "104619.855000", "104620.315000", "104620.775000", "104621.235000", "104621.695000", "104622.155000", "104622.615000", "104623.075000", "104623.535000", "104623.995000", "104624.455000", "104624.915000", "104625.375000", "104625.835000", "104626.295000", "104626.755000", "104627.215000", "104627.675000", "104628.135000", "104628.595000", "104629.055000", "104629.515000", "104629.975000", "104630.435000", "104630.895000", "104631.355000", "104631.815000", "104632.275000", "104632.735000", "104633.195000", "104633.655000", "104634.115000", "104634.575000", "104635.035000", "104635.495000", "104635.955000", "104636.415000", "104636.875000", "104637.335000", "104637.795000", "104638.255000", "104638.715000", "104639.175000", "104639.635000", "104640.095000", "104640.555000", "104641.015000", "104641.475000", "104641.935000", "104642.395000", "104642.855000", "104643.315000", "104643.775000", "104644.235000", "104644.695000", "104645.155000", "104645.615000", "104646.075000", "104646.535000", "104646.995000", "104647.455000", "104647.915000", "104648.375000", "104648.835000", "104649.295000", "104649.755000", "104650.215000", "104650.675000", "104651.135000", "104651.595000", "104652.055000", "104652.515000", "104652.975000", "104653.435000", "104653.895000", "104654.355000", "104654.815000", "104655.275000", "104655.735000", "104656.195000", "104656.655000", "104657.115000", "104657.575000", "104658.035000", "104658.495000", "104658.955000", "104659.415000", "104659.875000", "104700.335000", "104700.795000", "104701.255000", "104701.715000", "104702.175000", "104702.635000", "104703.095000", "104703.555000", "104704.015000", "104704.475000", "104704.935000", "104705.395000", "104705.855000", "104706.315000", "104706.775000", "104707.235000", "104707.695000", "104708.155000", "104708.615000", "104709.075000", "104709.535000", "104709.995000", "104710.455000", "104710.915000", "104711.375000", "104711.835000", "104712.295000", "104712.755000", "104713.215000", "104713.675000", "104714.135000", "104714.595000", "104715.055000", "104715.515000", "104715.975000", "104716.435000", "104716.895000", "104717.355000", "104717.815000", "104718.275000", "104718.735000", "104719.195000", "104719.655000", "104720.115000", "104720.575000", "104721.035000", "104721.495000", "104721.955000", "104722.415000", "104722.875000", "104723.335000", "104723.795000", "104724.255000", "104724.715000", "104725.175000", "104725.635000", "104726.095000", "104726.555000", "104727.015000", "104727.475000", "104727.935000", "104728.395000", "104728.855000", "104729.315000", "104729.775000", "104730.235000", "104730.695000", "104731.155000", "104731.615000", "104732.075000", "104732.535000", "104732.995000", "104733.455000", "104733.915000", "104734.375000", "104734.835000", "104735.295000", "104735.755000", "104736.215000", "104736.675000", "104737.135000", "104737.595000", "104738.055000", "104738.515000", "104738.975000", "104739.435000", "104739.895000", "104740.355000", "104740.815000", "104741.275000", "104741.735000", "104742.195000", "104742.655000", "104743.115000", "104743.575000", "104744.035000", "104744.495000", "104744.955000", "104745.415000", "104745.875000", "104746.335000", "104746.795000", "104747.255000", "104747.715000", "104748.175000", "104748.635000", "104749.095000", "104749.555000", "104750.015000", "104750.475000", "104750.935000", "104751.395000", "104751.855000", "104752.315000", "104752.775000", "104753.235000", "104753.695000", "104754.155000", "104754.615000", "104755.075000", "104755.535000", "104755.995000", "104756.455000", "104756.915000", "104757.375000", "104757.835000", "104758.295000", "104758.755000", "104759.215000", "104759.675000", "104800.135000", "104800.595000", "104801.055000", "104801.515000", "104801.975000", "104802.435000", "104802.895000", "104803.355000", "104803.815000", "104804.275000", "104804.735000", "104805.195000", "104805.655000", "104806.115000", "104806.575000", "104807.035000", "104807.495000", "104807.955000", "104808.415000", "104808.875000", "104809.335000", "104809.795000", "104810.255000", "104810.715000", "104811.175000", "104811.635000", "104812.095000", "104812.555000", "104813.015000", "104813.475000", "104813.935000", "104814.395000", "104814.855000", "104815.315000", "104815.775000", "104816.235000", "104816.695000", "104817.155000", "104817.615000", "104818.075000", "104818.535000", "104818.995000", "104819.455000", "104819.915000", "104820.375000", "104820.835000", "104821.295000", "104821.755000", "104822.215000", "104822.675000", "104823.135000", "104823.595000", "104824.055000", "104824.515000", "104824.975000", "104825.435000", "104825.895000", "104826.355000", "104826.815000", "104827.275000", "104827.735000", "104828.195000", "104828.655000", "104829.115000", "104829.575000", "104830.035000", "104830.495000", "104830.955000", "104831.415000", "104831.875000", "104832.335000", "104832.795000", "104833.255000", "104833.715000", "104834.175000", "104834.635000", "104835.095000", "104835.555000", "104836.015000", "104836.475000", "104836.935000", "104837.395000", "104837.855000"],
