{
  "AcquisitionMatrixPE": 82,
  "AcquisitionNumber": 1,
  "AcquisitionTime": "11:25:26.895000",
  "BandwidthPerPixelPhaseEncode": 24.888,
  "BaseResolution": 82,
  "BodyPartExamined": "BRAIN",
  "ConsistencyInfo": "N4_VE11E_LATEST_20181129",
  "ConversionSoftware": "dcm2niix",
  "ConversionSoftwareVersion": "v1.0.20201102",
  "DerivedVendorReportedEchoSpacing": 0.00049,
  "DeviceSerialNumber": "66112",
  "DwellTime": 2e-06,
  "EchoTime": 0.0272,
  "EchoTrainLength": 82,
  "EffectiveEchoSpacing": 0.00049,
  "FlipAngle": 44,
  "ImageComments": "Unaliased MB8/PE3",
  "ImageOrientationPatientDICOM": [0.999741, -0.0132129, -0.0185081, 0.0148326, 0.995804, 0.0903034],
  "ImageType": [
    "ORIGINAL",
    "PRIMARY",
    "M",
    "MB",
    "ND",
    "NORM",
    "MOSAIC"
],
  "ImagingFrequency": 123.252,
  "InPlanePhaseEncodingDirectionDICOM": "COL",
  "InstitutionAddress": "Maynard 3,Hanover,NH,US,03755",
  "InstitutionName": "Dartmouth College - PBS",
  "InstitutionalDepartmentName": "Department",
  "MRAcquisitionType": "2D",
  "MagneticFieldStrength": 3,
  "Manufacturer": "Siemens",
  "ManufacturersModelName": "Prisma",
  "Modality": "MR",
  "MultibandAccelerationFactor": 8,
  "PartialFourier": 1,
  "PatientPosition": "HFS",
  "PercentPhaseFOV": 100,
  "PercentSampling": 100,
  "PhaseEncodingDirection": "j-",
  "PhaseEncodingSteps": 82,
  "PhaseResolution": 1,
  "PixelBandwidth": 3050,
  "ProcedureStepDescription": "Wager_Wager^1076_spacetop",
  "ProtocolName": "func_run-02_task-alignvideo_acq-ap-mb8",
  "PulseSequenceDetails": "%CustomerSeq%\\cmrr_mbep2d_bold",
  "ReceiveCoilActiveElements": "HEA;HEP",
  "ReceiveCoilName": "Head_32",
  "ReconMatrixPE": 82,
  "RepetitionTime": 0.46,
  "SAR": 0.0916865,
  "ScanOptions": "FS",
  "ScanningSequence": "EP",
  "SequenceName": "epfid2d1_82",
  "SequenceVariant": "SK\\SS",
  "SeriesDescription": "func_run-02_task-alignvideo_acq-ap-mb8",
  "SeriesNumber": 28,
  "ShimSetting": [4161, -7750, -7290, 482, -44, -148, 24, -2],
  "SliceThickness": 2.7,
  "SliceTiming": [0, 0.25, 0.0625, 0.3125, 0.125, 0.3775, 0.1875, 0, 0.25, 0.0625, 0.3125, 0.125, 0.3775, 0.1875, 0, 0.25, 0.0625, 0.3125, 0.125, 0.3775, 0.1875, 0, 0.25, 0.0625, 0.3125, 0.125, 0.3775, 0.1875, 0, 0.25, 0.0625, 0.3125, 0.125, 0.3775, 0.1875, 0, 0.25, 0.0625, 0.3125, 0.125, 0.3775, 0.1875, 0, 0.25, 0.0625, 0.3125, 0.125, 0.3775, 0.1875, 0, 0.25, 0.0625, 0.3125, 0.125, 0.3775, 0.1875],
  "SoftwareVersions": "syngo MR E11",
  "SpacingBetweenSlices": 2.7,
  "StationName": "AWP66112",
  "TaskName": "alignvideo",
  "TotalReadoutTime": 0.03969,
  "TxRefAmp": 244.373,
  "WipMemBlock": "6d0e91cc-bf4b-43ff-b68f-050ad33ba179||Sequence: R016 ve11e/master r/434b28f1; Aug  7 2019 18:53:46 by eja",
  "dcmmeta_affine": [
    [-2.6822330951690674, 0.039794761687517166, -0.04654070734977722, 108.3907241821289],
    [0.03544912114739418, 2.6716690063476562, 0.24449725449085236, -93.33219146728516],
    [-0.04965595155954361, -0.2422773391008377, 2.688504219055176, -71.04967498779297],
    [0.0, 0.0, 0.0, 1.0]
],
  "dcmmeta_reorient_transform": [
    [0.0, -1.0, 0.0, 81.0],
    [1.0, 0.0, 0.0, 0.0],
    [0.0, 0.0, 1.0, 0.0],
    [0.0, 0.0, 0.0, 1.0]
],
  "dcmmeta_shape": [82, 82, 56, 926],
  "dcmmeta_slice_dim": 2,
  "dcmmeta_version": 0.6,
  "global": {
    "const": {
      "AccessionNumber": "A004009",
      "AcquisitionMatrix": [82, 0, 0, 82],
      "AngioFlag": "N",
      "BitsAllocated": 16,
      "BitsStored": 16,
      "BodyPartExamined": "BRAIN",
      "Columns": 656,
      "EchoNumbers": 1,
      "EchoTime": 27.2,
      "EchoTrainLength": 82,
      "FlipAngle": 44.0,
      "HighBit": 15,
      "ImageOrientationPatient": [0.99974140143692, -0.0132128534338, -0.0185081267849, 0.01483259211414, 0.99580384409647, 0.09030336812031],
      "ImagePositionPatient": [-892.83609070683, -879.66807133397, -145.95647861538],
      "ImageType": [
        "ORIGINAL",
        "PRIMARY",
        "M",
        "MB",
        "ND",
        "NORM",
        "MOSAIC"
],
      "ImagedNucleus": "1H",
      "ImagingFrequency": 123.252194,
      "InPlanePhaseEncodingDirection": "COL",
      "MRAcquisitionType": "2D",
      "MagneticFieldStrength": 3.0,
      "Manufacturer": "SIEMENS",
      "ManufacturerModelName": "Prisma",
      "Modality": "MR",
      "NumberOfAverages": 1.0,
      "NumberOfPhaseEncodingSteps": 82,
      "PercentPhaseFieldOfView": 100.0,
      "PercentSampling": 100.0,
      "PerformedProcedureStepStartTime": "094144.550000",
      "PhotometricInterpretation": "MONOCHROME2",
      "PixelBandwidth": 3050.0,
      "PixelRepresentation": 0,
      "PixelSpacing": [2.6829268932343, 2.6829268932343],
      "ProtocolName": "func_run-02_task-alignvideo_acq-ap-mb8",
      "RepetitionTime": 460.0,
      "Rows": 656,
      "SAR": 0.09168651018249,
      "SamplesPerPixel": 1,
      "ScanOptions": "FS",
      "ScanningSequence": "EP",
      "SequenceName": "epfid2d1_82",
      "SequenceVariant": [
        "SK",
        "SS"
],
      "SeriesDescription": "func_run-02_task-alignvideo_acq-ap-mb8",
      "SeriesNumber": 28,
      "SeriesTime": "112552.641000",
      "SliceLocation": -81.06718679076,
      "SliceThickness": 2.7000000476837,
      "SmallestImagePixelValue": 0,
      "SoftwareVersions": "syngo MR E11",
      "SpacingBetweenSlices": 2.7000000636522,
      "SpecificCharacterSet": "ISO_IR 100",
      "StudyID": "1",
      "StudyTime": "094144.425000",
      "TransmitCoilName": "Body",
      "VariableFlipAngleFlag": "N",
      "WindowCenterWidthExplanation": "Algo1"
    },
    "slices": {}
  },
  "time": {
    "samples": {
      "AcquisitionNumber": [1, 2, 3, 4, 5, 6, 7, 8, 9, 10, 11, 12, 13, 14, 15, 16, 17, 18, 19, 20, 21, 22, 23, 24, 25, 26, 27, 28, 29, 30, 31, 32, 33, 34, 35, 36, 37, 38, 39, 40, 41, 42, 43, 44, 45, 46, 47, 48, 49, 50, 51, 52, 53, 54, 55, 56, 57, 58, 59, 60, 61, 62, 63, 64, 65, 66, 67, 68, 69, 70, 71, 72, 73, 74, 75, 76, 77, 78, 79, 80, 81, 82, 83, 84, 85, 86, 87, 88, 89, 90, 91, 92, 93, 94, 95, 96, 97, 98, 99, 100, 101, 102, 103, 104, 105, 106, 107, 108, 109, 110, 111, 112, 113, 114, 115, 116, 117, 118, 119, 120, 121, 122, 123, 124, 125, 126, 127, 128, 129, 130, 131, 132, 133, 134, 135, 136, 137, 138, 139, 140, 141, 142, 143, 144, 145, 146, 147, 148, 149, 150, 151, 152, 153, 154, 155, 156, 157, 158, 159, 160, 161, 162, 163, 164, 165, 166, 167, 168, 169, 170, 171, 172, 173, 174, 175, 176, 177, 178, 179, 180, 181, 182, 183, 184, 185, 186, 187, 188, 189, 190, 191, 192, 193, 194, 195, 196, 197, 198, 199, 200, 201, 202, 203, 204, 205, 206, 207, 208, 209, 210, 211, 212, 213, 214, 215, 216, 217, 218, 219, 220, 221, 222, 223, 224, 225, 226, 227, 228, 229, 230, 231, 232, 233, 234, 235, 236, 237, 238, 239, 240, 241, 242, 243, 244, 245, 246, 247, 248, 249, 250, 251, 252, 253, 254, 255, 256, 257, 258, 259, 260, 261, 262, 263, 264, 265, 266, 267, 268, 269, 270, 271, 272, 273, 274, 275, 276, 277, 278, 279, 280, 281, 282, 283, 284, 285, 286, 287, 288, 289, 290, 291, 292, 293, 294, 295, 296, 297, 298, 299, 300, 301, 302, 303, 304, 305, 306, 307, 308, 309, 310, 311, 312, 313, 314, 315, 316, 317, 318, 319, 320, 321, 322, 323, 324, 325, 326, 327, 328, 329, 330, 331, 332, 333, 334, 335, 336, 337, 338, 339, 340, 341, 342, 343, 344, 345, 346, 347, 348, 349, 350, 351, 352, 353, 354, 355, 356, 357, 358, 359, 360, 361, 362, 363, 364, 365, 366, 367, 368, 369, 370, 371, 372, 373, 374, 375, 376, 377, 378, 379, 380, 381, 382, 383, 384, 385, 386, 387, 388, 389, 390, 391, 392, 393, 394, 395, 396, 397, 398, 399, 400, 401, 402, 403, 404, 405, 406, 407, 408, 409, 410, 411, 412, 413, 414, 415, 416, 417, 418, 419, 420, 421, 422, 423, 424, 425, 426, 427, 428, 429, 430, 431, 432, 433, 434, 435, 436, 437, 438, 439, 440, 441, 442, 443, 444, 445, 446, 447, 448, 449, 450, 451, 452, 453, 454, 455, 456, 457, 458, 459, 460, 461, 462, 463, 464, 465, 466, 467, 468, 469, 470, 471, 472, 473, 474, 475, 476, 477, 478, 479, 480, 481, 482, 483, 484, 485, 486, 487, 488, 489, 490, 491, 492, 493, 494, 495, 496, 497, 498, 499, 500, 501, 502, 503, 504, 505, 506, 507, 508, 509, 510, 511, 512, 513, 514, 515, 516, 517, 518, 519, 520, 521, 522, 523, 524, 525, 526, 527, 528, 529, 530, 531, 532, 533, 534, 535, 536, 537, 538, 539, 540, 541, 542, 543, 544, 545, 546, 547, 548, 549, 550, 551, 552, 553, 554, 555, 556, 557, 558, 559, 560, 561, 562, 563, 564, 565, 566, 567, 568, 569, 570, 571, 572, 573, 574, 575, 576, 577, 578, 579, 580, 581, 582, 583, 584, 585, 586, 587, 588, 589, 590, 591, 592, 593, 594, 595, 596, 597, 598, 599, 600, 601, 602, 603, 604, 605, 606, 607, 608, 609, 610, 611, 612, 613, 614, 615, 616, 617, 618, 619, 620, 621, 622, 623, 624, 625, 626, 627, 628, 629, 630, 631, 632, 633, 634, 635, 636, 637, 638, 639, 640, 641, 642, 643, 644, 645, 646, 647, 648, 649, 650, 651, 652, 653, 654, 655, 656, 657, 658, 659, 660, 661, 662, 663, 664, 665, 666, 667, 668, 669, 670, 671, 672, 673, 674, 675, 676, 677, 678, 679, 680, 681, 682, 683, 684, 685, 686, 687, 688, 689, 690, 691, 692, 693, 694, 695, 696, 697, 698, 699, 700, 701, 702, 703, 704, 705, 706, 707, 708, 709, 710, 711, 712, 713, 714, 715, 716, 717, 718, 719, 720, 721, 722, 723, 724, 725, 726, 727, 728, 729, 730, 731, 732, 733, 734, 735, 736, 737, 738, 739, 740, 741, 742, 743, 744, 745, 746, 747, 748, 749, 750, 751, 752, 753, 754, 755, 756, 757, 758, 759, 760, 761, 762, 763, 764, 765, 766, 767, 768, 769, 770, 771, 772, 773, 774, 775, 776, 777, 778, 779, 780, 781, 782, 783, 784, 785, 786, 787, 788, 789, 790, 791, 792, 793, 794, 795, 796, 797, 798, 799, 800, 801, 802, 803, 804, 805, 806, 807, 808, 809, 810, 811, 812, 813, 814, 815, 816, 817, 818, 819, 820, 821, 822, 823, 824, 825, 826, 827, 828, 829, 830, 831, 832, 833, 834, 835, 836, 837, 838, 839, 840, 841, 842, 843, 844, 845, 846, 847, 848, 849, 850, 851, 852, 853, 854, 855, 856, 857, 858, 859, 860, 861, 862, 863, 864, 865, 866, 867, 868, 869, 870, 871, 872, 873, 874, 875, 876, 877, 878, 879, 880, 881, 882, 883, 884, 885, 886, 887, 888, 889, 890, 891, 892, 893, 894, 895, 896, 897, 898, 899, 900, 901, 902, 903, 904, 905, 906, 907, 908, 909, 910, 911, 912, 913, 914, 915, 916, 917, 918, 919, 920, 921, 922, 923, 924, 925, 926],
      "AcquisitionTime": ["112526.895000", "112527.355000", "112527.815000", "112528.275000", "112528.735000", "112529.195000", "112529.655000", "112530.115000", "112530.575000", "112531.035000", "112531.495000", "112531.955000", "112532.415000", "112532.875000", "112533.335000", "112533.795000", "112534.255000", "112534.715000", "112535.175000", "112535.635000", "112536.095000", "112536.555000", "112537.015000", "112537.475000", "112537.935000", "112538.395000", "112538.855000", "112539.315000", "112539.775000", "112540.235000", "112540.695000", "112541.155000", "112541.615000", "112542.075000", "112542.535000", "112542.995000", "112543.455000", "112543.915000", "112544.375000", "112544.835000", "112545.295000", "112545.755000", "112546.215000", "112546.675000", "112547.135000", "112547.595000", "112548.055000", "112548.515000", "112548.975000", "112549.435000", "112549.895000", "112550.355000", "112550.815000", "112551.275000", "112551.735000", "112552.195000", "112552.655000", "112553.115000", "112553.575000", "112554.035000", "112554.495000", "112554.955000", "112555.415000", "112555.875000", "112556.335000", "112556.795000", "112557.255000", "112557.715000", "112558.175000", "112558.635000", "112559.095000", "112559.555000", "112600.015000", "112600.475000", "112600.935000", "112601.395000", "112601.855000", "112602.315000", "112602.775000", "112603.235000", "112603.695000", "112604.155000", "112604.615000", "112605.075000", "112605.535000", "112605.995000", "112606.455000", "112606.915000", "112607.375000", "112607.835000", "112608.295000", "112608.755000", "112609.215000", "112609.675000", "112610.135000", "112610.595000", "112611.055000", "112611.515000", "112611.975000", "112612.435000", "112612.895000", "112613.355000", "112613.815000", "112614.275000", "112614.735000", "112615.195000", "112615.655000", "112616.115000", "112616.575000", "112617.035000", "112617.495000", "112617.955000", "112618.415000", "112618.875000", "112619.335000", "112619.795000", "112620.255000", "112620.715000", "112621.175000", "112621.635000", "112622.095000", "112622.555000", "112623.015000", "112623.475000", "112623.935000", "112624.395000", "112624.855000", "112625.315000", "112625.775000", "112626.235000", "112626.695000", "112627.155000", "112627.615000", "112628.075000", "112628.535000", "112628.995000", "112629.455000", "112629.915000", "112630.375000", "112630.835000", "112631.295000", "112631.755000", "112632.215000", "112632.675000", "112633.135000", "112633.595000", "112634.055000", "112634.515000", "112634.975000", "112635.435000", "112635.895000", "112636.355000", "112636.815000", "112637.275000", "112637.735000", "112638.195000", "112638.655000", "112639.115000", "112639.575000", "112640.035000", "112640.495000", "112640.955000", "112641.415000", "112641.875000", "112642.335000", "112642.795000", "112643.255000", "112643.715000", "112644.175000", "112644.635000", "112645.095000", "112645.555000", "112646.015000", "112646.475000", "112646.935000", "112647.395000", "112647.855000", "112648.315000", "112648.775000", "112649.235000", "112649.695000", "112650.155000", "112650.615000", "112651.075000", "112651.535000", "112651.995000", "112652.455000", "112652.915000", "112653.375000", "112653.835000", "112654.295000", "112654.755000", "112655.215000", "112655.675000", "112656.135000", "112656.595000", "112657.055000", "112657.515000", "112657.975000", "112658.435000", "112658.895000", "112659.355000", "112659.815000", "112700.275000", "112700.735000", "112701.195000", "112701.655000", "112702.115000", "112702.575000", "112703.035000", "112703.495000", "112703.955000", "112704.415000", "112704.875000", "112705.335000", "112705.795000", "112706.255000", "112706.715000", "112707.175000", "112707.635000", "112708.095000", "112708.555000", "112709.015000", "112709.475000", "112709.935000", "112710.395000", "112710.855000", "112711.315000", "112711.775000", "112712.235000", "112712.695000", "112713.155000", "112713.615000", "112714.075000", "112714.535000", "112714.995000", "112715.455000", "112715.915000", "112716.375000", "112716.835000", "112717.295000", "112717.755000", "112718.215000", "112718.675000", "112719.135000", "112719.595000", "112720.055000", "112720.515000", "112720.975000", "112721.435000", "112721.895000", "112722.355000", "112722.815000", "112723.275000", "112723.735000", "112724.195000", "112724.655000", "112725.115000", "112725.575000", "112726.035000", "112726.495000", "112726.955000", "112727.415000", "112727.875000", "112728.335000", "112728.795000", "112729.255000", "112729.715000", "112730.175000", "112730.635000", "112731.095000", "112731.555000", "112732.015000", "112732.475000", "112732.935000", "112733.395000", "112733.855000", "112734.315000", "112734.775000", "112735.235000", "112735.695000", "112736.155000", "112736.615000", "112737.075000", "112737.535000", "112737.995000", "112738.455000", "112738.915000", "112739.375000", "112739.835000", "112740.295000", "112740.755000", "112741.215000", "112741.675000", "112742.135000", "112742.595000", "112743.055000", "112743.515000", "112743.975000", "112744.435000", "112744.895000", "112745.355000", "112745.815000", "112746.275000", "112746.735000", "112747.195000", "112747.655000", "112748.115000", "112748.575000", "112749.035000", "112749.495000", "112749.955000", "112750.415000", "112750.875000", "112751.335000", "112751.795000", "112752.255000", "112752.715000", "112753.175000", "112753.635000", "112754.095000", "112754.555000", "112755.015000", "112755.475000", "112755.935000", "112756.395000", "112756.855000", "112757.315000", "112757.775000", "112758.235000", "112758.695000", "112759.155000", "112759.615000", "112800.075000", "112800.535000", "112800.995000", "112801.455000", "112801.915000", "112802.375000", "112802.835000", "112803.295000", "112803.755000", "112804.215000", "112804.675000", "112805.135000", "112805.595000", "112806.055000", "112806.515000", "112806.975000", "112807.435000", "112807.895000", "112808.355000", "112808.815000", "112809.275000", "112809.735000", "112810.195000", "112810.655000", "112811.115000", "112811.575000", "112812.035000", "112812.495000", "112812.955000", "112813.415000", "112813.875000", "112814.335000", "112814.795000", "112815.255000", "112815.715000", "112816.175000", "112816.635000", "112817.095000", "112817.555000", "112818.015000", "112818.475000", "112818.935000", "112819.395000", "112819.855000", "112820.315000", "112820.775000", "112821.235000", "112821.695000", "112822.155000", "112822.615000", "112823.075000", "112823.535000", "112823.995000", "112824.455000", "112824.915000", "112825.375000", "112825.835000", "112826.295000", "112826.755000", "112827.215000", "112827.675000", "112828.135000", "112828.595000", "112829.055000", "112829.515000", "112829.975000", "112830.435000", "112830.895000", "112831.355000", "112831.815000", "112832.275000", "112832.735000", "112833.195000", "112833.655000", "112834.115000", "112834.575000", "112835.035000", "112835.495000", "112835.955000", "112836.415000", "112836.875000", "112837.335000", "112837.795000", "112838.255000", "112838.715000", "112839.175000", "112839.635000", "112840.095000", "112840.555000", "112841.015000", "112841.475000", "112841.935000", "112842.395000", "112842.855000", "112843.315000", "112843.775000", "112844.235000", "112844.695000", "112845.155000", "112845.615000", "112846.075000", "112846.535000", "112846.995000", "112847.455000", "112847.915000", "112848.375000", "112848.835000", "112849.295000", "112849.755000", "112850.215000", "112850.675000", "112851.135000", "112851.595000", "112852.055000", "112852.515000", "112852.975000", "112853.435000", "112853.895000", "112854.355000", "112854.815000", "112855.275000", "112855.735000", "112856.195000", "112856.655000", "112857.115000", "112857.575000", "112858.035000", "112858.495000", "112858.955000", "112859.415000", "112859.875000", "112900.335000", "112900.795000", "112901.255000", "112901.715000", "112902.175000", "112902.635000", "112903.095000", "112903.555000", "112904.015000", "112904.475000", "112904.935000", "112905.395000", "112905.855000", "112906.315000", "112906.775000", "112907.235000", "112907.695000", "112908.155000", "112908.615000", "112909.075000", "112909.535000", "112909.995000", "112910.455000", "112910.915000", "112911.375000", "112911.835000", "112912.295000", "112912.755000", "112913.215000", "112913.675000", "112914.135000", "112914.595000", "112915.055000", "112915.515000", "112915.975000", "112916.435000", "112916.895000", "112917.355000", "112917.815000", "112918.275000", "112918.735000", "112919.195000", "112919.655000", "112920.115000", "112920.575000", "112921.035000", "112921.495000", "112921.955000", "112922.415000", "112922.875000", "112923.335000", "112923.795000", "112924.255000", "112924.715000", "112925.175000", "112925.635000", "112926.095000", "112926.555000", "112927.015000", "112927.475000", "112927.935000", "112928.395000", "112928.855000", "112929.315000", "112929.775000", "112930.235000", "112930.695000", "112931.155000", "112931.615000", "112932.075000", "112932.535000", "112932.995000", "112933.455000", "112933.915000", "112934.375000", "112934.835000", "112935.295000", "112935.755000", "112936.215000", "112936.675000", "112937.135000", "112937.595000", "112938.055000", "112938.515000", "112938.975000", "112939.435000", "112939.895000", "112940.355000", "112940.815000", "112941.275000", "112941.735000", "112942.195000", "112942.655000", "112943.115000", "112943.575000", "112944.035000", "112944.495000", "112944.955000", "112945.415000", "112945.875000", "112946.335000", "112946.795000", "112947.255000", "112947.715000", "112948.175000", "112948.635000", "112949.095000", "112949.555000", "112950.015000", "112950.475000", "112950.935000", "112951.395000", "112951.855000", "112952.315000", "112952.775000", "112953.235000", "112953.695000", "112954.155000", "112954.615000", "112955.075000", "112955.535000", "112955.995000", "112956.455000", "112956.915000", "112957.375000", "112957.835000", "112958.295000", "112958.755000", "112959.215000", "112959.675000", "113000.135000", "113000.595000", "113001.055000", "113001.515000", "113001.975000", "113002.435000", "113002.895000", "113003.355000", "113003.815000", "113004.275000", "113004.735000", "113005.195000", "113005.655000", "113006.115000", "113006.575000", "113007.035000", "113007.495000", "113007.955000", "113008.415000", "113008.875000", "113009.335000", "113009.795000", "113010.255000", "113010.715000", "113011.175000", "113011.635000", "113012.095000", "113012.555000", "113013.015000", "113013.475000", "113013.935000", "113014.395000", "113014.855000", "113015.315000", "113015.775000", "113016.235000", "113016.695000", "113017.155000", "113017.615000", "113018.075000", "113018.535000", "113018.995000", "113019.455000", "113019.915000", "113020.375000", "113020.835000", "113021.295000", "113021.755000", "113022.215000", "113022.675000", "113023.135000", "113023.595000", "113024.055000", "113024.515000", "113024.975000", "113025.435000", "113025.895000", "113026.355000", "113026.815000", "113027.275000", "113027.735000", "113028.195000", "113028.655000", "113029.115000", "113029.575000", "113030.035000", "113030.495000", "113030.955000", "113031.415000", "113031.875000", "113032.335000", "113032.795000", "113033.255000", "113033.715000", "113034.175000", "113034.635000", "113035.095000", "113035.555000", "113036.015000", "113036.475000", "113036.935000", "113037.395000", "113037.855000", "113038.315000", "113038.775000", "113039.235000", "113039.695000", "113040.155000", "113040.615000", "113041.075000", "113041.535000", "113041.995000", "113042.455000", "113042.915000", "113043.375000", "113043.835000", "113044.295000", "113044.755000", "113045.215000", "113045.675000", "113046.135000", "113046.595000", "113047.055000", "113047.515000", "113047.975000", "113048.435000", "113048.895000", "113049.355000", "113049.815000", "113050.275000", "113050.735000", "113051.195000", "113051.655000", "113052.115000", "113052.575000", "113053.035000", "113053.495000", "113053.955000", "113054.415000", "113054.875000", "113055.335000", "113055.795000", "113056.255000", "113056.715000", "113057.175000", "113057.635000", "113058.095000", "113058.555000", "113059.015000", "113059.475000", "113059.935000", "113100.395000", "113100.855000", "113101.315000", "113101.775000", "113102.235000", "113102.695000", "113103.155000", "113103.615000", "113104.075000", "113104.535000", "113104.995000", "113105.455000", "113105.915000", "113106.375000", "113106.835000", "113107.295000", "113107.755000", "113108.215000", "113108.675000", "113109.135000", "113109.595000", "113110.055000", "113110.515000", "113110.975000", "113111.435000", "113111.895000", "113112.355000", "113112.815000", "113113.275000", "113113.735000", "113114.195000", "113114.655000", "113115.115000", "113115.575000", "113116.035000", "113116.495000", "113116.955000", "113117.415000", "113117.875000", "113118.335000", "113118.795000", "113119.255000", "113119.715000", "113120.175000", "113120.635000", "113121.095000", "113121.555000", "113122.015000", "113122.475000", "113122.935000", "113123.395000", "113123.855000", "113124.315000", "113124.775000", "113125.235000", "113125.695000", "113126.155000", "113126.615000", "113127.075000", "113127.535000", "113127.995000", "113128.455000", "113128.915000", "113129.375000", "113129.835000", "113130.295000", "113130.755000", "113131.215000", "113131.675000", "113132.135000", "113132.595000", "113133.055000", "113133.515000", "113133.975000", "113134.435000", "113134.895000", "113135.355000", "113135.815000", "113136.275000", "113136.735000", "113137.195000", "113137.655000", "113138.115000", "113138.575000", "113139.035000", "113139.495000", "113139.955000", "113140.415000", "113140.875000", "113141.335000", "113141.795000", "113142.255000", "113142.715000", "113143.175000", "113143.635000", "113144.095000", "113144.555000", "113145.015000", "113145.475000", "113145.935000", "113146.395000", "113146.855000", "113147.315000", "113147.775000", "113148.235000", "113148.695000", "113149.155000", "113149.615000", "113150.075000", "113150.535000", "113150.995000", "113151.455000", "113151.915000", "113152.375000", "113152.835000", "113153.295000", "113153.755000", "113154.215000", "113154.675000", "113155.135000", "113155.595000", "113156.055000", "113156.515000", "113156.975000", "113157.435000", "113157.895000", "113158.355000", "113158.815000", "113159.275000", "113159.735000", "113200.195000", "113200.655000", "113201.115000", "113201.575000", "113202.035000", "113202.495000", "113202.955000", "113203.415000", "113203.875000", "113204.335000", "113204.795000", "113205.255000", "113205.715000", "113206.175000", "113206.635000", "113207.095000", "113207.555000", "113208.015000", "113208.475000", "113208.935000", "113209.395000", "113209.855000", "113210.315000", "113210.775000", "113211.235000", "113211.695000", "113212.155000", "113212.615000", "113213.075000", "113213.535000", "113213.995000", "113214.455000", "113214.915000", "113215.375000", "113215.835000", "113216.295000", "113216.755000", "113217.215000", "113217.675000", "113218.135000", "113218.595000", "113219.055000", "113219.515000", "113219.975000", "113220.435000", "113220.895000", "113221.355000", "113221.815000", "113222.275000", "113222.735000", "113223.195000", "113223.655000", "113224.115000", "113224.575000", "113225.035000", "113225.495000", "113225.955000", "113226.415000", "113226.875000", "113227.335000", "113227.795000", "113228.255000", "113228.715000", "113229.175000", "113229.635000", "113230.095000", "113230.555000", "113231.015000", "113231.475000", "113231.935000", "113232.395000"],
