{
  "AcquisitionMatrixPE": 82,
  "AcquisitionNumber": 1,
  "AcquisitionTime": "11:05:48.937500",
  "BandwidthPerPixelPhaseEncode": 24.888,
  "BaseResolution": 82,
  "BodyPartExamined": "BRAIN",
  "ConsistencyInfo": "N4_VE11E_LATEST_20181129",
  "ConversionSoftware": "dcm2niix",
  "ConversionSoftwareVersion": "v1.0.20201102",
  "DerivedVendorReportedEchoSpacing": 0.00049,
  "DeviceSerialNumber": "66112",
  "DwellTime": 2e-06,
  "EchoTime": 0.0272,
  "EchoTrainLength": 82,
  "EffectiveEchoSpacing": 0.00049,
  "FlipAngle": 44,
  "ImageComments": "Unaliased MB8/PE3",
  "ImageOrientationPatientDICOM": [0.999874, -0.0058623, 0.0147813, 0.00383928, 0.991061, 0.133351],
  "ImageType": [
    "ORIGINAL",
    "PRIMARY",
    "M",
    "MB",
    "ND",
    "NORM",
    "MOSAIC"
],
  "ImagingFrequency": 123.252,
  "InPlanePhaseEncodingDirectionDICOM": "COL",
  "InstitutionAddress": "Maynard 3,Hanover,NH,US,03755",
  "InstitutionName": "Dartmouth College - PBS",
  "InstitutionalDepartmentName": "Department",
  "MRAcquisitionType": "2D",
  "MagneticFieldStrength": 3,
  "Manufacturer": "Siemens",
  "ManufacturersModelName": "Prisma",
  "Modality": "MR",
  "MultibandAccelerationFactor": 8,
  "PartialFourier": 1,
  "PatientPosition": "HFS",
  "PercentPhaseFOV": 100,
  "PercentSampling": 100,
  "PhaseEncodingDirection": "j-",
  "PhaseEncodingSteps": 82,
  "PhaseResolution": 1,
  "PixelBandwidth": 3050,
  "ProcedureStepDescription": "Wager_Wager^1076_spacetop",
  "ProtocolName": "func_run-06_task-social_acq-ap-mb8",
  "PulseSequenceDetails": "%CustomerSeq%\\cmrr_mbep2d_bold",
  "ReceiveCoilActiveElements": "HEA;HEP",
  "ReceiveCoilName": "Head_32",
  "ReconMatrixPE": 82,
  "RepetitionTime": 0.46,
  "SAR": 0.0916533,
  "ScanOptions": "FS",
  "ScanningSequence": "EP",
  "SequenceName": "epfid2d1_82",
  "SequenceVariant": "SK\\SS",
  "SeriesDescription": "func_run-06_task-social_acq-ap-mb8",
  "SeriesNumber": 18,
  "ShimSetting": [4161, -7749, -7292, 473, -39, -148, 24, 0],
  "SliceThickness": 2.7,
  "SliceTiming": [0, 0.2525, 0.065, 0.315, 0.1275, 0.3775, 0.19, 0, 0.2525, 0.065, 0.315, 0.1275, 0.3775, 0.19, 0, 0.2525, 0.065, 0.315, 0.1275, 0.3775, 0.19, 0, 0.2525, 0.065, 0.315, 0.1275, 0.3775, 0.19, 0, 0.2525, 0.065, 0.315, 0.1275, 0.3775, 0.19, 0, 0.2525, 0.065, 0.315, 0.1275, 0.3775, 0.19, 0, 0.2525, 0.065, 0.315, 0.1275, 0.3775, 0.19, 0, 0.2525, 0.065, 0.315, 0.1275, 0.3775, 0.19],
  "SoftwareVersions": "syngo MR E11",
  "SpacingBetweenSlices": 2.7,
  "StationName": "AWP66112",
  "TaskName": "social",
  "TotalReadoutTime": 0.03969,
  "TxRefAmp": 244.373,
  "WipMemBlock": "96f69ac7-67a0-4e50-9b93-c8f250e3f8a7||Sequence: R016 ve11e/master r/434b28f1; Aug  7 2019 18:53:46 by eja",
  "dcmmeta_affine": [
    [-2.6825876235961914, 0.010300515219569206, 0.041663557291030884, 108.13566589355469],
    [0.015728123486042023, 2.6589455604553223, 0.3598484396934509, -94.39238739013672],
    [0.03965722396969795, -0.35777047276496887, 2.675588369369507, -70.34264373779297],
    [0.0, 0.0, 0.0, 1.0]
],
  "dcmmeta_reorient_transform": [
    [0.0, -1.0, 0.0, 81.0],
    [1.0, 0.0, 0.0, 0.0],
    [0.0, 0.0, 1.0, 0.0],
    [0.0, 0.0, 0.0, 1.0]
],
  "dcmmeta_shape": [82, 82, 56, 872],
  "dcmmeta_slice_dim": 2,
  "dcmmeta_version": 0.6,
  "global": {
    "const": {
      "AccessionNumber": "A004009",
      "AcquisitionMatrix": [82, 0, 0, 82],
      "AngioFlag": "N",
      "BitsAllocated": 16,
      "BitsStored": 16,
      "BodyPartExamined": "BRAIN",
      "Columns": 656,
      "EchoNumbers": 1,
      "EchoTime": 27.2,
      "EchoTrainLength": 82,
      "FlipAngle": 44.0,
      "HighBit": 15,
      "ImageOrientationPatient": [0.99987356488678, -0.005862300091, 0.01478132870391, 0.00383928290037, 0.99106146141524, 0.13335081403687],
      "ImagePositionPatient": [-881.82891921348, -879.58556744096, -213.38380794589],
      "ImageType": [
        "ORIGINAL",
        "PRIMARY",
        "M",
        "MB",
        "ND",
        "NORM",
        "MOSAIC"
],
      "ImagedNucleus": "1H",
      "ImagingFrequency": 123.25219,
      "InPlanePhaseEncodingDirection": "COL",
      "MRAcquisitionType": "2D",
      "MagneticFieldStrength": 3.0,
      "Manufacturer": "SIEMENS",
      "ManufacturerModelName": "Prisma",
      "Modality": "MR",
      "NumberOfAverages": 1.0,
      "NumberOfPhaseEncodingSteps": 82,
      "PercentPhaseFieldOfView": 100.0,
      "PercentSampling": 100.0,
      "PerformedProcedureStepStartTime": "094144.550000",
      "PhotometricInterpretation": "MONOCHROME2",
      "PixelBandwidth": 3050.0,
      "PixelRepresentation": 0,
      "PixelSpacing": [2.6829268932343, 2.6829268932343],
      "ProtocolName": "func_run-06_task-social_acq-ap-mb8",
      "RepetitionTime": 460.0,
      "Rows": 656,
      "SAR": 0.09165330883595,
      "SamplesPerPixel": 1,
      "ScanOptions": "FS",
      "ScanningSequence": "EP",
      "SequenceName": "epfid2d1_82",
      "SequenceVariant": [
        "SK",
        "SS"
],
      "SeriesDescription": "func_run-06_task-social_acq-ap-mb8",
      "SeriesNumber": 18,
      "SeriesTime": "110612.623000",
      "SliceLocation": -80.618371979168,
      "SliceThickness": 2.7000000476837,
      "SmallestImagePixelValue": 0,
      "SoftwareVersions": "syngo MR E11",
      "SpacingBetweenSlices": 2.6999999081503,
      "SpecificCharacterSet": "ISO_IR 100",
      "StudyID": "1",
      "StudyTime": "094144.425000",
      "TransmitCoilName": "Body",
      "VariableFlipAngleFlag": "N",
      "WindowCenterWidthExplanation": "Algo1"
    },
    "slices": {}
  },
  "time": {
    "samples": {
      "AcquisitionNumber": [1, 2, 3, 4, 5, 6, 7, 8, 9, 10, 11, 12, 13, 14, 15, 16, 17, 18, 19, 20, 21, 22, 23, 24, 25, 26, 27, 28, 29, 30, 31, 32, 33, 34, 35, 36, 37, 38, 39, 40, 41, 42, 43, 44, 45, 46, 47, 48, 49, 50, 51, 52, 53, 54, 55, 56, 57, 58, 59, 60, 61, 62, 63, 64, 65, 66, 67, 68, 69, 70, 71, 72, 73, 74, 75, 76, 77, 78, 79, 80, 81, 82, 83, 84, 85, 86, 87, 88, 89, 90, 91, 92, 93, 94, 95, 96, 97, 98, 99, 100, 101, 102, 103, 104, 105, 106, 107, 108, 109, 110, 111, 112, 113, 114, 115, 116, 117, 118, 119, 120, 121, 122, 123, 124, 125, 126, 127, 128, 129, 130, 131, 132, 133, 134, 135, 136, 137, 138, 139, 140, 141, 142, 143, 144, 145, 146, 147, 148, 149, 150, 151, 152, 153, 154, 155, 156, 157, 158, 159, 160, 161, 162, 163, 164, 165, 166, 167, 168, 169, 170, 171, 172, 173, 174, 175, 176, 177, 178, 179, 180, 181, 182, 183, 184, 185, 186, 187, 188, 189, 190, 191, 192, 193, 194, 195, 196, 197, 198, 199, 200, 201, 202, 203, 204, 205, 206, 207, 208, 209, 210, 211, 212, 213, 214, 215, 216, 217, 218, 219, 220, 221, 222, 223, 224, 225, 226, 227, 228, 229, 230, 231, 232, 233, 234, 235, 236, 237, 238, 239, 240, 241, 242, 243, 244, 245, 246, 247, 248, 249, 250, 251, 252, 253, 254, 255, 256, 257, 258, 259, 260, 261, 262, 263, 264, 265, 266, 267, 268, 269, 270, 271, 272, 273, 274, 275, 276, 277, 278, 279, 280, 281, 282, 283, 284, 285, 286, 287, 288, 289, 290, 291, 292, 293, 294, 295, 296, 297, 298, 299, 300, 301, 302, 303, 304, 305, 306, 307, 308, 309, 310, 311, 312, 313, 314, 315, 316, 317, 318, 319, 320, 321, 322, 323, 324, 325, 326, 327, 328, 329, 330, 331, 332, 333, 334, 335, 336, 337, 338, 339, 340, 341, 342, 343, 344, 345, 346, 347, 348, 349, 350, 351, 352, 353, 354, 355, 356, 357, 358, 359, 360, 361, 362, 363, 364, 365, 366, 367, 368, 369, 370, 371, 372, 373, 374, 375, 376, 377, 378, 379, 380, 381, 382, 383, 384, 385, 386, 387, 388, 389, 390, 391, 392, 393, 394, 395, 396, 397, 398, 399, 400, 401, 402, 403, 404, 405, 406, 407, 408, 409, 410, 411, 412, 413, 414, 415, 416, 417, 418, 419, 420, 421, 422, 423, 424, 425, 426, 427, 428, 429, 430, 431, 432, 433, 434, 435, 436, 437, 438, 439, 440, 441, 442, 443, 444, 445, 446, 447, 448, 449, 450, 451, 452, 453, 454, 455, 456, 457, 458, 459, 460, 461, 462, 463, 464, 465, 466, 467, 468, 469, 470, 471, 472, 473, 474, 475, 476, 477, 478, 479, 480, 481, 482, 483, 484, 485, 486, 487, 488, 489, 490, 491, 492, 493, 494, 495, 496, 497, 498, 499, 500, 501, 502, 503, 504, 505, 506, 507, 508, 509, 510, 511, 512, 513, 514, 515, 516, 517, 518, 519, 520, 521, 522, 523, 524, 525, 526, 527, 528, 529, 530, 531, 532, 533, 534, 535, 536, 537, 538, 539, 540, 541, 542, 543, 544, 545, 546, 547, 548, 549, 550, 551, 552, 553, 554, 555, 556, 557, 558, 559, 560, 561, 562, 563, 564, 565, 566, 567, 568, 569, 570, 571, 572, 573, 574, 575, 576, 577, 578, 579, 580, 581, 582, 583, 584, 585, 586, 587, 588, 589, 590, 591, 592, 593, 594, 595, 596, 597, 598, 599, 600, 601, 602, 603, 604, 605, 606, 607, 608, 609, 610, 611, 612, 613, 614, 615, 616, 617, 618, 619, 620, 621, 622, 623, 624, 625, 626, 627, 628, 629, 630, 631, 632, 633, 634, 635, 636, 637, 638, 639, 640, 641, 642, 643, 644, 645, 646, 647, 648, 649, 650, 651, 652, 653, 654, 655, 656, 657, 658, 659, 660, 661, 662, 663, 664, 665, 666, 667, 668, 669, 670, 671, 672, 673, 674, 675, 676, 677, 678, 679, 680, 681, 682, 683, 684, 685, 686, 687, 688, 689, 690, 691, 692, 693, 694, 695, 696, 697, 698, 699, 700, 701, 702, 703, 704, 705, 706, 707, 708, 709, 710, 711, 712, 713, 714, 715, 716, 717, 718, 719, 720, 721, 722, 723, 724, 725, 726, 727, 728, 729, 730, 731, 732, 733, 734, 735, 736, 737, 738, 739, 740, 741, 742, 743, 744, 745, 746, 747, 748, 749, 750, 751, 752, 753, 754, 755, 756, 757, 758, 759, 760, 761, 762, 763, 764, 765, 766, 767, 768, 769, 770, 771, 772, 773, 774, 775, 776, 777, 778, 779, 780, 781, 782, 783, 784, 785, 786, 787, 788, 789, 790, 791, 792, 793, 794, 795, 796, 797, 798, 799, 800, 801, 802, 803, 804, 805, 806, 807, 808, 809, 810, 811, 812, 813, 814, 815, 816, 817, 818, 819, 820, 821, 822, 823, 824, 825, 826, 827, 828, 829, 830, 831, 832, 833, 834, 835, 836, 837, 838, 839, 840, 841, 842, 843, 844, 845, 846, 847, 848, 849, 850, 851, 852, 853, 854, 855, 856, 857, 858, 859, 860, 861, 862, 863, 864, 865, 866, 867, 868, 869, 870, 871, 872],
      "AcquisitionTime": ["110548.937500", "110549.397500", "110549.857500", "110550.317500", "110550.777500", "110551.237500", "110551.697500", "110552.157500", "110552.617500", "110553.077500", "110553.537500", "110553.997500", "110554.457500", "110554.917500", "110555.377500", "110555.837500", "110556.297500", "110556.757500", "110557.217500", "110557.677500", "110558.137500", "110558.597500", "110559.057500", "110559.517500", "110559.977500", "110600.437500", "110600.897500", "110601.357500", "110601.817500", "110602.277500", "110602.737500", "110603.197500", "110603.657500", "110604.117500", "110604.577500", "110605.037500", "110605.497500", "110605.957500", "110606.417500", "110606.877500", "110607.337500", "110607.797500", "110608.257500", "110608.717500", "110609.177500", "110609.637500", "110610.097500", "110610.557500", "110611.017500", "110611.477500", "110611.937500", "110612.397500", "110612.857500", "110613.317500", "110613.777500", "110614.237500", "110614.697500", "110615.157500", "110615.617500", "110616.077500", "110616.537500", "110616.997500", "110617.457500", "110617.917500", "110618.377500", "110618.837500", "110619.297500", "110619.757500", "110620.217500", "110620.677500", "110621.137500", "110621.597500", "110622.057500", "110622.517500", "110622.977500", "110623.437500", "110623.897500", "110624.357500", "110624.817500", "110625.277500", "110625.737500", "110626.197500", "110626.657500", "110627.117500", "110627.577500", "110628.037500", "110628.497500", "110628.957500", "110629.417500", "110629.877500", "110630.337500", "110630.797500", "110631.257500", "110631.717500", "110632.177500", "110632.637500", "110633.097500", "110633.557500", "110634.017500", "110634.477500", "110634.937500", "110635.397500", "110635.857500", "110636.317500", "110636.777500", "110637.237500", "110637.697500", "110638.157500", "110638.617500", "110639.077500", "110639.537500", "110639.997500", "110640.457500", "110640.917500", "110641.377500", "110641.837500", "110642.297500", "110642.757500", "110643.217500", "110643.677500", "110644.137500", "110644.597500", "110645.057500", "110645.517500", "110645.977500", "110646.437500", "110646.897500", "110647.357500", "110647.817500", "110648.277500", "110648.737500", "110649.197500", "110649.657500", "110650.117500", "110650.577500", "110651.037500", "110651.497500", "110651.957500", "110652.417500", "110652.877500", "110653.337500", "110653.797500", "110654.257500", "110654.717500", "110655.177500", "110655.637500", "110656.097500", "110656.557500", "110657.017500", "110657.477500", "110657.937500", "110658.397500", "110658.857500", "110659.317500", "110659.777500", "110700.237500", "110700.697500", "110701.157500", "110701.617500", "110702.077500", "110702.537500", "110702.997500", "110703.457500", "110703.917500", "110704.377500", "110704.837500", "110705.297500", "110705.757500", "110706.217500", "110706.677500", "110707.137500", "110707.597500", "110708.057500", "110708.517500", "110708.977500", "110709.437500", "110709.897500", "110710.357500", "110710.817500", "110711.277500", "110711.737500", "110712.197500", "110712.657500", "110713.117500", "110713.577500", "110714.037500", "110714.497500", "110714.957500", "110715.417500", "110715.877500", "110716.337500", "110716.797500", "110717.257500", "110717.717500", "110718.177500", "110718.637500", "110719.097500", "110719.557500", "110720.017500", "110720.477500", "110720.937500", "110721.397500", "110721.857500", "110722.317500", "110722.777500", "110723.237500", "110723.697500", "110724.157500", "110724.617500", "110725.077500", "110725.537500", "110725.997500", "110726.457500", "110726.917500", "110727.377500", "110727.837500", "110728.297500", "110728.757500", "110729.217500", "110729.677500", "110730.137500", "110730.597500", "110731.057500", "110731.517500", "110731.977500", "110732.437500", "110732.897500", "110733.357500", "110733.817500", "110734.277500", "110734.737500", "110735.197500", "110735.657500", "110736.117500", "110736.577500", "110737.037500", "110737.497500", "110737.957500", "110738.417500", "110738.877500", "110739.337500", "110739.797500", "110740.257500", "110740.717500", "110741.177500", "110741.637500", "110742.097500", "110742.557500", "110743.017500", "110743.477500", "110743.937500", "110744.397500", "110744.857500", "110745.317500", "110745.777500", "110746.237500", "110746.697500", "110747.157500", "110747.617500", "110748.077500", "110748.537500", "110748.997500", "110749.457500", "110749.917500", "110750.377500", "110750.837500", "110751.297500", "110751.757500", "110752.217500", "110752.677500", "110753.137500", "110753.597500", "110754.057500", "110754.517500", "110754.977500", "110755.437500", "110755.897500", "110756.357500", "110756.817500", "110757.277500", "110757.737500", "110758.197500", "110758.657500", "110759.117500", "110759.577500", "110800.037500", "110800.497500", "110800.957500", "110801.417500", "110801.877500", "110802.337500", "110802.797500", "110803.257500", "110803.717500", "110804.177500", "110804.637500", "110805.097500", "110805.557500", "110806.017500", "110806.477500", "110806.937500", "110807.397500", "110807.857500", "110808.317500", "110808.777500", "110809.237500", "110809.697500", "110810.157500", "110810.617500", "110811.077500", "110811.537500", "110811.997500", "110812.457500", "110812.917500", "110813.377500", "110813.837500", "110814.297500", "110814.757500", "110815.217500", "110815.677500", "110816.137500", "110816.597500", "110817.057500", "110817.517500", "110817.977500", "110818.437500", "110818.897500", "110819.357500", "110819.817500", "110820.277500", "110820.737500", "110821.197500", "110821.657500", "110822.117500", "110822.577500", "110823.037500", "110823.497500", "110823.957500", "110824.417500", "110824.877500", "110825.337500", "110825.797500", "110826.257500", "110826.717500", "110827.177500", "110827.637500", "110828.097500", "110828.557500", "110829.017500", "110829.477500", "110829.937500", "110830.397500", "110830.857500", "110831.317500", "110831.777500", "110832.237500", "110832.697500", "110833.157500", "110833.617500", "110834.077500", "110834.537500", "110834.997500", "110835.457500", "110835.917500", "110836.377500", "110836.837500", "110837.297500", "110837.757500", "110838.217500", "110838.677500", "110839.137500", "110839.597500", "110840.057500", "110840.517500", "110840.977500", "110841.437500", "110841.897500", "110842.357500", "110842.817500", "110843.277500", "110843.737500", "110844.197500", "110844.657500", "110845.117500", "110845.577500", "110846.037500", "110846.497500", "110846.957500", "110847.417500", "110847.877500", "110848.337500", "110848.797500", "110849.257500", "110849.717500", "110850.177500", "110850.637500", "110851.097500", "110851.557500", "110852.017500", "110852.477500", "110852.937500", "110853.397500", "110853.857500", "110854.317500", "110854.777500", "110855.237500", "110855.697500", "110856.157500", "110856.617500", "110857.077500", "110857.537500", "110857.997500", "110858.457500", "110858.917500", "110859.377500", "110859.837500", "110900.297500", "110900.757500", "110901.217500", "110901.677500", "110902.137500", "110902.597500", "110903.057500", "110903.517500", "110903.977500", "110904.437500", "110904.897500", "110905.357500", "110905.817500", "110906.277500", "110906.737500", "110907.197500", "110907.657500", "110908.117500", "110908.577500", "110909.037500", "110909.497500", "110909.957500", "110910.417500", "110910.877500", "110911.337500", "110911.797500", "110912.257500", "110912.717500", "110913.177500", "110913.637500", "110914.097500", "110914.557500", "110915.017500", "110915.477500", "110915.937500", "110916.397500", "110916.857500", "110917.317500", "110917.777500", "110918.237500", "110918.697500", "110919.157500", "110919.617500", "110920.077500", "110920.537500", "110920.997500", "110921.457500", "110921.917500", "110922.377500", "110922.837500", "110923.297500", "110923.757500", "110924.217500", "110924.677500", "110925.137500", "110925.597500", "110926.057500", "110926.517500", "110926.977500", "110927.437500", "110927.897500", "110928.357500", "110928.817500", "110929.277500", "110929.737500", "110930.197500", "110930.657500", "110931.117500", "110931.577500", "110932.037500", "110932.497500", "110932.957500", "110933.417500", "110933.877500", "110934.337500", "110934.797500", "110935.257500", "110935.717500", "110936.177500", "110936.637500", "110937.097500", "110937.557500", "110938.017500", "110938.477500", "110938.937500", "110939.397500", "110939.857500", "110940.317500", "110940.777500", "110941.237500", "110941.697500", "110942.157500", "110942.617500", "110943.077500", "110943.537500", "110943.997500", "110944.457500", "110944.917500", "110945.377500", "110945.837500", "110946.297500", "110946.757500", "110947.217500", "110947.677500", "110948.137500", "110948.597500", "110949.057500", "110949.517500", "110949.977500", "110950.437500", "110950.897500", "110951.357500", "110951.817500", "110952.277500", "110952.737500", "110953.197500", "110953.657500", "110954.117500", "110954.577500", "110955.037500", "110955.497500", "110955.957500", "110956.417500", "110956.877500", "110957.337500", "110957.797500", "110958.257500", "110958.717500", "110959.177500", "110959.637500", "111000.097500", "111000.557500", "111001.017500", "111001.477500", "111001.937500", "111002.397500", "111002.857500", "111003.317500", "111003.777500", "111004.237500", "111004.697500", "111005.157500", "111005.617500", "111006.077500", "111006.537500", "111006.997500", "111007.457500", "111007.917500", "111008.377500", "111008.837500", "111009.297500", "111009.757500", "111010.217500", "111010.677500", "111011.137500", "111011.597500", "111012.057500", "111012.517500", "111012.977500", "111013.437500", "111013.897500", "111014.357500", "111014.817500", "111015.277500", "111015.737500", "111016.197500", "111016.657500", "111017.117500", "111017.577500", "111018.037500", "111018.497500", "111018.957500", "111019.417500", "111019.877500", "111020.337500", "111020.797500", "111021.257500", "111021.717500", "111022.177500", "111022.637500", "111023.097500", "111023.557500", "111024.017500", "111024.477500", "111024.937500", "111025.397500", "111025.857500", "111026.317500", "111026.777500", "111027.237500", "111027.697500", "111028.157500", "111028.617500", "111029.077500", "111029.537500", "111029.997500", "111030.457500", "111030.917500", "111031.377500", "111031.837500", "111032.297500", "111032.757500", "111033.217500", "111033.677500", "111034.137500", "111034.597500", "111035.057500", "111035.517500", "111035.977500", "111036.437500", "111036.897500", "111037.357500", "111037.817500", "111038.277500", "111038.737500", "111039.197500", "111039.657500", "111040.117500", "111040.577500", "111041.037500", "111041.497500", "111041.957500", "111042.417500", "111042.877500", "111043.337500", "111043.797500", "111044.257500", "111044.717500", "111045.177500", "111045.637500", "111046.097500", "111046.557500", "111047.017500", "111047.477500", "111047.937500", "111048.397500", "111048.857500", "111049.317500", "111049.777500", "111050.237500", "111050.697500", "111051.157500", "111051.617500", "111052.077500", "111052.537500", "111052.997500", "111053.457500", "111053.917500", "111054.377500", "111054.837500", "111055.297500", "111055.757500", "111056.217500", "111056.677500", "111057.137500", "111057.597500", "111058.057500", "111058.517500", "111058.977500", "111059.437500", "111059.897500", "111100.357500", "111100.817500", "111101.277500", "111101.737500", "111102.197500", "111102.657500", "111103.117500", "111103.577500", "111104.037500", "111104.497500", "111104.957500", "111105.417500", "111105.877500", "111106.337500", "111106.797500", "111107.257500", "111107.717500", "111108.177500", "111108.637500", "111109.097500", "111109.557500", "111110.017500", "111110.477500", "111110.937500", "111111.397500", "111111.857500", "111112.317500", "111112.777500", "111113.237500", "111113.697500", "111114.157500", "111114.617500", "111115.077500", "111115.537500", "111115.997500", "111116.457500", "111116.917500", "111117.377500", "111117.837500", "111118.297500", "111118.757500", "111119.217500", "111119.677500", "111120.137500", "111120.597500", "111121.057500", "111121.517500", "111121.977500", "111122.437500", "111122.897500", "111123.357500", "111123.817500", "111124.277500", "111124.737500", "111125.197500", "111125.657500", "111126.117500", "111126.577500", "111127.037500", "111127.497500", "111127.957500", "111128.417500", "111128.877500", "111129.337500", "111129.797500", "111130.257500", "111130.717500", "111131.177500", "111131.637500", "111132.097500", "111132.557500", "111133.017500", "111133.477500", "111133.937500", "111134.397500", "111134.857500", "111135.317500", "111135.777500", "111136.237500", "111136.697500", "111137.157500", "111137.617500", "111138.077500", "111138.537500", "111138.997500", "111139.457500", "111139.917500", "111140.377500", "111140.837500", "111141.297500", "111141.757500", "111142.217500", "111142.677500", "111143.137500", "111143.597500", "111144.057500", "111144.517500", "111144.977500", "111145.437500", "111145.897500", "111146.357500", "111146.817500", "111147.277500", "111147.737500", "111148.197500", "111148.657500", "111149.117500", "111149.577500", "111150.037500", "111150.497500", "111150.957500", "111151.417500", "111151.877500", "111152.337500", "111152.797500", "111153.257500", "111153.717500", "111154.177500", "111154.637500", "111155.097500", "111155.557500", "111156.017500", "111156.477500", "111156.937500", "111157.397500", "111157.857500", "111158.317500", "111158.777500", "111159.237500", "111159.697500", "111200.157500", "111200.617500", "111201.077500", "111201.537500", "111201.997500", "111202.457500", "111202.917500", "111203.377500", "111203.837500", "111204.297500", "111204.757500", "111205.217500", "111205.677500", "111206.137500", "111206.597500", "111207.057500", "111207.517500", "111207.977500", "111208.437500", "111208.897500", "111209.357500", "111209.817500", "111210.277500", "111210.737500", "111211.197500", "111211.657500", "111212.117500", "111212.577500", "111213.037500", "111213.497500", "111213.957500", "111214.417500", "111214.877500", "111215.337500", "111215.797500", "111216.257500", "111216.717500", "111217.177500", "111217.637500", "111218.097500", "111218.557500", "111219.017500", "111219.477500", "111219.937500", "111220.397500", "111220.857500", "111221.317500", "111221.777500", "111222.237500", "111222.697500", "111223.157500", "111223.617500", "111224.077500", "111224.537500", "111224.997500", "111225.457500", "111225.917500", "111226.377500", "111226.837500", "111227.297500", "111227.757500", "111228.217500", "111228.677500", "111229.137500", "111229.597500"],
