{
  "AcquisitionMatrixPE": 82,
  "AcquisitionNumber": 1,
  "AcquisitionTime": "10:50:9.352500",
  "BandwidthPerPixelPhaseEncode": 24.888,
  "BaseResolution": 82,
  "BodyPartExamined": "BRAIN",
  "ConsistencyInfo": "N4_VE11E_LATEST_20181129",
  "ConversionSoftware": "dcm2niix",
  "ConversionSoftwareVersion": "v1.0.20201102",
  "DerivedVendorReportedEchoSpacing": 0.00049,
  "DeviceSerialNumber": "66112",
  "DwellTime": 2e-06,
  "EchoTime": 0.0272,
  "EchoTrainLength": 82,
  "EffectiveEchoSpacing": 0.00049,
  "FlipAngle": 44,
  "ImageComments": "Unaliased MB8/PE3",
  "ImageOrientationPatientDICOM": [0.999874, -0.0058623, 0.0147813, 0.00383928, 0.991061, 0.133351],
  "ImageType": [
    "ORIGINAL",
    "PRIMARY",
    "M",
    "MB",
    "ND",
    "NORM",
    "MOSAIC"
],
  "ImagingFrequency": 123.252,
  "InPlanePhaseEncodingDirectionDICOM": "COL",
  "InstitutionAddress": "Maynard 3,Hanover,NH,US,03755",
  "InstitutionName": "Dartmouth College - PBS",
  "InstitutionalDepartmentName": "Department",
  "MRAcquisitionType": "2D",
  "MagneticFieldStrength": 3,
  "Manufacturer": "Siemens",
  "ManufacturersModelName": "Prisma",
  "Modality": "MR",
  "MultibandAccelerationFactor": 8,
  "PartialFourier": 1,
  "PatientPosition": "HFS",
  "PercentPhaseFOV": 100,
  "PercentSampling": 100,
  "PhaseEncodingDirection": "j-",
  "PhaseEncodingSteps": 82,
  "PhaseResolution": 1,
  "PixelBandwidth": 3050,
  "ProcedureStepDescription": "Wager_Wager^1076_spacetop",
  "ProtocolName": "func_run-03_task-social_acq-ap-mb8",
  "PulseSequenceDetails": "%CustomerSeq%\\cmrr_mbep2d_bold",
  "ReceiveCoilActiveElements": "HEA;HEP",
  "ReceiveCoilName": "Head_32",
  "ReconMatrixPE": 82,
  "RepetitionTime": 0.46,
  "SAR": 0.0916533,
  "ScanOptions": "FS",
  "ScanningSequence": "EP",
  "SequenceName": "epfid2d1_82",
  "SequenceVariant": "SK\\SS",
  "SeriesDescription": "func_run-03_task-social_acq-ap-mb8",
  "SeriesNumber": 14,
  "ShimSetting": [4161, -7749, -7292, 473, -39, -148, 24, 0],
  "SliceThickness": 2.7,
  "SliceTiming": [0, 0.2525, 0.0625, 0.315, 0.1275, 0.3775, 0.19, 0, 0.2525, 0.0625, 0.315, 0.1275, 0.3775, 0.19, 0, 0.2525, 0.0625, 0.315, 0.1275, 0.3775, 0.19, 0, 0.2525, 0.0625, 0.315, 0.1275, 0.3775, 0.19, 0, 0.2525, 0.0625, 0.315, 0.1275, 0.3775, 0.19, 0, 0.2525, 0.0625, 0.315, 0.1275, 0.3775, 0.19, 0, 0.2525, 0.0625, 0.315, 0.1275, 0.3775, 0.19, 0, 0.2525, 0.0625, 0.315, 0.1275, 0.3775, 0.19],
  "SoftwareVersions": "syngo MR E11",
  "SpacingBetweenSlices": 2.7,
  "StationName": "AWP66112",
  "TaskName": "social",
  "TotalReadoutTime": 0.03969,
  "TxRefAmp": 244.373,
  "WipMemBlock": "68c54f3e-056c-400d-aee0-444310ba6d29||Sequence: R016 ve11e/master r/434b28f1; Aug  7 2019 18:53:46 by eja",
  "dcmmeta_affine": [
    [-2.6825876235961914, 0.010300515219569206, 0.041663557291030884, 108.13566589355469],
    [0.015728123486042023, 2.6589455604553223, 0.3598484396934509, -94.39238739013672],
    [0.03965722396969795, -0.35777047276496887, 2.675588369369507, -70.34264373779297],
    [0.0, 0.0, 0.0, 1.0]
],
  "dcmmeta_reorient_transform": [
    [0.0, -1.0, 0.0, 81.0],
    [1.0, 0.0, 0.0, 0.0],
    [0.0, 0.0, 1.0, 0.0],
    [0.0, 0.0, 0.0, 1.0]
],
  "dcmmeta_shape": [82, 82, 56, 872],
  "dcmmeta_slice_dim": 2,
  "dcmmeta_version": 0.6,
  "global": {
    "const": {
      "AccessionNumber": "A004009",
      "AcquisitionMatrix": [82, 0, 0, 82],
      "AngioFlag": "N",
      "BitsAllocated": 16,
      "BitsStored": 16,
      "BodyPartExamined": "BRAIN",
      "Columns": 656,
      "EchoNumbers": 1,
      "EchoTime": 27.2,
      "EchoTrainLength": 82,
      "FlipAngle": 44.0,
      "HighBit": 15,
      "ImageOrientationPatient": [0.99987356488678, -0.005862300091, 0.01478132870391, 0.00383928290037, 0.99106146141524, 0.13335081403687],
      "ImagePositionPatient": [-881.82891921348, -879.58556744096, -213.38380794589],
      "ImageType": [
        "ORIGINAL",
        "PRIMARY",
        "M",
        "MB",
        "ND",
        "NORM",
        "MOSAIC"
],
      "ImagedNucleus": "1H",
      "ImagingFrequency": 123.252184,
      "InPlanePhaseEncodingDirection": "COL",
      "MRAcquisitionType": "2D",
      "MagneticFieldStrength": 3.0,
      "Manufacturer": "SIEMENS",
      "ManufacturerModelName": "Prisma",
      "Modality": "MR",
      "NumberOfAverages": 1.0,
      "NumberOfPhaseEncodingSteps": 82,
      "PercentPhaseFieldOfView": 100.0,
      "PercentSampling": 100.0,
      "PerformedProcedureStepStartTime": "094144.550000",
      "PhotometricInterpretation": "MONOCHROME2",
      "PixelBandwidth": 3050.0,
      "PixelRepresentation": 0,
      "PixelSpacing": [2.6829268932343, 2.6829268932343],
      "ProtocolName": "func_run-03_task-social_acq-ap-mb8",
      "RepetitionTime": 460.0,
      "Rows": 656,
      "SAR": 0.09165330883595,
      "SamplesPerPixel": 1,
      "ScanOptions": "FS",
      "ScanningSequence": "EP",
      "SequenceName": "epfid2d1_82",
      "SequenceVariant": [
        "SK",
        "SS"
],
      "SeriesDescription": "func_run-03_task-social_acq-ap-mb8",
      "SeriesNumber": 14,
      "SeriesTime": "105032.640000",
      "SliceLocation": -80.618371979168,
      "SliceThickness": 2.7000000476837,
      "SmallestImagePixelValue": 0,
      "SoftwareVersions": "syngo MR E11",
      "SpacingBetweenSlices": 2.6999999081503,
      "SpecificCharacterSet": "ISO_IR 100",
      "StudyID": "1",
      "StudyTime": "094144.425000",
      "TransmitCoilName": "Body",
      "VariableFlipAngleFlag": "N",
      "WindowCenterWidthExplanation": "Algo1"
    },
    "slices": {}
  },
  "time": {
    "samples": {
      "AcquisitionNumber": [1, 2, 3, 4, 5, 6, 7, 8, 9, 10, 11, 12, 13, 14, 15, 16, 17, 18, 19, 20, 21, 22, 23, 24, 25, 26, 27, 28, 29, 30, 31, 32, 33, 34, 35, 36, 37, 38, 39, 40, 41, 42, 43, 44, 45, 46, 47, 48, 49, 50, 51, 52, 53, 54, 55, 56, 57, 58, 59, 60, 61, 62, 63, 64, 65, 66, 67, 68, 69, 70, 71, 72, 73, 74, 75, 76, 77, 78, 79, 80, 81, 82, 83, 84, 85, 86, 87, 88, 89, 90, 91, 92, 93, 94, 95, 96, 97, 98, 99, 100, 101, 102, 103, 104, 105, 106, 107, 108, 109, 110, 111, 112, 113, 114, 115, 116, 117, 118, 119, 120, 121, 122, 123, 124, 125, 126, 127, 128, 129, 130, 131, 132, 133, 134, 135, 136, 137, 138, 139, 140, 141, 142, 143, 144, 145, 146, 147, 148, 149, 150, 151, 152, 153, 154, 155, 156, 157, 158, 159, 160, 161, 162, 163, 164, 165, 166, 167, 168, 169, 170, 171, 172, 173, 174, 175, 176, 177, 178, 179, 180, 181, 182, 183, 184, 185, 186, 187, 188, 189, 190, 191, 192, 193, 194, 195, 196, 197, 198, 199, 200, 201, 202, 203, 204, 205, 206, 207, 208, 209, 210, 211, 212, 213, 214, 215, 216, 217, 218, 219, 220, 221, 222, 223, 224, 225, 226, 227, 228, 229, 230, 231, 232, 233, 234, 235, 236, 237, 238, 239, 240, 241, 242, 243, 244, 245, 246, 247, 248, 249, 250, 251, 252, 253, 254, 255, 256, 257, 258, 259, 260, 261, 262, 263, 264, 265, 266, 267, 268, 269, 270, 271, 272, 273, 274, 275, 276, 277, 278, 279, 280, 281, 282, 283, 284, 285, 286, 287, 288, 289, 290, 291, 292, 293, 294, 295, 296, 297, 298, 299, 300, 301, 302, 303, 304, 305, 306, 307, 308, 309, 310, 311, 312, 313, 314, 315, 316, 317, 318, 319, 320, 321, 322, 323, 324, 325, 326, 327, 328, 329, 330, 331, 332, 333, 334, 335, 336, 337, 338, 339, 340, 341, 342, 343, 344, 345, 346, 347, 348, 349, 350, 351, 352, 353, 354, 355, 356, 357, 358, 359, 360, 361, 362, 363, 364, 365, 366, 367, 368, 369, 370, 371, 372, 373, 374, 375, 376, 377, 378, 379, 380, 381, 382, 383, 384, 385, 386, 387, 388, 389, 390, 391, 392, 393, 394, 395, 396, 397, 398, 399, 400, 401, 402, 403, 404, 405, 406, 407, 408, 409, 410, 411, 412, 413, 414, 415, 416, 417, 418, 419, 420, 421, 422, 423, 424, 425, 426, 427, 428, 429, 430, 431, 432, 433, 434, 435, 436, 437, 438, 439, 440, 441, 442, 443, 444, 445, 446, 447, 448, 449, 450, 451, 452, 453, 454, 455, 456, 457, 458, 459, 460, 461, 462, 463, 464, 465, 466, 467, 468, 469, 470, 471, 472, 473, 474, 475, 476, 477, 478, 479, 480, 481, 482, 483, 484, 485, 486, 487, 488, 489, 490, 491, 492, 493, 494, 495, 496, 497, 498, 499, 500, 501, 502, 503, 504, 505, 506, 507, 508, 509, 510, 511, 512, 513, 514, 515, 516, 517, 518, 519, 520, 521, 522, 523, 524, 525, 526, 527, 528, 529, 530, 531, 532, 533, 534, 535, 536, 537, 538, 539, 540, 541, 542, 543, 544, 545, 546, 547, 548, 549, 550, 551, 552, 553, 554, 555, 556, 557, 558, 559, 560, 561, 562, 563, 564, 565, 566, 567, 568, 569, 570, 571, 572, 573, 574, 575, 576, 577, 578, 579, 580, 581, 582, 583, 584, 585, 586, 587, 588, 589, 590, 591, 592, 593, 594, 595, 596, 597, 598, 599, 600, 601, 602, 603, 604, 605, 606, 607, 608, 609, 610, 611, 612, 613, 614, 615, 616, 617, 618, 619, 620, 621, 622, 623, 624, 625, 626, 627, 628, 629, 630, 631, 632, 633, 634, 635, 636, 637, 638, 639, 640, 641, 642, 643, 644, 645, 646, 647, 648, 649, 650, 651, 652, 653, 654, 655, 656, 657, 658, 659, 660, 661, 662, 663, 664, 665, 666, 667, 668, 669, 670, 671, 672, 673, 674, 675, 676, 677, 678, 679, 680, 681, 682, 683, 684, 685, 686, 687, 688, 689, 690, 691, 692, 693, 694, 695, 696, 697, 698, 699, 700, 701, 702, 703, 704, 705, 706, 707, 708, 709, 710, 711, 712, 713, 714, 715, 716, 717, 718, 719, 720, 721, 722, 723, 724, 725, 726, 727, 728, 729, 730, 731, 732, 733, 734, 735, 736, 737, 738, 739, 740, 741, 742, 743, 744, 745, 746, 747, 748, 749, 750, 751, 752, 753, 754, 755, 756, 757, 758, 759, 760, 761, 762, 763, 764, 765, 766, 767, 768, 769, 770, 771, 772, 773, 774, 775, 776, 777, 778, 779, 780, 781, 782, 783, 784, 785, 786, 787, 788, 789, 790, 791, 792, 793, 794, 795, 796, 797, 798, 799, 800, 801, 802, 803, 804, 805, 806, 807, 808, 809, 810, 811, 812, 813, 814, 815, 816, 817, 818, 819, 820, 821, 822, 823, 824, 825, 826, 827, 828, 829, 830, 831, 832, 833, 834, 835, 836, 837, 838, 839, 840, 841, 842, 843, 844, 845, 846, 847, 848, 849, 850, 851, 852, 853, 854, 855, 856, 857, 858, 859, 860, 861, 862, 863, 864, 865, 866, 867, 868, 869, 870, 871, 872],
      "AcquisitionTime": ["105009.352500", "105009.812500", "105010.272500", "105010.732500", "105011.192500", "105011.652500", "105012.112500", "105012.572500", "105013.032500", "105013.492500", "105013.952500", "105014.412500", "105014.872500", "105015.332500", "105015.792500", "105016.252500", "105016.712500", "105017.172500", "105017.632500", "105018.092500", "105018.552500", "105019.012500", "105019.472500", "105019.932500", "105020.392500", "105020.852500", "105021.312500", "105021.772500", "105022.232500", "105022.692500", "105023.152500", "105023.612500", "105024.072500", "105024.532500", "105024.992500", "105025.452500", "105025.912500", "105026.372500", "105026.832500", "105027.292500", "105027.752500", "105028.212500", "105028.672500", "105029.132500", "105029.592500", "105030.052500", "105030.512500", "105030.972500", "105031.432500", "105031.892500", "105032.352500", "105032.812500", "105033.272500", "105033.732500", "105034.192500", "105034.652500", "105035.112500", "105035.572500", "105036.032500", "105036.492500", "105036.952500", "105037.412500", "105037.872500", "105038.332500", "105038.792500", "105039.252500", "105039.712500", "105040.172500", "105040.632500", "105041.092500", "105041.552500", "105042.012500", "105042.472500", "105042.932500", "105043.392500", "105043.852500", "105044.312500", "105044.772500", "105045.232500", "105045.692500", "105046.152500", "105046.612500", "105047.072500", "105047.532500", "105047.992500", "105048.452500", "105048.912500", "105049.372500", "105049.832500", "105050.292500", "105050.752500", "105051.212500", "105051.672500", "105052.132500", "105052.592500", "105053.052500", "105053.512500", "105053.972500", "105054.432500", "105054.892500", "105055.352500", "105055.812500", "105056.272500", "105056.732500", "105057.192500", "105057.652500", "105058.112500", "105058.572500", "105059.032500", "105059.492500", "105059.952500", "105100.412500", "105100.872500", "105101.332500", "105101.792500", "105102.252500", "105102.712500", "105103.172500", "105103.632500", "105104.092500", "105104.552500", "105105.012500", "105105.472500", "105105.932500", "105106.392500", "105106.852500", "105107.312500", "105107.772500", "105108.232500", "105108.692500", "105109.152500", "105109.612500", "105110.072500", "105110.532500", "105110.992500", "105111.452500", "105111.912500", "105112.372500", "105112.832500", "105113.292500", "105113.752500", "105114.212500", "105114.672500", "105115.132500", "105115.592500", "105116.052500", "105116.512500", "105116.972500", "105117.432500", "105117.892500", "105118.352500", "105118.812500", "105119.272500", "105119.732500", "105120.192500", "105120.652500", "105121.112500", "105121.572500", "105122.032500", "105122.492500", "105122.952500", "105123.412500", "105123.872500", "105124.332500", "105124.792500", "105125.252500", "105125.712500", "105126.172500", "105126.632500", "105127.092500", "105127.552500", "105128.012500", "105128.472500", "105128.932500", "105129.392500", "105129.852500", "105130.312500", "105130.772500", "105131.232500", "105131.692500", "105132.152500", "105132.612500", "105133.072500", "105133.532500", "105133.992500", "105134.452500", "105134.912500", "105135.372500", "105135.832500", "105136.292500", "105136.752500", "105137.212500", "105137.672500", "105138.132500", "105138.592500", "105139.052500", "105139.512500", "105139.972500", "105140.432500", "105140.892500", "105141.352500", "105141.812500", "105142.272500", "105142.732500", "105143.192500", "105143.652500", "105144.112500", "105144.572500", "105145.032500", "105145.492500", "105145.952500", "105146.412500", "105146.872500", "105147.332500", "105147.792500", "105148.252500", "105148.712500", "105149.172500", "105149.632500", "105150.092500", "105150.552500", "105151.012500", "105151.472500", "105151.932500", "105152.392500", "105152.852500", "105153.312500", "105153.772500", "105154.232500", "105154.692500", "105155.152500", "105155.612500", "105156.072500", "105156.532500", "105156.992500", "105157.452500", "105157.912500", "105158.372500", "105158.832500", "105159.292500", "105159.752500", "105200.212500", "105200.672500", "105201.132500", "105201.592500", "105202.052500", "105202.512500", "105202.972500", "105203.432500", "105203.892500", "105204.352500", "105204.812500", "105205.272500", "105205.732500", "105206.192500", "105206.652500", "105207.112500", "105207.572500", "105208.032500", "105208.492500", "105208.952500", "105209.412500", "105209.872500", "105210.332500", "105210.792500", "105211.252500", "105211.712500", "105212.172500", "105212.632500", "105213.092500", "105213.552500", "105214.012500", "105214.472500", "105214.932500", "105215.392500", "105215.852500", "105216.312500", "105216.772500", "105217.232500", "105217.692500", "105218.152500", "105218.612500", "105219.072500", "105219.532500", "105219.992500", "105220.452500", "105220.912500", "105221.372500", "105221.832500", "105222.292500", "105222.752500", "105223.212500", "105223.672500", "105224.132500", "105224.592500", "105225.052500", "105225.512500", "105225.972500", "105226.432500", "105226.892500", "105227.352500", "105227.812500", "105228.272500", "105228.732500", "105229.192500", "105229.652500", "105230.112500", "105230.572500", "105231.032500", "105231.492500", "105231.952500", "105232.412500", "105232.872500", "105233.332500", "105233.792500", "105234.252500", "105234.712500", "105235.172500", "105235.632500", "105236.092500", "105236.552500", "105237.012500", "105237.472500", "105237.932500", "105238.392500", "105238.852500", "105239.312500", "105239.772500", "105240.232500", "105240.692500", "105241.152500", "105241.612500", "105242.072500", "105242.532500", "105242.992500", "105243.452500", "105243.912500", "105244.372500", "105244.832500", "105245.292500", "105245.752500", "105246.212500", "105246.672500", "105247.132500", "105247.592500", "105248.052500", "105248.512500", "105248.972500", "105249.432500", "105249.892500", "105250.352500", "105250.812500", "105251.272500", "105251.732500", "105252.192500", "105252.652500", "105253.112500", "105253.572500", "105254.032500", "105254.492500", "105254.952500", "105255.412500", "105255.872500", "105256.332500", "105256.792500", "105257.252500", "105257.712500", "105258.172500", "105258.632500", "105259.092500", "105259.552500", "105300.012500", "105300.472500", "105300.932500", "105301.392500", "105301.852500", "105302.312500", "105302.772500", "105303.232500", "105303.692500", "105304.152500", "105304.612500", "105305.072500", "105305.532500", "105305.992500", "105306.452500", "105306.912500", "105307.372500", "105307.832500", "105308.292500", "105308.752500", "105309.212500", "105309.672500", "105310.132500", "105310.592500", "105311.052500", "105311.512500", "105311.972500", "105312.432500", "105312.892500", "105313.352500", "105313.812500", "105314.272500", "105314.732500", "105315.192500", "105315.652500", "105316.112500", "105316.572500", "105317.032500", "105317.492500", "105317.952500", "105318.412500", "105318.872500", "105319.332500", "105319.792500", "105320.252500", "105320.712500", "105321.172500", "105321.632500", "105322.092500", "105322.552500", "105323.012500", "105323.472500", "105323.932500", "105324.392500", "105324.852500", "105325.312500", "105325.772500", "105326.232500", "105326.692500", "105327.152500", "105327.612500", "105328.072500", "105328.532500", "105328.992500", "105329.452500", "105329.912500", "105330.372500", "105330.832500", "105331.292500", "105331.752500", "105332.212500", "105332.672500", "105333.132500", "105333.592500", "105334.052500", "105334.512500", "105334.972500", "105335.432500", "105335.892500", "105336.352500", "105336.812500", "105337.272500", "105337.732500", "105338.192500", "105338.652500", "105339.112500", "105339.572500", "105340.032500", "105340.492500", "105340.952500", "105341.412500", "105341.872500", "105342.332500", "105342.792500", "105343.252500", "105343.712500", "105344.172500", "105344.632500", "105345.092500", "105345.552500", "105346.012500", "105346.472500", "105346.932500", "105347.392500", "105347.852500", "105348.312500", "105348.772500", "105349.232500", "105349.692500", "105350.152500", "105350.612500", "105351.072500", "105351.532500", "105351.992500", "105352.452500", "105352.912500", "105353.372500", "105353.832500", "105354.292500", "105354.752500", "105355.212500", "105355.672500", "105356.132500", "105356.592500", "105357.052500", "105357.512500", "105357.972500", "105358.432500", "105358.892500", "105359.352500", "105359.812500", "105400.272500", "105400.732500", "105401.192500", "105401.652500", "105402.112500", "105402.572500", "105403.032500", "105403.492500", "105403.952500", "105404.412500", "105404.872500", "105405.332500", "105405.792500", "105406.252500", "105406.712500", "105407.172500", "105407.632500", "105408.092500", "105408.552500", "105409.012500", "105409.472500", "105409.932500", "105410.392500", "105410.852500", "105411.312500", "105411.772500", "105412.232500", "105412.692500", "105413.152500", "105413.612500", "105414.072500", "105414.532500", "105414.992500", "105415.452500", "105415.912500", "105416.372500", "105416.832500", "105417.292500", "105417.752500", "105418.212500", "105418.672500", "105419.132500", "105419.592500", "105420.052500", "105420.512500", "105420.972500", "105421.432500", "105421.892500", "105422.352500", "105422.812500", "105423.272500", "105423.732500", "105424.192500", "105424.652500", "105425.112500", "105425.572500", "105426.032500", "105426.492500", "105426.952500", "105427.412500", "105427.872500", "105428.332500", "105428.792500", "105429.252500", "105429.712500", "105430.172500", "105430.632500", "105431.092500", "105431.552500", "105432.012500", "105432.472500", "105432.932500", "105433.392500", "105433.852500", "105434.312500", "105434.772500", "105435.232500", "105435.692500", "105436.152500", "105436.612500", "105437.072500", "105437.532500", "105437.992500", "105438.452500", "105438.912500", "105439.372500", "105439.832500", "105440.292500", "105440.752500", "105441.212500", "105441.672500", "105442.132500", "105442.592500", "105443.052500", "105443.512500", "105443.972500", "105444.432500", "105444.892500", "105445.352500", "105445.812500", "105446.272500", "105446.732500", "105447.192500", "105447.652500", "105448.112500", "105448.572500", "105449.032500", "105449.492500", "105449.952500", "105450.412500", "105450.872500", "105451.332500", "105451.792500", "105452.252500", "105452.712500", "105453.172500", "105453.632500", "105454.092500", "105454.552500", "105455.012500", "105455.472500", "105455.932500", "105456.392500", "105456.852500", "105457.312500", "105457.772500", "105458.232500", "105458.692500", "105459.152500", "105459.612500", "105500.072500", "105500.532500", "105500.992500", "105501.452500", "105501.912500", "105502.372500", "105502.832500", "105503.292500", "105503.752500", "105504.212500", "105504.672500", "105505.132500", "105505.592500", "105506.052500", "105506.512500", "105506.972500", "105507.432500", "105507.892500", "105508.352500", "105508.812500", "105509.272500", "105509.732500", "105510.192500", "105510.652500", "105511.112500", "105511.572500", "105512.032500", "105512.492500", "105512.952500", "105513.412500", "105513.872500", "105514.332500", "105514.792500", "105515.252500", "105515.712500", "105516.172500", "105516.632500", "105517.092500", "105517.552500", "105518.012500", "105518.472500", "105518.932500", "105519.392500", "105519.852500", "105520.312500", "105520.772500", "105521.232500", "105521.692500", "105522.152500", "105522.612500", "105523.072500", "105523.532500", "105523.992500", "105524.452500", "105524.912500", "105525.372500", "105525.832500", "105526.292500", "105526.752500", "105527.212500", "105527.672500", "105528.132500", "105528.592500", "105529.052500", "105529.512500", "105529.972500", "105530.432500", "105530.892500", "105531.352500", "105531.812500", "105532.272500", "105532.732500", "105533.192500", "105533.652500", "105534.112500", "105534.572500", "105535.032500", "105535.492500", "105535.952500", "105536.412500", "105536.872500", "105537.332500", "105537.792500", "105538.252500", "105538.712500", "105539.172500", "105539.632500", "105540.092500", "105540.552500", "105541.012500", "105541.472500", "105541.932500", "105542.392500", "105542.852500", "105543.312500", "105543.772500", "105544.232500", "105544.692500", "105545.152500", "105545.612500", "105546.072500", "105546.532500", "105546.992500", "105547.452500", "105547.912500", "105548.372500", "105548.832500", "105549.292500", "105549.752500", "105550.212500", "105550.672500", "105551.132500", "105551.592500", "105552.052500", "105552.512500", "105552.972500", "105553.432500", "105553.892500", "105554.352500", "105554.812500", "105555.272500", "105555.732500", "105556.192500", "105556.652500", "105557.112500", "105557.572500", "105558.032500", "105558.492500", "105558.952500", "105559.412500", "105559.872500", "105600.332500", "105600.792500", "105601.252500", "105601.712500", "105602.172500", "105602.632500", "105603.092500", "105603.552500", "105604.012500", "105604.472500", "105604.932500", "105605.392500", "105605.852500", "105606.312500", "105606.772500", "105607.232500", "105607.692500", "105608.152500", "105608.612500", "105609.072500", "105609.532500", "105609.992500", "105610.452500", "105610.912500", "105611.372500", "105611.832500", "105612.292500", "105612.752500", "105613.212500", "105613.672500", "105614.132500", "105614.592500", "105615.052500", "105615.512500", "105615.972500", "105616.432500", "105616.892500", "105617.352500", "105617.812500", "105618.272500", "105618.732500", "105619.192500", "105619.652500", "105620.112500", "105620.572500", "105621.032500", "105621.492500", "105621.952500", "105622.412500", "105622.872500", "105623.332500", "105623.792500", "105624.252500", "105624.712500", "105625.172500", "105625.632500", "105626.092500", "105626.552500", "105627.012500", "105627.472500", "105627.932500", "105628.392500", "105628.852500", "105629.312500", "105629.772500", "105630.232500", "105630.692500", "105631.152500", "105631.612500", "105632.072500", "105632.532500", "105632.992500", "105633.452500", "105633.912500", "105634.372500", "105634.832500", "105635.292500", "105635.752500", "105636.212500", "105636.672500", "105637.132500", "105637.592500", "105638.052500", "105638.512500", "105638.972500", "105639.432500", "105639.892500", "105640.352500", "105640.812500", "105641.272500", "105641.732500", "105642.192500", "105642.652500", "105643.112500", "105643.572500", "105644.032500", "105644.492500", "105644.952500", "105645.412500", "105645.872500", "105646.332500", "105646.792500", "105647.252500", "105647.712500", "105648.172500", "105648.632500", "105649.092500", "105649.552500", "105650.012500"],
