{
  "AcquisitionMatrixPE": 82,
  "AcquisitionNumber": 1,
  "AcquisitionTime": "10:57:9.817500",
  "BandwidthPerPixelPhaseEncode": 24.888,
  "BaseResolution": 82,
  "BodyPartExamined": "BRAIN",
  "ConsistencyInfo": "N4_VE11E_LATEST_20181129",
  "ConversionSoftware": "dcm2niix",
  "ConversionSoftwareVersion": "v1.0.20201102",
  "DerivedVendorReportedEchoSpacing": 0.00049,
  "DeviceSerialNumber": "66112",
  "DwellTime": 2e-06,
  "EchoTime": 0.0272,
  "EchoTrainLength": 82,
  "EffectiveEchoSpacing": 0.00049,
  "FlipAngle": 44,
  "ImageComments": "Unaliased MB8/PE3",
  "ImageOrientationPatientDICOM": [0.999874, -0.0058623, 0.0147813, 0.00383928, 0.991061, 0.133351],
  "ImageType": [
    "ORIGINAL",
    "PRIMARY",
    "M",
    "MB",
    "ND",
    "NORM",
    "MOSAIC"
],
  "ImagingFrequency": 123.252,
  "InPlanePhaseEncodingDirectionDICOM": "COL",
  "InstitutionAddress": "Maynard 3,Hanover,NH,US,03755",
  "InstitutionName": "Dartmouth College - PBS",
  "InstitutionalDepartmentName": "Department",
  "MRAcquisitionType": "2D",
  "MagneticFieldStrength": 3,
  "Manufacturer": "Siemens",
  "ManufacturersModelName": "Prisma",
  "Modality": "MR",
  "MultibandAccelerationFactor": 8,
  "PartialFourier": 1,
  "PatientPosition": "HFS",
  "PercentPhaseFOV": 100,
  "PercentSampling": 100,
  "PhaseEncodingDirection": "j-",
  "PhaseEncodingSteps": 82,
  "PhaseResolution": 1,
  "PixelBandwidth": 3050,
  "ProcedureStepDescription": "Wager_Wager^1076_spacetop",
  "ProtocolName": "func_run-04_task-social_acq-ap-mb8",
  "PulseSequenceDetails": "%CustomerSeq%\\cmrr_mbep2d_bold",
  "ReceiveCoilActiveElements": "HEA;HEP",
  "ReceiveCoilName": "Head_32",
  "ReconMatrixPE": 82,
  "RepetitionTime": 0.46,
  "SAR": 0.0916533,
  "ScanOptions": "FS",
  "ScanningSequence": "EP",
  "SequenceName": "epfid2d1_82",
  "SequenceVariant": "SK\\SS",
  "SeriesDescription": "func_run-04_task-social_acq-ap-mb8",
  "SeriesNumber": 16,
  "ShimSetting": [4161, -7749, -7292, 473, -39, -148, 24, 0],
  "SliceThickness": 2.7,
  "SliceTiming": [0, 0.25, 0.0625, 0.315, 0.125, 0.3775, 0.1875, 0, 0.25, 0.0625, 0.315, 0.125, 0.3775, 0.1875, 0, 0.25, 0.0625, 0.315, 0.125, 0.3775, 0.1875, 0, 0.25, 0.0625, 0.315, 0.125, 0.3775, 0.1875, 0, 0.25, 0.0625, 0.315, 0.125, 0.3775, 0.1875, 0, 0.25, 0.0625, 0.315, 0.125, 0.3775, 0.1875, 0, 0.25, 0.0625, 0.315, 0.125, 0.3775, 0.1875, 0, 0.25, 0.0625, 0.315, 0.125, 0.3775, 0.1875],
  "SoftwareVersions": "syngo MR E11",
  "SpacingBetweenSlices": 2.7,
  "StationName": "AWP66112",
  "TaskName": "social",
  "TotalReadoutTime": 0.03969,
  "TxRefAmp": 244.373,
  "WipMemBlock": "fa65426f-512a-40e5-8d3a-7984ae859fa6||Sequence: R016 ve11e/master r/434b28f1; Aug  7 2019 18:53:46 by eja",
  "dcmmeta_affine": [
    [-2.6825876235961914, 0.010300515219569206, 0.041663557291030884, 108.13566589355469],
    [0.015728123486042023, 2.6589455604553223, 0.3598484396934509, -94.39238739013672],
    [0.03965722396969795, -0.35777047276496887, 2.675588369369507, -70.34264373779297],
    [0.0, 0.0, 0.0, 1.0]
],
  "dcmmeta_reorient_transform": [
    [0.0, -1.0, 0.0, 81.0],
    [1.0, 0.0, 0.0, 0.0],
    [0.0, 0.0, 1.0, 0.0],
    [0.0, 0.0, 0.0, 1.0]
],
  "dcmmeta_shape": [82, 82, 56, 872],
  "dcmmeta_slice_dim": 2,
  "dcmmeta_version": 0.6,
  "global": {
    "const": {
      "AccessionNumber": "A004009",
      "AcquisitionMatrix": [82, 0, 0, 82],
      "AngioFlag": "N",
      "BitsAllocated": 16,
      "BitsStored": 16,
      "BodyPartExamined": "BRAIN",
      "Columns": 656,
      "EchoNumbers": 1,
      "EchoTime": 27.2,
      "EchoTrainLength": 82,
      "FlipAngle": 44.0,
      "HighBit": 15,
      "ImageOrientationPatient": [0.99987356488678, -0.005862300091, 0.01478132870391, 0.00383928290037, 0.99106146141524, 0.13335081403687],
      "ImagePositionPatient": [-881.82891921348, -879.58556744096, -213.38380794589],
      "ImageType": [
        "ORIGINAL",
        "PRIMARY",
        "M",
        "MB",
        "ND",
        "NORM",
        "MOSAIC"
],
      "ImagedNucleus": "1H",
      "ImagingFrequency": 123.252189,
      "InPlanePhaseEncodingDirection": "COL",
      "MRAcquisitionType": "2D",
      "MagneticFieldStrength": 3.0,
      "Manufacturer": "SIEMENS",
      "ManufacturerModelName": "Prisma",
      "Modality": "MR",
      "NumberOfAverages": 1.0,
      "NumberOfPhaseEncodingSteps": 82,
      "PercentPhaseFieldOfView": 100.0,
      "PercentSampling": 100.0,
      "PerformedProcedureStepStartTime": "094144.550000",
      "PhotometricInterpretation": "MONOCHROME2",
      "PixelBandwidth": 3050.0,
      "PixelRepresentation": 0,
      "PixelSpacing": [2.6829268932343, 2.6829268932343],
      "ProtocolName": "func_run-04_task-social_acq-ap-mb8",
      "RepetitionTime": 460.0,
      "Rows": 656,
      "SAR": 0.09165330883595,
      "SamplesPerPixel": 1,
      "ScanOptions": "FS",
      "ScanningSequence": "EP",
      "SequenceName": "epfid2d1_82",
      "SequenceVariant": [
        "SK",
        "SS"
],
      "SeriesDescription": "func_run-04_task-social_acq-ap-mb8",
      "SeriesNumber": 16,
      "SeriesTime": "105732.445000",
      "SliceLocation": -80.618371979168,
      "SliceThickness": 2.7000000476837,
      "SmallestImagePixelValue": 0,
      "SoftwareVersions": "syngo MR E11",
      "SpacingBetweenSlices": 2.6999999081503,
      "SpecificCharacterSet": "ISO_IR 100",
      "StudyID": "1",
      "StudyTime": "094144.425000",
      "TransmitCoilName": "Body",
      "VariableFlipAngleFlag": "N",
      "WindowCenterWidthExplanation": "Algo1"
    },
    "slices": {}
  },
  "time": {
    "samples": {
      "AcquisitionNumber": [1, 2, 3, 4, 5, 6, 7, 8, 9, 10, 11, 12, 13, 14, 15, 16, 17, 18, 19, 20, 21, 22, 23, 24, 25, 26, 27, 28, 29, 30, 31, 32, 33, 34, 35, 36, 37, 38, 39, 40, 41, 42, 43, 44, 45, 46, 47, 48, 49, 50, 51, 52, 53, 54, 55, 56, 57, 58, 59, 60, 61, 62, 63, 64, 65, 66, 67, 68, 69, 70, 71, 72, 73, 74, 75, 76, 77, 78, 79, 80, 81, 82, 83, 84, 85, 86, 87, 88, 89, 90, 91, 92, 93, 94, 95, 96, 97, 98, 99, 100, 101, 102, 103, 104, 105, 106, 107, 108, 109, 110, 111, 112, 113, 114, 115, 116, 117, 118, 119, 120, 121, 122, 123, 124, 125, 126, 127, 128, 129, 130, 131, 132, 133, 134, 135, 136, 137, 138, 139, 140, 141, 142, 143, 144, 145, 146, 147, 148, 149, 150, 151, 152, 153, 154, 155, 156, 157, 158, 159, 160, 161, 162, 163, 164, 165, 166, 167, 168, 169, 170, 171, 172, 173, 174, 175, 176, 177, 178, 179, 180, 181, 182, 183, 184, 185, 186, 187, 188, 189, 190, 191, 192, 193, 194, 195, 196, 197, 198, 199, 200, 201, 202, 203, 204, 205, 206, 207, 208, 209, 210, 211, 212, 213, 214, 215, 216, 217, 218, 219, 220, 221, 222, 223, 224, 225, 226, 227, 228, 229, 230, 231, 232, 233, 234, 235, 236, 237, 238, 239, 240, 241, 242, 243, 244, 245, 246, 247, 248, 249, 250, 251, 252, 253, 254, 255, 256, 257, 258, 259, 260, 261, 262, 263, 264, 265, 266, 267, 268, 269, 270, 271, 272, 273, 274, 275, 276, 277, 278, 279, 280, 281, 282, 283, 284, 285, 286, 287, 288, 289, 290, 291, 292, 293, 294, 295, 296, 297, 298, 299, 300, 301, 302, 303, 304, 305, 306, 307, 308, 309, 310, 311, 312, 313, 314, 315, 316, 317, 318, 319, 320, 321, 322, 323, 324, 325, 326, 327, 328, 329, 330, 331, 332, 333, 334, 335, 336, 337, 338, 339, 340, 341, 342, 343, 344, 345, 346, 347, 348, 349, 350, 351, 352, 353, 354, 355, 356, 357, 358, 359, 360, 361, 362, 363, 364, 365, 366, 367, 368, 369, 370, 371, 372, 373, 374, 375, 376, 377, 378, 379, 380, 381, 382, 383, 384, 385, 386, 387, 388, 389, 390, 391, 392, 393, 394, 395, 396, 397, 398, 399, 400, 401, 402, 403, 404, 405, 406, 407, 408, 409, 410, 411, 412, 413, 414, 415, 416, 417, 418, 419, 420, 421, 422, 423, 424, 425, 426, 427, 428, 429, 430, 431, 432, 433, 434, 435, 436, 437, 438, 439, 440, 441, 442, 443, 444, 445, 446, 447, 448, 449, 450, 451, 452, 453, 454, 455, 456, 457, 458, 459, 460, 461, 462, 463, 464, 465, 466, 467, 468, 469, 470, 471, 472, 473, 474, 475, 476, 477, 478, 479, 480, 481, 482, 483, 484, 485, 486, 487, 488, 489, 490, 491, 492, 493, 494, 495, 496, 497, 498, 499, 500, 501, 502, 503, 504, 505, 506, 507, 508, 509, 510, 511, 512, 513, 514, 515, 516, 517, 518, 519, 520, 521, 522, 523, 524, 525, 526, 527, 528, 529, 530, 531, 532, 533, 534, 535, 536, 537, 538, 539, 540, 541, 542, 543, 544, 545, 546, 547, 548, 549, 550, 551, 552, 553, 554, 555, 556, 557, 558, 559, 560, 561, 562, 563, 564, 565, 566, 567, 568, 569, 570, 571, 572, 573, 574, 575, 576, 577, 578, 579, 580, 581, 582, 583, 584, 585, 586, 587, 588, 589, 590, 591, 592, 593, 594, 595, 596, 597, 598, 599, 600, 601, 602, 603, 604, 605, 606, 607, 608, 609, 610, 611, 612, 613, 614, 615, 616, 617, 618, 619, 620, 621, 622, 623, 624, 625, 626, 627, 628, 629, 630, 631, 632, 633, 634, 635, 636, 637, 638, 639, 640, 641, 642, 643, 644, 645, 646, 647, 648, 649, 650, 651, 652, 653, 654, 655, 656, 657, 658, 659, 660, 661, 662, 663, 664, 665, 666, 667, 668, 669, 670, 671, 672, 673, 674, 675, 676, 677, 678, 679, 680, 681, 682, 683, 684, 685, 686, 687, 688, 689, 690, 691, 692, 693, 694, 695, 696, 697, 698, 699, 700, 701, 702, 703, 704, 705, 706, 707, 708, 709, 710, 711, 712, 713, 714, 715, 716, 717, 718, 719, 720, 721, 722, 723, 724, 725, 726, 727, 728, 729, 730, 731, 732, 733, 734, 735, 736, 737, 738, 739, 740, 741, 742, 743, 744, 745, 746, 747, 748, 749, 750, 751, 752, 753, 754, 755, 756, 757, 758, 759, 760, 761, 762, 763, 764, 765, 766, 767, 768, 769, 770, 771, 772, 773, 774, 775, 776, 777, 778, 779, 780, 781, 782, 783, 784, 785, 786, 787, 788, 789, 790, 791, 792, 793, 794, 795, 796, 797, 798, 799, 800, 801, 802, 803, 804, 805, 806, 807, 808, 809, 810, 811, 812, 813, 814, 815, 816, 817, 818, 819, 820, 821, 822, 823, 824, 825, 826, 827, 828, 829, 830, 831, 832, 833, 834, 835, 836, 837, 838, 839, 840, 841, 842, 843, 844, 845, 846, 847, 848, 849, 850, 851, 852, 853, 854, 855, 856, 857, 858, 859, 860, 861, 862, 863, 864, 865, 866, 867, 868, 869, 870, 871, 872],
      "AcquisitionTime": ["105709.817500", "105710.277500", "105710.737500", "105711.197500", "105711.657500", "105712.117500", "105712.577500", "105713.037500", "105713.497500", "105713.957500", "105714.417500", "105714.877500", "105715.337500", "105715.797500", "105716.257500", "105716.717500", "105717.177500", "105717.637500", "105718.097500", "105718.557500", "105719.017500", "105719.477500", "105719.937500", "105720.397500", "105720.857500", "105721.317500", "105721.777500", "105722.237500", "105722.697500", "105723.157500", "105723.617500", "105724.077500", "105724.537500", "105724.997500", "105725.457500", "105725.917500", "105726.377500", "105726.837500", "105727.297500", "105727.757500", "105728.217500", "105728.677500", "105729.137500", "105729.597500", "105730.057500", "105730.517500", "105730.977500", "105731.437500", "105731.897500", "105732.357500", "105732.817500", "105733.277500", "105733.737500", "105734.197500", "105734.657500", "105735.117500", "105735.577500", "105736.037500", "105736.497500", "105736.957500", "105737.417500", "105737.877500", "105738.337500", "105738.797500", "105739.257500", "105739.717500", "105740.177500", "105740.637500", "105741.097500", "105741.557500", "105742.017500", "105742.477500", "105742.937500", "105743.397500", "105743.857500", "105744.317500", "105744.777500", "105745.237500", "105745.697500", "105746.157500", "105746.617500", "105747.077500", "105747.537500", "105747.997500", "105748.457500", "105748.917500", "105749.377500", "105749.837500", "105750.297500", "105750.757500", "105751.217500", "105751.677500", "105752.137500", "105752.597500", "105753.057500", "105753.517500", "105753.977500", "105754.437500", "105754.897500", "105755.357500", "105755.817500", "105756.277500", "105756.737500", "105757.197500", "105757.657500", "105758.117500", "105758.577500", "105759.037500", "105759.497500", "105759.957500", "105800.417500", "105800.877500", "105801.337500", "105801.797500", "105802.257500", "105802.717500", "105803.177500", "105803.637500", "105804.097500", "105804.557500", "105805.017500", "105805.477500", "105805.937500", "105806.397500", "105806.857500", "105807.317500", "105807.777500", "105808.237500", "105808.697500", "105809.157500", "105809.617500", "105810.077500", "105810.537500", "105810.997500", "105811.457500", "105811.917500", "105812.377500", "105812.837500", "105813.297500", "105813.757500", "105814.217500", "105814.677500", "105815.137500", "105815.597500", "105816.057500", "105816.517500", "105816.977500", "105817.437500", "105817.897500", "105818.357500", "105818.817500", "105819.277500", "105819.737500", "105820.197500", "105820.657500", "105821.117500", "105821.577500", "105822.037500", "105822.497500", "105822.957500", "105823.417500", "105823.877500", "105824.337500", "105824.797500", "105825.257500", "105825.717500", "105826.177500", "105826.637500", "105827.097500", "105827.557500", "105828.017500", "105828.477500", "105828.937500", "105829.397500", "105829.857500", "105830.317500", "105830.777500", "105831.237500", "105831.697500", "105832.157500", "105832.617500", "105833.077500", "105833.537500", "105833.997500", "105834.457500", "105834.917500", "105835.377500", "105835.837500", "105836.297500", "105836.757500", "105837.217500", "105837.677500", "105838.137500", "105838.597500", "105839.057500", "105839.517500", "105839.977500", "105840.437500", "105840.897500", "105841.357500", "105841.817500", "105842.277500", "105842.737500", "105843.197500", "105843.657500", "105844.117500", "105844.577500", "105845.037500", "105845.497500", "105845.957500", "105846.417500", "105846.877500", "105847.337500", "105847.797500", "105848.257500", "105848.717500", "105849.177500", "105849.637500", "105850.097500", "105850.557500", "105851.017500", "105851.477500", "105851.937500", "105852.397500", "105852.857500", "105853.317500", "105853.777500", "105854.237500", "105854.697500", "105855.157500", "105855.617500", "105856.077500", "105856.537500", "105856.997500", "105857.457500", "105857.917500", "105858.377500", "105858.837500", "105859.297500", "105859.757500", "105900.217500", "105900.677500", "105901.137500", "105901.597500", "105902.057500", "105902.517500", "105902.977500", "105903.437500", "105903.897500", "105904.357500", "105904.817500", "105905.277500", "105905.737500", "105906.197500", "105906.657500", "105907.117500", "105907.577500", "105908.037500", "105908.497500", "105908.957500", "105909.417500", "105909.877500", "105910.337500", "105910.797500", "105911.257500", "105911.717500", "105912.177500", "105912.637500", "105913.097500", "105913.557500", "105914.017500", "105914.477500", "105914.937500", "105915.397500", "105915.857500", "105916.317500", "105916.777500", "105917.237500", "105917.697500", "105918.157500", "105918.617500", "105919.077500", "105919.537500", "105919.997500", "105920.457500", "105920.917500", "105921.377500", "105921.837500", "105922.297500", "105922.757500", "105923.217500", "105923.677500", "105924.137500", "105924.597500", "105925.057500", "105925.517500", "105925.977500", "105926.437500", "105926.897500", "105927.357500", "105927.817500", "105928.277500", "105928.737500", "105929.197500", "105929.657500", "105930.117500", "105930.577500", "105931.037500", "105931.497500", "105931.957500", "105932.417500", "105932.877500", "105933.337500", "105933.797500", "105934.257500", "105934.717500", "105935.177500", "105935.637500", "105936.097500", "105936.557500", "105937.017500", "105937.477500", "105937.937500", "105938.397500", "105938.857500", "105939.317500", "105939.777500", "105940.237500", "105940.697500", "105941.157500", "105941.617500", "105942.077500", "105942.537500", "105942.997500", "105943.457500", "105943.917500", "105944.377500", "105944.837500", "105945.297500", "105945.757500", "105946.217500", "105946.677500", "105947.137500", "105947.597500", "105948.057500", "105948.517500", "105948.977500", "105949.437500", "105949.897500", "105950.357500", "105950.817500", "105951.277500", "105951.737500", "105952.197500", "105952.657500", "105953.117500", "105953.577500", "105954.037500", "105954.497500", "105954.957500", "105955.417500", "105955.877500", "105956.337500", "105956.797500", "105957.257500", "105957.717500", "105958.177500", "105958.637500", "105959.097500", "105959.557500", "110000.017500", "110000.477500", "110000.937500", "110001.397500", "110001.857500", "110002.317500", "110002.777500", "110003.237500", "110003.697500", "110004.157500", "110004.617500", "110005.077500", "110005.537500", "110005.997500", "110006.457500", "110006.917500", "110007.377500", "110007.837500", "110008.297500", "110008.757500", "110009.217500", "110009.677500", "110010.137500", "110010.597500", "110011.057500", "110011.517500", "110011.977500", "110012.437500", "110012.897500", "110013.357500", "110013.817500", "110014.277500", "110014.737500", "110015.197500", "110015.657500", "110016.117500", "110016.577500", "110017.037500", "110017.497500", "110017.957500", "110018.417500", "110018.877500", "110019.337500", "110019.797500", "110020.257500", "110020.717500", "110021.177500", "110021.637500", "110022.097500", "110022.557500", "110023.017500", "110023.477500", "110023.937500", "110024.397500", "110024.857500", "110025.317500", "110025.777500", "110026.237500", "110026.697500", "110027.157500", "110027.617500", "110028.077500", "110028.537500", "110028.997500", "110029.457500", "110029.917500", "110030.377500", "110030.837500", "110031.297500", "110031.757500", "110032.217500", "110032.677500", "110033.137500", "110033.597500", "110034.057500", "110034.517500", "110034.977500", "110035.437500", "110035.897500", "110036.357500", "110036.817500", "110037.277500", "110037.737500", "110038.197500", "110038.657500", "110039.117500", "110039.577500", "110040.037500", "110040.497500", "110040.957500", "110041.417500", "110041.877500", "110042.337500", "110042.797500", "110043.257500", "110043.717500", "110044.177500", "110044.637500", "110045.097500", "110045.557500", "110046.017500", "110046.477500", "110046.937500", "110047.397500", "110047.857500", "110048.317500", "110048.777500", "110049.237500", "110049.697500", "110050.157500", "110050.617500", "110051.077500", "110051.537500", "110051.997500", "110052.457500", "110052.917500", "110053.377500", "110053.837500", "110054.297500", "110054.757500", "110055.217500", "110055.677500", "110056.137500", "110056.597500", "110057.057500", "110057.517500", "110057.977500", "110058.437500", "110058.897500", "110059.357500", "110059.817500", "110100.277500", "110100.737500", "110101.197500", "110101.657500", "110102.117500", "110102.577500", "110103.037500", "110103.497500", "110103.957500", "110104.417500", "110104.877500", "110105.337500", "110105.797500", "110106.257500", "110106.717500", "110107.177500", "110107.637500", "110108.097500", "110108.557500", "110109.017500", "110109.477500", "110109.937500", "110110.397500", "110110.857500", "110111.317500", "110111.777500", "110112.237500", "110112.697500", "110113.157500", "110113.617500", "110114.077500", "110114.537500", "110114.997500", "110115.457500", "110115.917500", "110116.377500", "110116.837500", "110117.297500", "110117.757500", "110118.217500", "110118.677500", "110119.137500", "110119.597500", "110120.057500", "110120.517500", "110120.977500", "110121.437500", "110121.897500", "110122.357500", "110122.817500", "110123.277500", "110123.737500", "110124.197500", "110124.657500", "110125.117500", "110125.577500", "110126.037500", "110126.497500", "110126.957500", "110127.417500", "110127.877500", "110128.337500", "110128.797500", "110129.257500", "110129.717500", "110130.177500", "110130.637500", "110131.097500", "110131.557500", "110132.017500", "110132.477500", "110132.937500", "110133.397500", "110133.857500", "110134.317500", "110134.777500", "110135.237500", "110135.697500", "110136.157500", "110136.617500", "110137.077500", "110137.537500", "110137.997500", "110138.457500", "110138.917500", "110139.377500", "110139.837500", "110140.297500", "110140.757500", "110141.217500", "110141.677500", "110142.137500", "110142.597500", "110143.057500", "110143.517500", "110143.977500", "110144.437500", "110144.897500", "110145.357500", "110145.817500", "110146.277500", "110146.737500", "110147.197500", "110147.657500", "110148.117500", "110148.577500", "110149.037500", "110149.497500", "110149.957500", "110150.417500", "110150.877500", "110151.337500", "110151.797500", "110152.257500", "110152.717500", "110153.177500", "110153.637500", "110154.097500", "110154.557500", "110155.017500", "110155.477500", "110155.937500", "110156.397500", "110156.857500", "110157.317500", "110157.777500", "110158.237500", "110158.697500", "110159.157500", "110159.617500", "110200.077500", "110200.537500", "110200.997500", "110201.457500", "110201.917500", "110202.377500", "110202.837500", "110203.297500", "110203.757500", "110204.217500", "110204.677500", "110205.137500", "110205.597500", "110206.057500", "110206.517500", "110206.977500", "110207.437500", "110207.897500", "110208.357500", "110208.817500", "110209.277500", "110209.737500", "110210.197500", "110210.657500", "110211.117500", "110211.577500", "110212.037500", "110212.497500", "110212.957500", "110213.417500", "110213.877500", "110214.337500", "110214.797500", "110215.257500", "110215.717500", "110216.177500", "110216.637500", "110217.097500", "110217.557500", "110218.017500", "110218.477500", "110218.937500", "110219.397500", "110219.857500", "110220.317500", "110220.777500", "110221.237500", "110221.697500", "110222.157500", "110222.617500", "110223.077500", "110223.537500", "110223.997500", "110224.457500", "110224.917500", "110225.377500", "110225.837500", "110226.297500", "110226.757500", "110227.217500", "110227.677500", "110228.137500", "110228.597500", "110229.057500", "110229.517500", "110229.977500", "110230.437500", "110230.897500", "110231.357500", "110231.817500", "110232.277500", "110232.737500", "110233.197500", "110233.657500", "110234.117500", "110234.577500", "110235.037500", "110235.497500", "110235.957500", "110236.417500", "110236.877500", "110237.337500", "110237.797500", "110238.257500", "110238.717500", "110239.177500", "110239.637500", "110240.097500", "110240.557500", "110241.017500", "110241.477500", "110241.937500", "110242.397500", "110242.857500", "110243.317500", "110243.777500", "110244.237500", "110244.697500", "110245.157500", "110245.617500", "110246.077500", "110246.537500", "110246.997500", "110247.457500", "110247.917500", "110248.377500", "110248.837500", "110249.297500", "110249.757500", "110250.217500", "110250.677500", "110251.137500", "110251.597500", "110252.057500", "110252.517500", "110252.977500", "110253.437500", "110253.897500", "110254.357500", "110254.817500", "110255.277500", "110255.737500", "110256.197500", "110256.657500", "110257.117500", "110257.577500", "110258.037500", "110258.497500", "110258.957500", "110259.417500", "110259.877500", "110300.337500", "110300.797500", "110301.257500", "110301.717500", "110302.177500", "110302.637500", "110303.097500", "110303.557500", "110304.017500", "110304.477500", "110304.937500", "110305.397500", "110305.857500", "110306.317500", "110306.777500", "110307.237500", "110307.697500", "110308.157500", "110308.617500", "110309.077500", "110309.537500", "110309.997500", "110310.457500", "110310.917500", "110311.377500", "110311.837500", "110312.297500", "110312.757500", "110313.217500", "110313.677500", "110314.137500", "110314.597500", "110315.057500", "110315.517500", "110315.977500", "110316.437500", "110316.897500", "110317.357500", "110317.817500", "110318.277500", "110318.737500", "110319.197500", "110319.657500", "110320.117500", "110320.577500", "110321.037500", "110321.497500", "110321.957500", "110322.417500", "110322.877500", "110323.337500", "110323.797500", "110324.257500", "110324.717500", "110325.177500", "110325.637500", "110326.097500", "110326.557500", "110327.017500", "110327.477500", "110327.937500", "110328.397500", "110328.857500", "110329.317500", "110329.777500", "110330.237500", "110330.697500", "110331.157500", "110331.617500", "110332.077500", "110332.537500", "110332.997500", "110333.457500", "110333.917500", "110334.377500", "110334.837500", "110335.297500", "110335.757500", "110336.217500", "110336.677500", "110337.137500", "110337.597500", "110338.057500", "110338.517500", "110338.977500", "110339.437500", "110339.897500", "110340.357500", "110340.817500", "110341.277500", "110341.737500", "110342.197500", "110342.657500", "110343.117500", "110343.577500", "110344.037500", "110344.497500", "110344.957500", "110345.417500", "110345.877500", "110346.337500", "110346.797500", "110347.257500", "110347.717500", "110348.177500", "110348.637500", "110349.097500", "110349.557500", "110350.017500", "110350.477500"],
