{
  "AcquisitionMatrixPE": 82,
  "AcquisitionNumber": 1,
  "AcquisitionTime": "17:36:31.472500",
  "BandwidthPerPixelPhaseEncode": 24.888,
  "BaseResolution": 82,
  "BodyPartExamined": "BRAIN",
  "ConsistencyInfo": "N4_VE11E_LATEST_20181129",
  "ConversionSoftware": "dcm2niix",
  "ConversionSoftwareVersion": "v1.0.20201102",
  "DerivedVendorReportedEchoSpacing": 0.00049,
  "DeviceSerialNumber": "66112",
  "DwellTime": 2e-06,
  "EchoTime": 0.0272,
  "EchoTrainLength": 82,
  "EffectiveEchoSpacing": 0.00049,
  "FlipAngle": 44,
  "ImageComments": "Unaliased MB8/PE3",
  "ImageOrientationPatientDICOM": [0.998513, 0.0472407, -0.0271945, -0.0493595, 0.995294, -0.0833908],
  "ImageType": [
    "ORIGINAL",
    "PRIMARY",
    "M",
    "MB",
    "ND",
    "NORM",
    "MOSAIC"
],
  "ImagingFrequency": 123.252,
  "InPlanePhaseEncodingDirectionDICOM": "COL",
  "InstitutionAddress": "Maynard 3,Hanover,NH,US,03755",
  "InstitutionName": "Dartmouth College - PBS",
  "InstitutionalDepartmentName": "Department",
  "MRAcquisitionType": "2D",
  "MagneticFieldStrength": 3,
  "Manufacturer": "Siemens",
  "ManufacturersModelName": "Prisma",
  "Modality": "MR",
  "MultibandAccelerationFactor": 8,
  "PartialFourier": 1,
  "PatientPosition": "HFS",
  "PercentPhaseFOV": 100,
  "PercentSampling": 100,
  "PhaseEncodingDirection": "j-",
  "PhaseEncodingSteps": 82,
  "PhaseResolution": 1,
  "PixelBandwidth": 3050,
  "ProcedureStepDescription": "Wager_Wager^1076_spacetop",
  "ProtocolName": "func_run-01_task-alignvideo_acq-ap-mb8",
  "PulseSequenceDetails": "%CustomerSeq%\\cmrr_mbep2d_bold",
  "ReceiveCoilActiveElements": "HEA;HEP",
  "ReceiveCoilName": "Head_32",
  "ReconMatrixPE": 82,
  "RepetitionTime": 0.46,
  "SAR": 0.0885354,
  "ScanOptions": "FS",
  "ScanningSequence": "EP",
  "SequenceName": "epfid2d1_82",
  "SequenceVariant": "SK\\SS",
  "SeriesDescription": "func_run-01_task-alignvideo_acq-ap-mb8",
  "SeriesNumber": 34,
  "ShimSetting": [4141, -7749, -7273, 602, -88, -174, 17, 77],
  "SliceThickness": 2.7,
  "SliceTiming": [0, 0.25, 0.0625, 0.315, 0.125, 0.3775, 0.1875, 0, 0.25, 0.0625, 0.315, 0.125, 0.3775, 0.1875, 0, 0.25, 0.0625, 0.315, 0.125, 0.3775, 0.1875, 0, 0.25, 0.0625, 0.315, 0.125, 0.3775, 0.1875, 0, 0.25, 0.0625, 0.315, 0.125, 0.3775, 0.1875, 0, 0.25, 0.0625, 0.315, 0.125, 0.3775, 0.1875, 0, 0.25, 0.0625, 0.315, 0.125, 0.3775, 0.1875, 0, 0.25, 0.0625, 0.315, 0.125, 0.3775, 0.1875],
  "SoftwareVersions": "syngo MR E11",
  "SpacingBetweenSlices": 2.7,
  "StationName": "AWP66112",
  "TaskName": "alignvideo",
  "TotalReadoutTime": 0.03969,
  "TxRefAmp": 241.463,
  "WipMemBlock": "3672ebd6-41dc-41c6-a6a2-b832da26f76a||Sequence: R016 ve11e/master r/434b28f1; Aug  7 2019 18:53:46 by eja",
  "dcmmeta_affine": [
    [-2.678938150405884, -0.13242802023887634, -0.06244304031133652, 112.8624038696289],
    [-0.1267433762550354, 2.670300245285034, -0.22844454646110535, -84.28861999511719],
    [-0.07296079397201538, 0.22373132407665253, 2.689593553543091, -67.32284545898438],
    [0.0, 0.0, 0.0, 1.0]
],
  "dcmmeta_reorient_transform": [
    [0.0, -1.0, 0.0, 81.0],
    [1.0, 0.0, 0.0, 0.0],
    [0.0, 0.0, 1.0, 0.0],
    [0.0, 0.0, 0.0, 1.0]
],
  "dcmmeta_shape": [82, 82, 56, 839],
  "dcmmeta_slice_dim": 2,
  "dcmmeta_version": 0.6,
  "global": {
    "const": {
      "AccessionNumber": "A003910",
      "AcquisitionMatrix": [82, 0, 0, 82],
      "AngioFlag": "N",
      "BitsAllocated": 16,
      "BitsStored": 16,
      "BodyPartExamined": "BRAIN",
      "Columns": 656,
      "EchoNumbers": 1,
      "EchoTime": 27.2,
      "EchoTrainLength": 82,
      "FlipAngle": 44.0,
      "HighBit": 15,
      "ImageOrientationPatient": [0.99851328274882, 0.04724070981908, -0.027194475725, -0.0493595342142, 0.99529373408672, -0.0833907624972],
      "ImagePositionPatient": [-832.98413990214, -934.75724825131, 35.950029350759],
      "ImageType": [
        "ORIGINAL",
        "PRIMARY",
        "M",
        "MB",
        "ND",
        "NORM",
        "MOSAIC"
],
      "ImagedNucleus": "1H",
      "ImagingFrequency": 123.252196,
      "InPlanePhaseEncodingDirection": "COL",
      "MRAcquisitionType": "2D",
      "MagneticFieldStrength": 3.0,
      "Manufacturer": "SIEMENS",
      "ManufacturerModelName": "Prisma",
      "Modality": "MR",
      "NumberOfAverages": 1.0,
      "NumberOfPhaseEncodingSteps": 82,
      "PercentPhaseFieldOfView": 100.0,
      "PercentSampling": 100.0,
      "PerformedProcedureStepStartTime": "161327.018000",
      "PhotometricInterpretation": "MONOCHROME2",
      "PixelBandwidth": 3050.0,
      "PixelRepresentation": 0,
      "PixelSpacing": [2.6829268932343, 2.6829268932343],
      "ProtocolName": "func_run-01_task-alignvideo_acq-ap-mb8",
      "RepetitionTime": 460.0,
      "Rows": 656,
      "SAR": 0.08853537194759,
      "SamplesPerPixel": 1,
      "ScanOptions": "FS",
      "ScanningSequence": "EP",
      "SequenceName": "epfid2d1_82",
      "SequenceVariant": [
        "SK",
        "SS"
],
      "SeriesDescription": "func_run-01_task-alignvideo_acq-ap-mb8",
      "SeriesNumber": 34,
      "SeriesTime": "173654.625000",
      "SliceLocation": -62.541958184381,
      "SliceThickness": 2.7000000476837,
      "SmallestImagePixelValue": 0,
      "SoftwareVersions": "syngo MR E11",
      "SpacingBetweenSlices": 2.7000000034595,
      "SpecificCharacterSet": "ISO_IR 100",
      "StudyID": "2",
      "StudyTime": "161326.955000",
      "TransmitCoilName": "Body",
      "VariableFlipAngleFlag": "N",
      "WindowCenterWidthExplanation": "Algo1"
    },
    "slices": {}
  },
  "time": {
    "samples": {
      "AcquisitionNumber": [1, 2, 3, 4, 5, 6, 7, 8, 9, 10, 11, 12, 13, 14, 15, 16, 17, 18, 19, 20, 21, 22, 23, 24, 25, 26, 27, 28, 29, 30, 31, 32, 33, 34, 35, 36, 37, 38, 39, 40, 41, 42, 43, 44, 45, 46, 47, 48, 49, 50, 51, 52, 53, 54, 55, 56, 57, 58, 59, 60, 61, 62, 63, 64, 65, 66, 67, 68, 69, 70, 71, 72, 73, 74, 75, 76, 77, 78, 79, 80, 81, 82, 83, 84, 85, 86, 87, 88, 89, 90, 91, 92, 93, 94, 95, 96, 97, 98, 99, 100, 101, 102, 103, 104, 105, 106, 107, 108, 109, 110, 111, 112, 113, 114, 115, 116, 117, 118, 119, 120, 121, 122, 123, 124, 125, 126, 127, 128, 129, 130, 131, 132, 133, 134, 135, 136, 137, 138, 139, 140, 141, 142, 143, 144, 145, 146, 147, 148, 149, 150, 151, 152, 153, 154, 155, 156, 157, 158, 159, 160, 161, 162, 163, 164, 165, 166, 167, 168, 169, 170, 171, 172, 173, 174, 175, 176, 177, 178, 179, 180, 181, 182, 183, 184, 185, 186, 187, 188, 189, 190, 191, 192, 193, 194, 195, 196, 197, 198, 199, 200, 201, 202, 203, 204, 205, 206, 207, 208, 209, 210, 211, 212, 213, 214, 215, 216, 217, 218, 219, 220, 221, 222, 223, 224, 225, 226, 227, 228, 229, 230, 231, 232, 233, 234, 235, 236, 237, 238, 239, 240, 241, 242, 243, 244, 245, 246, 247, 248, 249, 250, 251, 252, 253, 254, 255, 256, 257, 258, 259, 260, 261, 262, 263, 264, 265, 266, 267, 268, 269, 270, 271, 272, 273, 274, 275, 276, 277, 278, 279, 280, 281, 282, 283, 284, 285, 286, 287, 288, 289, 290, 291, 292, 293, 294, 295, 296, 297, 298, 299, 300, 301, 302, 303, 304, 305, 306, 307, 308, 309, 310, 311, 312, 313, 314, 315, 316, 317, 318, 319, 320, 321, 322, 323, 324, 325, 326, 327, 328, 329, 330, 331, 332, 333, 334, 335, 336, 337, 338, 339, 340, 341, 342, 343, 344, 345, 346, 347, 348, 349, 350, 351, 352, 353, 354, 355, 356, 357, 358, 359, 360, 361, 362, 363, 364, 365, 366, 367, 368, 369, 370, 371, 372, 373, 374, 375, 376, 377, 378, 379, 380, 381, 382, 383, 384, 385, 386, 387, 388, 389, 390, 391, 392, 393, 394, 395, 396, 397, 398, 399, 400, 401, 402, 403, 404, 405, 406, 407, 408, 409, 410, 411, 412, 413, 414, 415, 416, 417, 418, 419, 420, 421, 422, 423, 424, 425, 426, 427, 428, 429, 430, 431, 432, 433, 434, 435, 436, 437, 438, 439, 440, 441, 442, 443, 444, 445, 446, 447, 448, 449, 450, 451, 452, 453, 454, 455, 456, 457, 458, 459, 460, 461, 462, 463, 464, 465, 466, 467, 468, 469, 470, 471, 472, 473, 474, 475, 476, 477, 478, 479, 480, 481, 482, 483, 484, 485, 486, 487, 488, 489, 490, 491, 492, 493, 494, 495, 496, 497, 498, 499, 500, 501, 502, 503, 504, 505, 506, 507, 508, 509, 510, 511, 512, 513, 514, 515, 516, 517, 518, 519, 520, 521, 522, 523, 524, 525, 526, 527, 528, 529, 530, 531, 532, 533, 534, 535, 536, 537, 538, 539, 540, 541, 542, 543, 544, 545, 546, 547, 548, 549, 550, 551, 552, 553, 554, 555, 556, 557, 558, 559, 560, 561, 562, 563, 564, 565, 566, 567, 568, 569, 570, 571, 572, 573, 574, 575, 576, 577, 578, 579, 580, 581, 582, 583, 584, 585, 586, 587, 588, 589, 590, 591, 592, 593, 594, 595, 596, 597, 598, 599, 600, 601, 602, 603, 604, 605, 606, 607, 608, 609, 610, 611, 612, 613, 614, 615, 616, 617, 618, 619, 620, 621, 622, 623, 624, 625, 626, 627, 628, 629, 630, 631, 632, 633, 634, 635, 636, 637, 638, 639, 640, 641, 642, 643, 644, 645, 646, 647, 648, 649, 650, 651, 652, 653, 654, 655, 656, 657, 658, 659, 660, 661, 662, 663, 664, 665, 666, 667, 668, 669, 670, 671, 672, 673, 674, 675, 676, 677, 678, 679, 680, 681, 682, 683, 684, 685, 686, 687, 688, 689, 690, 691, 692, 693, 694, 695, 696, 697, 698, 699, 700, 701, 702, 703, 704, 705, 706, 707, 708, 709, 710, 711, 712, 713, 714, 715, 716, 717, 718, 719, 720, 721, 722, 723, 724, 725, 726, 727, 728, 729, 730, 731, 732, 733, 734, 735, 736, 737, 738, 739, 740, 741, 742, 743, 744, 745, 746, 747, 748, 749, 750, 751, 752, 753, 754, 755, 756, 757, 758, 759, 760, 761, 762, 763, 764, 765, 766, 767, 768, 769, 770, 771, 772, 773, 774, 775, 776, 777, 778, 779, 780, 781, 782, 783, 784, 785, 786, 787, 788, 789, 790, 791, 792, 793, 794, 795, 796, 797, 798, 799, 800, 801, 802, 803, 804, 805, 806, 807, 808, 809, 810, 811, 812, 813, 814, 815, 816, 817, 818, 819, 820, 821, 822, 823, 824, 825, 826, 827, 828, 829, 830, 831, 832, 833, 834, 835, 836, 837, 838, 839],
      "AcquisitionTime": ["173631.472500", "173631.932500", "173632.392500", "173632.852500", "173633.312500", "173633.772500", "173634.232500", "173634.692500", "173635.152500", "173635.612500", "173636.072500", "173636.532500", "173636.992500", "173637.452500", "173637.912500", "173638.372500", "173638.832500", "173639.292500", "173639.752500", "173640.212500", "173640.672500", "173641.132500", "173641.592500", "173642.052500", "173642.512500", "173642.972500", "173643.432500", "173643.892500", "173644.352500", "173644.812500", "173645.272500", "173645.732500", "173646.192500", "173646.652500", "173647.112500", "173647.572500", "173648.032500", "173648.492500", "173648.952500", "173649.412500", "173649.872500", "173650.332500", "173650.792500", "173651.252500", "173651.712500", "173652.172500", "173652.632500", "173653.092500", "173653.552500", "173654.012500", "173654.472500", "173654.932500", "173655.392500", "173655.852500", "173656.312500", "173656.772500", "173657.232500", "173657.692500", "173658.152500", "173658.612500", "173659.072500", "173659.532500", "173659.992500", "173700.452500", "173700.912500", "173701.372500", "173701.832500", "173702.292500", "173702.752500", "173703.212500", "173703.672500", "173704.132500", "173704.592500", "173705.052500", "173705.512500", "173705.972500", "173706.432500", "173706.892500", "173707.352500", "173707.812500", "173708.272500", "173708.732500", "173709.192500", "173709.652500", "173710.112500", "173710.572500", "173711.032500", "173711.492500", "173711.952500", "173712.412500", "173712.872500", "173713.332500", "173713.792500", "173714.252500", "173714.712500", "173715.172500", "173715.632500", "173716.092500", "173716.552500", "173717.012500", "173717.472500", "173717.932500", "173718.392500", "173718.852500", "173719.312500", "173719.772500", "173720.232500", "173720.692500", "173721.152500", "173721.612500", "173722.072500", "173722.532500", "173722.992500", "173723.452500", "173723.912500", "173724.372500", "173724.832500", "173725.292500", "173725.752500", "173726.212500", "173726.672500", "173727.132500", "173727.592500", "173728.052500", "173728.512500", "173728.972500", "173729.432500", "173729.892500", "173730.352500", "173730.812500", "173731.272500", "173731.732500", "173732.192500", "173732.652500", "173733.112500", "173733.572500", "173734.032500", "173734.492500", "173734.952500", "173735.412500", "173735.872500", "173736.332500", "173736.792500", "173737.252500", "173737.712500", "173738.172500", "173738.632500", "173739.092500", "173739.552500", "173740.012500", "173740.472500", "173740.932500", "173741.392500", "173741.852500", "173742.312500", "173742.772500", "173743.232500", "173743.692500", "173744.152500", "173744.612500", "173745.072500", "173745.532500", "173745.992500", "173746.452500", "173746.912500", "173747.372500", "173747.832500", "173748.292500", "173748.752500", "173749.212500", "173749.672500", "173750.132500", "173750.592500", "173751.052500", "173751.512500", "173751.972500", "173752.432500", "173752.892500", "173753.352500", "173753.812500", "173754.272500", "173754.732500", "173755.192500", "173755.652500", "173756.112500", "173756.572500", "173757.032500", "173757.492500", "173757.952500", "173758.412500", "173758.872500", "173759.332500", "173759.792500", "173800.252500", "173800.712500", "173801.172500", "173801.632500", "173802.092500", "173802.552500", "173803.012500", "173803.472500", "173803.932500", "173804.392500", "173804.852500", "173805.312500", "173805.772500", "173806.232500", "173806.692500", "173807.152500", "173807.612500", "173808.072500", "173808.532500", "173808.992500", "173809.452500", "173809.912500", "173810.372500", "173810.832500", "173811.292500", "173811.752500", "173812.212500", "173812.672500", "173813.132500", "173813.592500", "173814.052500", "173814.512500", "173814.972500", "173815.432500", "173815.892500", "173816.352500", "173816.812500", "173817.272500", "173817.732500", "173818.192500", "173818.652500", "173819.112500", "173819.572500", "173820.032500", "173820.492500", "173820.952500", "173821.412500", "173821.872500", "173822.332500", "173822.792500", "173823.252500", "173823.712500", "173824.172500", "173824.632500", "173825.092500", "173825.552500", "173826.012500", "173826.472500", "173826.932500", "173827.392500", "173827.852500", "173828.312500", "173828.772500", "173829.232500", "173829.692500", "173830.152500", "173830.612500", "173831.072500", "173831.532500", "173831.992500", "173832.452500", "173832.912500", "173833.372500", "173833.832500", "173834.292500", "173834.752500", "173835.212500", "173835.672500", "173836.132500", "173836.592500", "173837.052500", "173837.512500", "173837.972500", "173838.432500", "173838.892500", "173839.352500", "173839.812500", "173840.272500", "173840.732500", "173841.192500", "173841.652500", "173842.112500", "173842.572500", "173843.032500", "173843.492500", "173843.952500", "173844.412500", "173844.872500", "173845.332500", "173845.792500", "173846.252500", "173846.712500", "173847.172500", "173847.632500", "173848.092500", "173848.552500", "173849.012500", "173849.472500", "173849.932500", "173850.392500", "173850.852500", "173851.312500", "173851.772500", "173852.232500", "173852.692500", "173853.152500", "173853.612500", "173854.072500", "173854.532500", "173854.992500", "173855.452500", "173855.912500", "173856.372500", "173856.832500", "173857.292500", "173857.752500", "173858.212500", "173858.672500", "173859.132500", "173859.592500", "173900.052500", "173900.512500", "173900.972500", "173901.432500", "173901.892500", "173902.352500", "173902.812500", "173903.272500", "173903.732500", "173904.192500", "173904.652500", "173905.112500", "173905.572500", "173906.032500", "173906.492500", "173906.952500", "173907.412500", "173907.872500", "173908.332500", "173908.792500", "173909.252500", "173909.712500", "173910.172500", "173910.632500", "173911.092500", "173911.552500", "173912.012500", "173912.472500", "173912.932500", "173913.392500", "173913.852500", "173914.312500", "173914.772500", "173915.232500", "173915.692500", "173916.152500", "173916.612500", "173917.072500", "173917.532500", "173917.992500", "173918.452500", "173918.912500", "173919.372500", "173919.832500", "173920.292500", "173920.752500", "173921.212500", "173921.672500", "173922.132500", "173922.592500", "173923.052500", "173923.512500", "173923.972500", "173924.432500", "173924.892500", "173925.352500", "173925.812500", "173926.272500", "173926.732500", "173927.192500", "173927.652500", "173928.112500", "173928.572500", "173929.032500", "173929.492500", "173929.952500", "173930.412500", "173930.872500", "173931.332500", "173931.792500", "173932.252500", "173932.712500", "173933.172500", "173933.632500", "173934.092500", "173934.552500", "173935.012500", "173935.472500", "173935.932500", "173936.392500", "173936.852500", "173937.312500", "173937.772500", "173938.232500", "173938.692500", "173939.152500", "173939.612500", "173940.072500", "173940.532500", "173940.992500", "173941.452500", "173941.912500", "173942.372500", "173942.832500", "173943.292500", "173943.752500", "173944.212500", "173944.672500", "173945.132500", "173945.592500", "173946.052500", "173946.512500", "173946.972500", "173947.432500", "173947.892500", "173948.352500", "173948.812500", "173949.272500", "173949.732500", "173950.192500", "173950.652500", "173951.112500", "173951.572500", "173952.032500", "173952.492500", "173952.952500", "173953.412500", "173953.872500", "173954.332500", "173954.792500", "173955.252500", "173955.712500", "173956.172500", "173956.632500", "173957.092500", "173957.552500", "173958.012500", "173958.472500", "173958.932500", "173959.392500", "173959.852500", "174000.312500", "174000.772500", "174001.232500", "174001.692500", "174002.152500", "174002.612500", "174003.072500", "174003.532500", "174003.992500", "174004.452500", "174004.912500", "174005.372500", "174005.832500", "174006.292500", "174006.752500", "174007.212500", "174007.672500", "174008.132500", "174008.592500", "174009.052500", "174009.512500", "174009.972500", "174010.432500", "174010.892500", "174011.352500", "174011.812500", "174012.272500", "174012.732500", "174013.192500", "174013.652500", "174014.112500", "174014.572500", "174015.032500", "174015.492500", "174015.952500", "174016.412500", "174016.872500", "174017.332500", "174017.792500", "174018.252500", "174018.712500", "174019.172500", "174019.632500", "174020.092500", "174020.552500", "174021.012500", "174021.472500", "174021.932500", "174022.392500", "174022.852500", "174023.312500", "174023.772500", "174024.232500", "174024.692500", "174025.152500", "174025.612500", "174026.072500", "174026.532500", "174026.992500", "174027.452500", "174027.912500", "174028.372500", "174028.832500", "174029.292500", "174029.752500", "174030.212500", "174030.672500", "174031.132500", "174031.592500", "174032.052500", "174032.512500", "174032.972500", "174033.432500", "174033.892500", "174034.352500", "174034.812500", "174035.272500", "174035.732500", "174036.192500", "174036.652500", "174037.112500", "174037.572500", "174038.032500", "174038.492500", "174038.952500", "174039.412500", "174039.872500", "174040.332500", "174040.792500", "174041.252500", "174041.712500", "174042.172500", "174042.632500", "174043.092500", "174043.552500", "174044.012500", "174044.472500", "174044.932500", "174045.392500", "174045.852500", "174046.312500", "174046.772500", "174047.232500", "174047.692500", "174048.152500", "174048.612500", "174049.072500", "174049.532500", "174049.992500", "174050.452500", "174050.912500", "174051.372500", "174051.832500", "174052.292500", "174052.752500", "174053.212500", "174053.672500", "174054.132500", "174054.592500", "174055.052500", "174055.512500", "174055.972500", "174056.432500", "174056.892500", "174057.352500", "174057.812500", "174058.272500", "174058.732500", "174059.192500", "174059.652500", "174100.112500", "174100.572500", "174101.032500", "174101.492500", "174101.952500", "174102.412500", "174102.872500", "174103.332500", "174103.792500", "174104.252500", "174104.712500", "174105.172500", "174105.632500", "174106.092500", "174106.552500", "174107.012500", "174107.472500", "174107.932500", "174108.392500", "174108.852500", "174109.312500", "174109.772500", "174110.232500", "174110.692500", "174111.152500", "174111.612500", "174112.072500", "174112.532500", "174112.992500", "174113.452500", "174113.912500", "174114.372500", "174114.832500", "174115.292500", "174115.752500", "174116.212500", "174116.672500", "174117.132500", "174117.592500", "174118.052500", "174118.512500", "174118.972500", "174119.432500", "174119.892500", "174120.352500", "174120.812500", "174121.272500", "174121.732500", "174122.192500", "174122.652500", "174123.112500", "174123.572500", "174124.032500", "174124.492500", "174124.952500", "174125.412500", "174125.872500", "174126.332500", "174126.792500", "174127.252500", "174127.712500", "174128.172500", "174128.632500", "174129.092500", "174129.552500", "174130.012500", "174130.472500", "174130.932500", "174131.392500", "174131.852500", "174132.312500", "174132.772500", "174133.232500", "174133.692500", "174134.152500", "174134.612500", "174135.072500", "174135.532500", "174135.992500", "174136.452500", "174136.912500", "174137.372500", "174137.832500", "174138.292500", "174138.752500", "174139.212500", "174139.672500", "174140.132500", "174140.592500", "174141.052500", "174141.512500", "174141.972500", "174142.432500", "174142.892500", "174143.352500", "174143.812500", "174144.272500", "174144.732500", "174145.192500", "174145.652500", "174146.112500", "174146.572500", "174147.032500", "174147.492500", "174147.952500", "174148.412500", "174148.872500", "174149.332500", "174149.792500", "174150.252500", "174150.712500", "174151.172500", "174151.632500", "174152.092500", "174152.552500", "174153.012500", "174153.472500", "174153.932500", "174154.392500", "174154.852500", "174155.312500", "174155.772500", "174156.232500", "174156.692500", "174157.152500", "174157.612500", "174158.072500", "174158.532500", "174158.992500", "174159.452500", "174159.912500", "174200.372500", "174200.832500", "174201.292500", "174201.752500", "174202.212500", "174202.672500", "174203.132500", "174203.592500", "174204.052500", "174204.512500", "174204.972500", "174205.432500", "174205.892500", "174206.352500", "174206.812500", "174207.272500", "174207.732500", "174208.192500", "174208.652500", "174209.112500", "174209.572500", "174210.032500", "174210.492500", "174210.952500", "174211.412500", "174211.872500", "174212.332500", "174212.792500", "174213.252500", "174213.712500", "174214.172500", "174214.632500", "174215.092500", "174215.552500", "174216.012500", "174216.472500", "174216.932500", "174217.392500", "174217.852500", "174218.312500", "174218.772500", "174219.232500", "174219.692500", "174220.152500", "174220.612500", "174221.072500", "174221.532500", "174221.992500", "174222.452500", "174222.912500", "174223.372500", "174223.832500", "174224.292500", "174224.752500", "174225.212500", "174225.672500", "174226.132500", "174226.592500", "174227.052500", "174227.512500", "174227.972500", "174228.432500", "174228.892500", "174229.352500", "174229.812500", "174230.272500", "174230.732500", "174231.192500", "174231.652500", "174232.112500", "174232.572500", "174233.032500", "174233.492500", "174233.952500", "174234.412500", "174234.872500", "174235.332500", "174235.792500", "174236.252500", "174236.712500", "174237.172500", "174237.632500", "174238.092500", "174238.552500", "174239.012500", "174239.472500", "174239.932500", "174240.392500", "174240.852500", "174241.312500", "174241.772500", "174242.232500", "174242.692500", "174243.152500", "174243.612500", "174244.072500", "174244.532500", "174244.992500", "174245.452500", "174245.912500", "174246.372500", "174246.832500", "174247.292500", "174247.752500", "174248.212500", "174248.672500", "174249.132500", "174249.592500", "174250.052500", "174250.512500", "174250.972500", "174251.432500", "174251.892500", "174252.352500", "174252.812500", "174253.272500", "174253.732500", "174254.192500", "174254.652500", "174255.112500", "174255.572500", "174256.032500", "174256.492500", "174256.952500"],
