{
  "AcquisitionMatrixPE": 82,
  "AcquisitionNumber": 1,
  "AcquisitionTime": "17:26:53.042500",
  "BandwidthPerPixelPhaseEncode": 24.888,
  "BaseResolution": 82,
  "BodyPartExamined": "BRAIN",
  "ConsistencyInfo": "N4_VE11E_LATEST_20181129",
  "ConversionSoftware": "dcm2niix",
  "ConversionSoftwareVersion": "v1.0.20201102",
  "DerivedVendorReportedEchoSpacing": 0.00049,
  "DeviceSerialNumber": "66112",
  "DwellTime": 2e-06,
  "EchoTime": 0.0272,
  "EchoTrainLength": 82,
  "EffectiveEchoSpacing": 0.00049,
  "FlipAngle": 44,
  "ImageComments": "Unaliased MB8/PE3",
  "ImageOrientationPatientDICOM": [0.998144, 0.056421, -0.0229117, -0.0579023, 0.995853, -0.0701751],
  "ImageType": [
    "ORIGINAL",
    "PRIMARY",
    "M",
    "MB",
    "ND",
    "NORM",
    "MOSAIC"
],
  "ImagingFrequency": 123.252,
  "InPlanePhaseEncodingDirectionDICOM": "COL",
  "InstitutionAddress": "Maynard 3,Hanover,NH,US,03755",
  "InstitutionName": "Dartmouth College - PBS",
  "InstitutionalDepartmentName": "Department",
  "MRAcquisitionType": "2D",
  "MagneticFieldStrength": 3,
  "Manufacturer": "Siemens",
  "ManufacturersModelName": "Prisma",
  "Modality": "MR",
  "MultibandAccelerationFactor": 8,
  "PartialFourier": 1,
  "PatientPosition": "HFS",
  "PercentPhaseFOV": 100,
  "PercentSampling": 100,
  "PhaseEncodingDirection": "j-",
  "PhaseEncodingSteps": 82,
  "PhaseResolution": 1,
  "PixelBandwidth": 3050,
  "ProcedureStepDescription": "Wager_Wager^1076_spacetop",
  "ProtocolName": "func_run-03_task-faces_acq-ap-mb8",
  "PulseSequenceDetails": "%CustomerSeq%\\cmrr_mbep2d_bold",
  "ReceiveCoilActiveElements": "HEA;HEP",
  "ReceiveCoilName": "Head_32",
  "ReconMatrixPE": 82,
  "RepetitionTime": 0.46,
  "SAR": 0.0885822,
  "ScanOptions": "FS",
  "ScanningSequence": "EP",
  "SequenceName": "epfid2d1_82",
  "SequenceVariant": "SK\\SS",
  "SeriesDescription": "func_run-03_task-faces_acq-ap-mb8",
  "SeriesNumber": 26,
  "ShimSetting": [4141, -7750, -7274, 599, -86, -176, 18, 76],
  "SliceThickness": 2.7,
  "SliceTiming": [0, 0.25, 0.0625, 0.3125, 0.125, 0.375, 0.1875, 0, 0.25, 0.0625, 0.3125, 0.125, 0.375, 0.1875, 0, 0.25, 0.0625, 0.3125, 0.125, 0.375, 0.1875, 0, 0.25, 0.0625, 0.3125, 0.125, 0.375, 0.1875, 0, 0.25, 0.0625, 0.3125, 0.125, 0.375, 0.1875, 0, 0.25, 0.0625, 0.3125, 0.125, 0.375, 0.1875, 0, 0.25, 0.0625, 0.3125, 0.125, 0.375, 0.1875, 0, 0.25, 0.0625, 0.3125, 0.125, 0.375, 0.1875],
  "SoftwareVersions": "syngo MR E11",
  "SpacingBetweenSlices": 2.7,
  "StationName": "AWP66112",
  "TaskName": "faces",
  "TotalReadoutTime": 0.03969,
  "TxRefAmp": 241.463,
  "WipMemBlock": "dc5157be-d47c-416b-b9f6-26fedb51862f||Sequence: R016 ve11e/master r/434b28f1; Aug  7 2019 18:53:46 by eja",
  "dcmmeta_affine": [
    [-2.677947759628296, -0.15534758567810059, -0.050914689898490906, 113.79240417480469],
    [-0.15137337148189545, 2.671800136566162, -0.19270317256450653, -84.37992095947266],
    [-0.06147031858563423, 0.1882747858762741, 2.6926331520080566, -66.79497528076172],
    [0.0, 0.0, 0.0, 1.0]
],
  "dcmmeta_reorient_transform": [
    [0.0, -1.0, 0.0, 81.0],
    [1.0, 0.0, 0.0, 0.0],
    [0.0, 0.0, 1.0, 0.0],
    [0.0, 0.0, 0.0, 1.0]
],
  "dcmmeta_shape": [82, 82, 56, 914],
  "dcmmeta_slice_dim": 2,
  "dcmmeta_version": 0.6,
  "global": {
    "const": {
      "AccessionNumber": "A003910",
      "AcquisitionMatrix": [82, 0, 0, 82],
      "AngioFlag": "N",
      "BitsAllocated": 16,
      "BitsStored": 16,
      "BodyPartExamined": "BRAIN",
      "Columns": 656,
      "EchoNumbers": 1,
      "EchoTime": 27.2,
      "EchoTrainLength": 82,
      "FlipAngle": 44.0,
      "HighBit": 15,
      "ImageOrientationPatient": [0.99814414193878, 0.05642098513141, -0.0229116640621, -0.0579022831321, 0.99585278747692, -0.0701751471858],
      "ImagePositionPatient": [-825.19549474204, -942.28671811122, 20.13213224038],
      "ImageType": [
        "ORIGINAL",
        "PRIMARY",
        "M",
        "MB",
        "ND",
        "NORM",
        "MOSAIC"
],
      "ImagedNucleus": "1H",
      "ImagingFrequency": 123.252195,
      "InPlanePhaseEncodingDirection": "COL",
      "MRAcquisitionType": "2D",
      "MagneticFieldStrength": 3.0,
      "Manufacturer": "SIEMENS",
      "ManufacturerModelName": "Prisma",
      "Modality": "MR",
      "NumberOfAverages": 1.0,
      "NumberOfPhaseEncodingSteps": 82,
      "PercentPhaseFieldOfView": 100.0,
      "PercentSampling": 100.0,
      "PerformedProcedureStepStartTime": "161327.018000",
      "PhotometricInterpretation": "MONOCHROME2",
      "PixelBandwidth": 3050.0,
      "PixelRepresentation": 0,
      "PixelSpacing": [2.6829268932343, 2.6829268932343],
      "ProtocolName": "func_run-03_task-faces_acq-ap-mb8",
      "RepetitionTime": 460.0,
      "Rows": 656,
      "SAR": 0.08858224369883,
      "SamplesPerPixel": 1,
      "ScanOptions": "FS",
      "ScanningSequence": "EP",
      "SequenceName": "epfid2d1_82",
      "SequenceVariant": [
        "SK",
        "SS"
],
      "SeriesDescription": "func_run-03_task-faces_acq-ap-mb8",
      "SeriesNumber": 26,
      "SeriesTime": "172714.800000",
      "SliceLocation": -62.73621475472,
      "SliceThickness": 2.7000000476837,
      "SmallestImagePixelValue": 0,
      "SoftwareVersions": "syngo MR E11",
      "SpacingBetweenSlices": 2.6999999263646,
      "SpecificCharacterSet": "ISO_IR 100",
      "StudyID": "2",
      "StudyTime": "161326.955000",
      "TransmitCoilName": "Body",
      "VariableFlipAngleFlag": "N",
      "WindowCenterWidthExplanation": "Algo1"
    },
    "slices": {}
  },
  "time": {
    "samples": {
      "AcquisitionNumber": [1, 2, 3, 4, 5, 6, 7, 8, 9, 10, 11, 12, 13, 14, 15, 16, 17, 18, 19, 20, 21, 22, 23, 24, 25, 26, 27, 28, 29, 30, 31, 32, 33, 34, 35, 36, 37, 38, 39, 40, 41, 42, 43, 44, 45, 46, 47, 48, 49, 50, 51, 52, 53, 54, 55, 56, 57, 58, 59, 60, 61, 62, 63, 64, 65, 66, 67, 68, 69, 70, 71, 72, 73, 74, 75, 76, 77, 78, 79, 80, 81, 82, 83, 84, 85, 86, 87, 88, 89, 90, 91, 92, 93, 94, 95, 96, 97, 98, 99, 100, 101, 102, 103, 104, 105, 106, 107, 108, 109, 110, 111, 112, 113, 114, 115, 116, 117, 118, 119, 120, 121, 122, 123, 124, 125, 126, 127, 128, 129, 130, 131, 132, 133, 134, 135, 136, 137, 138, 139, 140, 141, 142, 143, 144, 145, 146, 147, 148, 149, 150, 151, 152, 153, 154, 155, 156, 157, 158, 159, 160, 161, 162, 163, 164, 165, 166, 167, 168, 169, 170, 171, 172, 173, 174, 175, 176, 177, 178, 179, 180, 181, 182, 183, 184, 185, 186, 187, 188, 189, 190, 191, 192, 193, 194, 195, 196, 197, 198, 199, 200, 201, 202, 203, 204, 205, 206, 207, 208, 209, 210, 211, 212, 213, 214, 215, 216, 217, 218, 219, 220, 221, 222, 223, 224, 225, 226, 227, 228, 229, 230, 231, 232, 233, 234, 235, 236, 237, 238, 239, 240, 241, 242, 243, 244, 245, 246, 247, 248, 249, 250, 251, 252, 253, 254, 255, 256, 257, 258, 259, 260, 261, 262, 263, 264, 265, 266, 267, 268, 269, 270, 271, 272, 273, 274, 275, 276, 277, 278, 279, 280, 281, 282, 283, 284, 285, 286, 287, 288, 289, 290, 291, 292, 293, 294, 295, 296, 297, 298, 299, 300, 301, 302, 303, 304, 305, 306, 307, 308, 309, 310, 311, 312, 313, 314, 315, 316, 317, 318, 319, 320, 321, 322, 323, 324, 325, 326, 327, 328, 329, 330, 331, 332, 333, 334, 335, 336, 337, 338, 339, 340, 341, 342, 343, 344, 345, 346, 347, 348, 349, 350, 351, 352, 353, 354, 355, 356, 357, 358, 359, 360, 361, 362, 363, 364, 365, 366, 367, 368, 369, 370, 371, 372, 373, 374, 375, 376, 377, 378, 379, 380, 381, 382, 383, 384, 385, 386, 387, 388, 389, 390, 391, 392, 393, 394, 395, 396, 397, 398, 399, 400, 401, 402, 403, 404, 405, 406, 407, 408, 409, 410, 411, 412, 413, 414, 415, 416, 417, 418, 419, 420, 421, 422, 423, 424, 425, 426, 427, 428, 429, 430, 431, 432, 433, 434, 435, 436, 437, 438, 439, 440, 441, 442, 443, 444, 445, 446, 447, 448, 449, 450, 451, 452, 453, 454, 455, 456, 457, 458, 459, 460, 461, 462, 463, 464, 465, 466, 467, 468, 469, 470, 471, 472, 473, 474, 475, 476, 477, 478, 479, 480, 481, 482, 483, 484, 485, 486, 487, 488, 489, 490, 491, 492, 493, 494, 495, 496, 497, 498, 499, 500, 501, 502, 503, 504, 505, 506, 507, 508, 509, 510, 511, 512, 513, 514, 515, 516, 517, 518, 519, 520, 521, 522, 523, 524, 525, 526, 527, 528, 529, 530, 531, 532, 533, 534, 535, 536, 537, 538, 539, 540, 541, 542, 543, 544, 545, 546, 547, 548, 549, 550, 551, 552, 553, 554, 555, 556, 557, 558, 559, 560, 561, 562, 563, 564, 565, 566, 567, 568, 569, 570, 571, 572, 573, 574, 575, 576, 577, 578, 579, 580, 581, 582, 583, 584, 585, 586, 587, 588, 589, 590, 591, 592, 593, 594, 595, 596, 597, 598, 599, 600, 601, 602, 603, 604, 605, 606, 607, 608, 609, 610, 611, 612, 613, 614, 615, 616, 617, 618, 619, 620, 621, 622, 623, 624, 625, 626, 627, 628, 629, 630, 631, 632, 633, 634, 635, 636, 637, 638, 639, 640, 641, 642, 643, 644, 645, 646, 647, 648, 649, 650, 651, 652, 653, 654, 655, 656, 657, 658, 659, 660, 661, 662, 663, 664, 665, 666, 667, 668, 669, 670, 671, 672, 673, 674, 675, 676, 677, 678, 679, 680, 681, 682, 683, 684, 685, 686, 687, 688, 689, 690, 691, 692, 693, 694, 695, 696, 697, 698, 699, 700, 701, 702, 703, 704, 705, 706, 707, 708, 709, 710, 711, 712, 713, 714, 715, 716, 717, 718, 719, 720, 721, 722, 723, 724, 725, 726, 727, 728, 729, 730, 731, 732, 733, 734, 735, 736, 737, 738, 739, 740, 741, 742, 743, 744, 745, 746, 747, 748, 749, 750, 751, 752, 753, 754, 755, 756, 757, 758, 759, 760, 761, 762, 763, 764, 765, 766, 767, 768, 769, 770, 771, 772, 773, 774, 775, 776, 777, 778, 779, 780, 781, 782, 783, 784, 785, 786, 787, 788, 789, 790, 791, 792, 793, 794, 795, 796, 797, 798, 799, 800, 801, 802, 803, 804, 805, 806, 807, 808, 809, 810, 811, 812, 813, 814, 815, 816, 817, 818, 819, 820, 821, 822, 823, 824, 825, 826, 827, 828, 829, 830, 831, 832, 833, 834, 835, 836, 837, 838, 839, 840, 841, 842, 843, 844, 845, 846, 847, 848, 849, 850, 851, 852, 853, 854, 855, 856, 857, 858, 859, 860, 861, 862, 863, 864, 865, 866, 867, 868, 869, 870, 871, 872, 873, 874, 875, 876, 877, 878, 879, 880, 881, 882, 883, 884, 885, 886, 887, 888, 889, 890, 891, 892, 893, 894, 895, 896, 897, 898, 899, 900, 901, 902, 903, 904, 905, 906, 907, 908, 909, 910, 911, 912, 913, 914],
      "AcquisitionTime": ["172653.042500", "172653.502500", "172653.962500", "172654.422500", "172654.882500", "172655.342500", "172655.802500", "172656.262500", "172656.722500", "172657.182500", "172657.642500", "172658.102500", "172658.562500", "172659.022500", "172659.482500", "172659.942500", "172700.402500", "172700.862500", "172701.322500", "172701.782500", "172702.242500", "172702.702500", "172703.162500", "172703.622500", "172704.082500", "172704.542500", "172705.002500", "172705.462500", "172705.922500", "172706.382500", "172706.842500", "172707.302500", "172707.762500", "172708.222500", "172708.682500", "172709.142500", "172709.602500", "172710.062500", "172710.522500", "172710.982500", "172711.442500", "172711.902500", "172712.362500", "172712.822500", "172713.282500", "172713.742500", "172714.202500", "172714.662500", "172715.122500", "172715.582500", "172716.042500", "172716.502500", "172716.962500", "172717.422500", "172717.882500", "172718.342500", "172718.802500", "172719.262500", "172719.722500", "172720.182500", "172720.642500", "172721.102500", "172721.562500", "172722.022500", "172722.482500", "172722.942500", "172723.402500", "172723.862500", "172724.322500", "172724.782500", "172725.242500", "172725.702500", "172726.162500", "172726.622500", "172727.082500", "172727.542500", "172728.002500", "172728.462500", "172728.922500", "172729.382500", "172729.842500", "172730.302500", "172730.762500", "172731.222500", "172731.682500", "172732.142500", "172732.602500", "172733.062500", "172733.522500", "172733.982500", "172734.442500", "172734.902500", "172735.362500", "172735.822500", "172736.282500", "172736.742500", "172737.202500", "172737.662500", "172738.122500", "172738.582500", "172739.042500", "172739.502500", "172739.962500", "172740.422500", "172740.882500", "172741.342500", "172741.802500", "172742.262500", "172742.722500", "172743.182500", "172743.642500", "172744.102500", "172744.562500", "172745.022500", "172745.482500", "172745.942500", "172746.402500", "172746.862500", "172747.322500", "172747.782500", "172748.242500", "172748.702500", "172749.162500", "172749.622500", "172750.082500", "172750.542500", "172751.002500", "172751.462500", "172751.922500", "172752.382500", "172752.842500", "172753.302500", "172753.762500", "172754.222500", "172754.682500", "172755.142500", "172755.602500", "172756.062500", "172756.522500", "172756.982500", "172757.442500", "172757.902500", "172758.362500", "172758.822500", "172759.282500", "172759.742500", "172800.202500", "172800.662500", "172801.122500", "172801.582500", "172802.042500", "172802.502500", "172802.962500", "172803.422500", "172803.882500", "172804.342500", "172804.802500", "172805.262500", "172805.722500", "172806.182500", "172806.642500", "172807.102500", "172807.562500", "172808.022500", "172808.482500", "172808.942500", "172809.402500", "172809.862500", "172810.322500", "172810.782500", "172811.242500", "172811.702500", "172812.162500", "172812.622500", "172813.082500", "172813.542500", "172814.002500", "172814.462500", "172814.922500", "172815.382500", "172815.842500", "172816.302500", "172816.762500", "172817.222500", "172817.682500", "172818.142500", "172818.602500", "172819.062500", "172819.522500", "172819.982500", "172820.442500", "172820.902500", "172821.362500", "172821.822500", "172822.282500", "172822.742500", "172823.202500", "172823.662500", "172824.122500", "172824.582500", "172825.042500", "172825.502500", "172825.962500", "172826.422500", "172826.882500", "172827.342500", "172827.802500", "172828.262500", "172828.722500", "172829.182500", "172829.642500", "172830.102500", "172830.562500", "172831.022500", "172831.482500", "172831.942500", "172832.402500", "172832.862500", "172833.322500", "172833.782500", "172834.242500", "172834.702500", "172835.162500", "172835.622500", "172836.082500", "172836.542500", "172837.002500", "172837.462500", "172837.922500", "172838.382500", "172838.842500", "172839.302500", "172839.762500", "172840.222500", "172840.682500", "172841.142500", "172841.602500", "172842.062500", "172842.522500", "172842.982500", "172843.442500", "172843.902500", "172844.362500", "172844.822500", "172845.282500", "172845.742500", "172846.202500", "172846.662500", "172847.122500", "172847.582500", "172848.042500", "172848.502500", "172848.962500", "172849.422500", "172849.882500", "172850.342500", "172850.802500", "172851.262500", "172851.722500", "172852.182500", "172852.642500", "172853.102500", "172853.562500", "172854.022500", "172854.482500", "172854.942500", "172855.402500", "172855.862500", "172856.322500", "172856.782500", "172857.242500", "172857.702500", "172858.162500", "172858.622500", "172859.082500", "172859.542500", "172900.002500", "172900.462500", "172900.922500", "172901.382500", "172901.842500", "172902.302500", "172902.762500", "172903.222500", "172903.682500", "172904.142500", "172904.602500", "172905.062500", "172905.522500", "172905.982500", "172906.442500", "172906.902500", "172907.362500", "172907.822500", "172908.282500", "172908.742500", "172909.202500", "172909.662500", "172910.122500", "172910.582500", "172911.042500", "172911.502500", "172911.962500", "172912.422500", "172912.882500", "172913.342500", "172913.802500", "172914.262500", "172914.722500", "172915.182500", "172915.642500", "172916.102500", "172916.562500", "172917.022500", "172917.482500", "172917.942500", "172918.402500", "172918.862500", "172919.322500", "172919.782500", "172920.242500", "172920.702500", "172921.162500", "172921.622500", "172922.082500", "172922.542500", "172923.002500", "172923.462500", "172923.922500", "172924.382500", "172924.842500", "172925.302500", "172925.762500", "172926.222500", "172926.682500", "172927.142500", "172927.602500", "172928.062500", "172928.522500", "172928.982500", "172929.442500", "172929.902500", "172930.362500", "172930.822500", "172931.282500", "172931.742500", "172932.202500", "172932.662500", "172933.122500", "172933.582500", "172934.042500", "172934.502500", "172934.962500", "172935.422500", "172935.882500", "172936.342500", "172936.802500", "172937.262500", "172937.722500", "172938.182500", "172938.642500", "172939.102500", "172939.562500", "172940.022500", "172940.482500", "172940.942500", "172941.402500", "172941.862500", "172942.322500", "172942.782500", "172943.242500", "172943.702500", "172944.162500", "172944.622500", "172945.082500", "172945.542500", "172946.002500", "172946.462500", "172946.922500", "172947.382500", "172947.842500", "172948.302500", "172948.762500", "172949.222500", "172949.682500", "172950.142500", "172950.602500", "172951.062500", "172951.522500", "172951.982500", "172952.442500", "172952.902500", "172953.362500", "172953.822500", "172954.282500", "172954.742500", "172955.202500", "172955.662500", "172956.122500", "172956.582500", "172957.042500", "172957.502500", "172957.962500", "172958.422500", "172958.882500", "172959.342500", "172959.802500", "173000.262500", "173000.722500", "173001.182500", "173001.642500", "173002.102500", "173002.562500", "173003.022500", "173003.482500", "173003.942500", "173004.402500", "173004.862500", "173005.322500", "173005.782500", "173006.242500", "173006.702500", "173007.162500", "173007.622500", "173008.082500", "173008.542500", "173009.002500", "173009.462500", "173009.922500", "173010.382500", "173010.842500", "173011.302500", "173011.762500", "173012.222500", "173012.682500", "173013.142500", "173013.602500", "173014.062500", "173014.522500", "173014.982500", "173015.442500", "173015.902500", "173016.362500", "173016.822500", "173017.282500", "173017.742500", "173018.202500", "173018.662500", "173019.122500", "173019.582500", "173020.042500", "173020.502500", "173020.962500", "173021.422500", "173021.882500", "173022.342500", "173022.802500", "173023.262500", "173023.722500", "173024.182500", "173024.642500", "173025.102500", "173025.562500", "173026.022500", "173026.482500", "173026.942500", "173027.402500", "173027.862500", "173028.322500", "173028.782500", "173029.242500", "173029.702500", "173030.162500", "173030.622500", "173031.082500", "173031.542500", "173032.002500", "173032.462500", "173032.922500", "173033.382500", "173033.842500", "173034.302500", "173034.762500", "173035.222500", "173035.682500", "173036.142500", "173036.602500", "173037.062500", "173037.522500", "173037.982500", "173038.442500", "173038.902500", "173039.362500", "173039.822500", "173040.282500", "173040.742500", "173041.202500", "173041.662500", "173042.122500", "173042.582500", "173043.042500", "173043.502500", "173043.962500", "173044.422500", "173044.882500", "173045.342500", "173045.802500", "173046.262500", "173046.722500", "173047.182500", "173047.642500", "173048.102500", "173048.562500", "173049.022500", "173049.482500", "173049.942500", "173050.402500", "173050.862500", "173051.322500", "173051.782500", "173052.242500", "173052.702500", "173053.162500", "173053.622500", "173054.082500", "173054.542500", "173055.002500", "173055.462500", "173055.922500", "173056.382500", "173056.842500", "173057.302500", "173057.762500", "173058.222500", "173058.682500", "173059.142500", "173059.602500", "173100.062500", "173100.522500", "173100.982500", "173101.442500", "173101.902500", "173102.362500", "173102.822500", "173103.282500", "173103.742500", "173104.202500", "173104.662500", "173105.122500", "173105.582500", "173106.042500", "173106.502500", "173106.962500", "173107.422500", "173107.882500", "173108.342500", "173108.802500", "173109.262500", "173109.722500", "173110.182500", "173110.642500", "173111.102500", "173111.562500", "173112.022500", "173112.482500", "173112.942500", "173113.402500", "173113.862500", "173114.322500", "173114.782500", "173115.242500", "173115.702500", "173116.162500", "173116.622500", "173117.082500", "173117.542500", "173118.002500", "173118.462500", "173118.922500", "173119.382500", "173119.842500", "173120.302500", "173120.762500", "173121.222500", "173121.682500", "173122.142500", "173122.602500", "173123.062500", "173123.522500", "173123.982500", "173124.442500", "173124.902500", "173125.362500", "173125.822500", "173126.282500", "173126.742500", "173127.202500", "173127.662500", "173128.122500", "173128.582500", "173129.042500", "173129.502500", "173129.962500", "173130.422500", "173130.882500", "173131.342500", "173131.802500", "173132.262500", "173132.722500", "173133.182500", "173133.642500", "173134.102500", "173134.562500", "173135.022500", "173135.482500", "173135.942500", "173136.402500", "173136.862500", "173137.322500", "173137.782500", "173138.242500", "173138.702500", "173139.162500", "173139.622500", "173140.082500", "173140.542500", "173141.002500", "173141.462500", "173141.922500", "173142.382500", "173142.842500", "173143.302500", "173143.762500", "173144.222500", "173144.682500", "173145.142500", "173145.602500", "173146.062500", "173146.522500", "173146.982500", "173147.442500", "173147.902500", "173148.362500", "173148.822500", "173149.282500", "173149.742500", "173150.202500", "173150.662500", "173151.122500", "173151.582500", "173152.042500", "173152.502500", "173152.962500", "173153.422500", "173153.882500", "173154.342500", "173154.802500", "173155.262500", "173155.722500", "173156.182500", "173156.642500", "173157.102500", "173157.562500", "173158.022500", "173158.482500", "173158.942500", "173159.402500", "173159.862500", "173200.322500", "173200.782500", "173201.242500", "173201.702500", "173202.162500", "173202.622500", "173203.082500", "173203.542500", "173204.002500", "173204.462500", "173204.922500", "173205.382500", "173205.842500", "173206.302500", "173206.762500", "173207.222500", "173207.682500", "173208.142500", "173208.602500", "173209.062500", "173209.522500", "173209.982500", "173210.442500", "173210.902500", "173211.362500", "173211.822500", "173212.282500", "173212.742500", "173213.202500", "173213.662500", "173214.122500", "173214.582500", "173215.042500", "173215.502500", "173215.962500", "173216.422500", "173216.882500", "173217.342500", "173217.802500", "173218.262500", "173218.722500", "173219.182500", "173219.642500", "173220.102500", "173220.562500", "173221.022500", "173221.482500", "173221.942500", "173222.402500", "173222.862500", "173223.322500", "173223.782500", "173224.242500", "173224.702500", "173225.162500", "173225.622500", "173226.082500", "173226.542500", "173227.002500", "173227.462500", "173227.922500", "173228.382500", "173228.842500", "173229.302500", "173229.762500", "173230.222500", "173230.682500", "173231.142500", "173231.602500", "173232.062500", "173232.522500", "173232.982500", "173233.442500", "173233.902500", "173234.362500", "173234.822500", "173235.282500", "173235.742500", "173236.202500", "173236.662500", "173237.122500", "173237.582500", "173238.042500", "173238.502500", "173238.962500", "173239.422500", "173239.882500", "173240.342500", "173240.802500", "173241.262500", "173241.722500", "173242.182500", "173242.642500", "173243.102500", "173243.562500", "173244.022500", "173244.482500", "173244.942500", "173245.402500", "173245.862500", "173246.322500", "173246.782500", "173247.242500", "173247.702500", "173248.162500", "173248.622500", "173249.082500", "173249.542500", "173250.002500", "173250.462500", "173250.922500", "173251.382500", "173251.842500", "173252.302500", "173252.762500", "173253.222500", "173253.682500", "173254.142500", "173254.602500", "173255.062500", "173255.522500", "173255.982500", "173256.442500", "173256.902500", "173257.362500", "173257.822500", "173258.282500", "173258.742500", "173259.202500", "173259.662500", "173300.122500", "173300.582500", "173301.042500", "173301.502500", "173301.962500", "173302.422500", "173302.882500", "173303.342500", "173303.802500", "173304.262500", "173304.722500", "173305.182500", "173305.642500", "173306.102500", "173306.562500", "173307.022500", "173307.482500", "173307.942500", "173308.402500", "173308.862500", "173309.322500", "173309.782500", "173310.242500", "173310.702500", "173311.162500", "173311.622500", "173312.082500", "173312.542500", "173313.002500", "173313.462500", "173313.922500", "173314.382500", "173314.842500", "173315.302500", "173315.762500", "173316.222500", "173316.682500", "173317.142500", "173317.602500", "173318.062500", "173318.522500", "173318.982500", "173319.442500", "173319.902500", "173320.362500", "173320.822500", "173321.282500", "173321.742500", "173322.202500", "173322.662500", "173323.122500", "173323.582500", "173324.042500", "173324.502500", "173324.962500", "173325.422500", "173325.882500", "173326.342500", "173326.802500", "173327.262500", "173327.722500", "173328.182500", "173328.642500", "173329.102500", "173329.562500", "173330.022500", "173330.482500", "173330.942500", "173331.402500", "173331.862500", "173332.322500", "173332.782500", "173333.242500", "173333.702500", "173334.162500", "173334.622500", "173335.082500", "173335.542500", "173336.002500", "173336.462500", "173336.922500", "173337.382500", "173337.842500", "173338.302500", "173338.762500", "173339.222500", "173339.682500", "173340.142500", "173340.602500", "173341.062500", "173341.522500", "173341.982500", "173342.442500", "173342.902500", "173343.362500", "173343.822500", "173344.282500", "173344.742500", "173345.202500", "173345.662500", "173346.122500", "173346.582500", "173347.042500", "173347.502500", "173347.962500", "173348.422500", "173348.882500", "173349.342500", "173349.802500", "173350.262500", "173350.722500", "173351.182500", "173351.642500", "173352.102500", "173352.562500", "173353.022500"],
