{
  "AcquisitionMatrixPE": 82,
  "AcquisitionNumber": 1,
  "AcquisitionTime": "13:50:55.010000",
  "BandwidthPerPixelPhaseEncode": 24.888,
  "BaseResolution": 82,
  "BodyPartExamined": "BRAIN",
  "ConsistencyInfo": "N4_VE11C_LATEST_20160120",
  "ConversionSoftware": "dcm2niix",
  "ConversionSoftwareVersion": "v1.0.20201102",
  "DerivedVendorReportedEchoSpacing": 0.00049,
  "DeviceSerialNumber": "66112",
  "DwellTime": 2e-06,
  "EchoTime": 0.0272,
  "EchoTrainLength": 82,
  "EffectiveEchoSpacing": 0.00049,
  "FlipAngle": 44,
  "ImageComments": "Unaliased MB8/PE3",
  "ImageOrientationPatientDICOM": [0.99934, 0.0362429, -0.00247561, -0.0362948, 0.993237, -0.11029],
  "ImageType": [
    "ORIGINAL",
    "PRIMARY",
    "M",
    "MB",
    "ND",
    "NORM",
    "MOSAIC"
],
  "ImagingFrequency": 123.252,
  "InPlanePhaseEncodingDirectionDICOM": "COL",
  "InstitutionAddress": "Maynard 3,Hanover,NH,US,03755",
  "InstitutionName": "Dartmouth College - PBS",
  "InstitutionalDepartmentName": "Department",
  "MRAcquisitionType": "2D",
  "MagneticFieldStrength": 3,
  "Manufacturer": "Siemens",
  "ManufacturersModelName": "Prisma",
  "Modality": "MR",
  "MultibandAccelerationFactor": 8,
  "PartialFourier": 1,
  "PatientPosition": "HFS",
  "PercentPhaseFOV": 100,
  "PercentSampling": 100,
  "PhaseEncodingDirection": "j-",
  "PhaseEncodingSteps": 82,
  "PhaseResolution": 1,
  "PixelBandwidth": 3050,
  "ProcedureStepDescription": "Wager_Wager^1076_spacetop",
  "ProtocolName": "func_run-06_task-social_acq-ap-mb8",
  "PulseSequenceDetails": "%CustomerSeq%\\cmrr_mbep2d_bold",
  "ReceiveCoilActiveElements": "HEA;HEP",
  "ReceiveCoilName": "Head_32",
  "ReconMatrixPE": 82,
  "RepetitionTime": 0.46,
  "SAR": 0.114833,
  "ScanOptions": "FS",
  "ScanningSequence": "EP",
  "SequenceName": "epfid2d1_82",
  "SequenceVariant": "SK\\SS",
  "SeriesDescription": "func_run-06_task-social_acq-ap-mb8",
  "SeriesNumber": 22,
  "ShimSetting": [4169, -7708, -7228, 363, -38, -101, 15, 72],
  "SliceThickness": 2.7,
  "SliceTiming": [0, 0.2525, 0.0625, 0.315, 0.1275, 0.3775, 0.19, 0, 0.2525, 0.0625, 0.315, 0.1275, 0.3775, 0.19, 0, 0.2525, 0.0625, 0.315, 0.1275, 0.3775, 0.19, 0, 0.2525, 0.0625, 0.315, 0.1275, 0.3775, 0.19, 0, 0.2525, 0.0625, 0.315, 0.1275, 0.3775, 0.19, 0, 0.2525, 0.0625, 0.315, 0.1275, 0.3775, 0.19, 0, 0.2525, 0.0625, 0.315, 0.1275, 0.3775, 0.19, 0, 0.2525, 0.0625, 0.315, 0.1275, 0.3775, 0.19],
  "SoftwareVersions": "syngo MR E11",
  "SpacingBetweenSlices": 2.7,
  "StationName": "AWP66112",
  "TaskName": "social",
  "TotalReadoutTime": 0.03969,
  "TxRefAmp": 300.573,
  "WipMemBlock": "d7279aa3-9570-4ba6-890f-7cde6a487414||Sequence: R016 ve11c/master r/e634e98; Dec 19 2017 11:00:25 by eja",
  "dcmmeta_affine": [
    [-2.6811559200286865, -0.09737624228000641, 0.00415359390899539, 115.48279571533203],
    [-0.09723709523677826, 2.664780855178833, -0.29782935976982117, -77.49663543701172],
    [-0.0066418834030628204, 0.2959003150463104, 2.6835200786590576, -69.85901641845703],
    [0.0, 0.0, 0.0, 1.0]
],
  "dcmmeta_reorient_transform": [
    [0.0, -1.0, 0.0, 81.0],
    [1.0, 0.0, 0.0, 0.0],
    [0.0, 0.0, 1.0, 0.0],
    [0.0, 0.0, 0.0, 1.0]
],
  "dcmmeta_shape": [82, 82, 56, 872],
  "dcmmeta_slice_dim": 2,
  "dcmmeta_version": 0.6,
  "global": {
    "const": {
      "AccessionNumber": "A003797",
      "AcquisitionMatrix": [82, 0, 0, 82],
      "AngioFlag": "N",
      "BitsAllocated": 16,
      "BitsStored": 16,
      "BodyPartExamined": "BRAIN",
      "Columns": 656,
      "EchoNumbers": 1,
      "EchoTime": 27.2,
      "EchoTrainLength": 82,
      "FlipAngle": 44.0,
      "HighBit": 15,
      "ImageOrientationPatient": [0.99933994335365, 0.03624291611214, -0.0024756109571, -0.0362947798076, 0.99323651741731, -0.110290114822],
      "ImagePositionPatient": [-849.14011754816, -931.04980465128, 40.938522447947],
      "ImageType": [
        "ORIGINAL",
        "PRIMARY",
        "M",
        "MB",
        "ND",
        "NORM",
        "MOSAIC"
],
      "ImagedNucleus": "1H",
      "ImagingFrequency": 123.252161,
      "InPlanePhaseEncodingDirection": "COL",
      "MRAcquisitionType": "2D",
      "MagneticFieldStrength": 3.0,
      "Manufacturer": "SIEMENS",
      "ManufacturerModelName": "Prisma",
      "Modality": "MR",
      "NumberOfAverages": 1.0,
      "NumberOfPhaseEncodingSteps": 82,
      "PercentPhaseFieldOfView": 100.0,
      "PercentSampling": 100.0,
      "PerformedProcedureStepStartTime": "122831.472000",
      "PhotometricInterpretation": "MONOCHROME2",
      "PixelBandwidth": 3050.0,
      "PixelRepresentation": 0,
      "PixelSpacing": [2.6829268932343, 2.6829268932343],
      "ProtocolName": "func_run-06_task-social_acq-ap-mb8",
      "RepetitionTime": 460.0,
      "Rows": 656,
      "SAR": 0.11483327497719,
      "SamplesPerPixel": 1,
      "ScanOptions": "FS",
      "ScanningSequence": "EP",
      "SequenceName": "epfid2d1_82",
      "SequenceVariant": [
        "SK",
        "SS"
],
      "SeriesDescription": "func_run-06_task-social_acq-ap-mb8",
      "SeriesNumber": 22,
      "SeriesTime": "135117.744000",
      "SliceLocation": -60.706529692923,
      "SliceThickness": 2.7000000476837,
      "SmallestImagePixelValue": 0,
      "SoftwareVersions": "syngo MR E11",
      "SpacingBetweenSlices": 2.6999999364572,
      "SpecificCharacterSet": "ISO_IR 100",
      "StudyID": "1",
      "StudyTime": "122831.380000",
      "TransmitCoilName": "Body",
      "VariableFlipAngleFlag": "N",
      "WindowCenterWidthExplanation": "Algo1",
      "dBdt": 0.0},
    "slices": {}
  },
  "time": {
    "samples": {
      "AcquisitionNumber": [1, 2, 3, 4, 5, 6, 7, 8, 9, 10, 11, 12, 13, 14, 15, 16, 17, 18, 19, 20, 21, 22, 23, 24, 25, 26, 27, 28, 29, 30, 31, 32, 33, 34, 35, 36, 37, 38, 39, 40, 41, 42, 43, 44, 45, 46, 47, 48, 49, 50, 51, 52, 53, 54, 55, 56, 57, 58, 59, 60, 61, 62, 63, 64, 65, 66, 67, 68, 69, 70, 71, 72, 73, 74, 75, 76, 77, 78, 79, 80, 81, 82, 83, 84, 85, 86, 87, 88, 89, 90, 91, 92, 93, 94, 95, 96, 97, 98, 99, 100, 101, 102, 103, 104, 105, 106, 107, 108, 109, 110, 111, 112, 113, 114, 115, 116, 117, 118, 119, 120, 121, 122, 123, 124, 125, 126, 127, 128, 129, 130, 131, 132, 133, 134, 135, 136, 137, 138, 139, 140, 141, 142, 143, 144, 145, 146, 147, 148, 149, 150, 151, 152, 153, 154, 155, 156, 157, 158, 159, 160, 161, 162, 163, 164, 165, 166, 167, 168, 169, 170, 171, 172, 173, 174, 175, 176, 177, 178, 179, 180, 181, 182, 183, 184, 185, 186, 187, 188, 189, 190, 191, 192, 193, 194, 195, 196, 197, 198, 199, 200, 201, 202, 203, 204, 205, 206, 207, 208, 209, 210, 211, 212, 213, 214, 215, 216, 217, 218, 219, 220, 221, 222, 223, 224, 225, 226, 227, 228, 229, 230, 231, 232, 233, 234, 235, 236, 237, 238, 239, 240, 241, 242, 243, 244, 245, 246, 247, 248, 249, 250, 251, 252, 253, 254, 255, 256, 257, 258, 259, 260, 261, 262, 263, 264, 265, 266, 267, 268, 269, 270, 271, 272, 273, 274, 275, 276, 277, 278, 279, 280, 281, 282, 283, 284, 285, 286, 287, 288, 289, 290, 291, 292, 293, 294, 295, 296, 297, 298, 299, 300, 301, 302, 303, 304, 305, 306, 307, 308, 309, 310, 311, 312, 313, 314, 315, 316, 317, 318, 319, 320, 321, 322, 323, 324, 325, 326, 327, 328, 329, 330, 331, 332, 333, 334, 335, 336, 337, 338, 339, 340, 341, 342, 343, 344, 345, 346, 347, 348, 349, 350, 351, 352, 353, 354, 355, 356, 357, 358, 359, 360, 361, 362, 363, 364, 365, 366, 367, 368, 369, 370, 371, 372, 373, 374, 375, 376, 377, 378, 379, 380, 381, 382, 383, 384, 385, 386, 387, 388, 389, 390, 391, 392, 393, 394, 395, 396, 397, 398, 399, 400, 401, 402, 403, 404, 405, 406, 407, 408, 409, 410, 411, 412, 413, 414, 415, 416, 417, 418, 419, 420, 421, 422, 423, 424, 425, 426, 427, 428, 429, 430, 431, 432, 433, 434, 435, 436, 437, 438, 439, 440, 441, 442, 443, 444, 445, 446, 447, 448, 449, 450, 451, 452, 453, 454, 455, 456, 457, 458, 459, 460, 461, 462, 463, 464, 465, 466, 467, 468, 469, 470, 471, 472, 473, 474, 475, 476, 477, 478, 479, 480, 481, 482, 483, 484, 485, 486, 487, 488, 489, 490, 491, 492, 493, 494, 495, 496, 497, 498, 499, 500, 501, 502, 503, 504, 505, 506, 507, 508, 509, 510, 511, 512, 513, 514, 515, 516, 517, 518, 519, 520, 521, 522, 523, 524, 525, 526, 527, 528, 529, 530, 531, 532, 533, 534, 535, 536, 537, 538, 539, 540, 541, 542, 543, 544, 545, 546, 547, 548, 549, 550, 551, 552, 553, 554, 555, 556, 557, 558, 559, 560, 561, 562, 563, 564, 565, 566, 567, 568, 569, 570, 571, 572, 573, 574, 575, 576, 577, 578, 579, 580, 581, 582, 583, 584, 585, 586, 587, 588, 589, 590, 591, 592, 593, 594, 595, 596, 597, 598, 599, 600, 601, 602, 603, 604, 605, 606, 607, 608, 609, 610, 611, 612, 613, 614, 615, 616, 617, 618, 619, 620, 621, 622, 623, 624, 625, 626, 627, 628, 629, 630, 631, 632, 633, 634, 635, 636, 637, 638, 639, 640, 641, 642, 643, 644, 645, 646, 647, 648, 649, 650, 651, 652, 653, 654, 655, 656, 657, 658, 659, 660, 661, 662, 663, 664, 665, 666, 667, 668, 669, 670, 671, 672, 673, 674, 675, 676, 677, 678, 679, 680, 681, 682, 683, 684, 685, 686, 687, 688, 689, 690, 691, 692, 693, 694, 695, 696, 697, 698, 699, 700, 701, 702, 703, 704, 705, 706, 707, 708, 709, 710, 711, 712, 713, 714, 715, 716, 717, 718, 719, 720, 721, 722, 723, 724, 725, 726, 727, 728, 729, 730, 731, 732, 733, 734, 735, 736, 737, 738, 739, 740, 741, 742, 743, 744, 745, 746, 747, 748, 749, 750, 751, 752, 753, 754, 755, 756, 757, 758, 759, 760, 761, 762, 763, 764, 765, 766, 767, 768, 769, 770, 771, 772, 773, 774, 775, 776, 777, 778, 779, 780, 781, 782, 783, 784, 785, 786, 787, 788, 789, 790, 791, 792, 793, 794, 795, 796, 797, 798, 799, 800, 801, 802, 803, 804, 805, 806, 807, 808, 809, 810, 811, 812, 813, 814, 815, 816, 817, 818, 819, 820, 821, 822, 823, 824, 825, 826, 827, 828, 829, 830, 831, 832, 833, 834, 835, 836, 837, 838, 839, 840, 841, 842, 843, 844, 845, 846, 847, 848, 849, 850, 851, 852, 853, 854, 855, 856, 857, 858, 859, 860, 861, 862, 863, 864, 865, 866, 867, 868, 869, 870, 871, 872],
      "AcquisitionTime": ["135055.010000", "135055.470000", "135055.930000", "135056.390000", "135056.850000", "135057.310000", "135057.770000", "135058.230000", "135058.690000", "135059.150000", "135059.610000", "135100.070000", "135100.530000", "135100.990000", "135101.450000", "135101.910000", "135102.370000", "135102.830000", "135103.290000", "135103.750000", "135104.210000", "135104.670000", "135105.130000", "135105.590000", "135106.050000", "135106.510000", "135106.970000", "135107.430000", "135107.890000", "135108.350000", "135108.810000", "135109.270000", "135109.730000", "135110.190000", "135110.650000", "135111.110000", "135111.570000", "135112.030000", "135112.490000", "135112.950000", "135113.410000", "135113.870000", "135114.330000", "135114.790000", "135115.250000", "135115.710000", "135116.170000", "135116.630000", "135117.090000", "135117.550000", "135118.010000", "135118.470000", "135118.930000", "135119.390000", "135119.850000", "135120.310000", "135120.770000", "135121.230000", "135121.690000", "135122.150000", "135122.610000", "135123.070000", "135123.530000", "135123.990000", "135124.450000", "135124.910000", "135125.370000", "135125.830000", "135126.290000", "135126.750000", "135127.210000", "135127.670000", "135128.130000", "135128.590000", "135129.050000", "135129.510000", "135129.970000", "135130.430000", "135130.890000", "135131.350000", "135131.810000", "135132.270000", "135132.730000", "135133.190000", "135133.650000", "135134.110000", "135134.570000", "135135.030000", "135135.490000", "135135.950000", "135136.410000", "135136.870000", "135137.330000", "135137.790000", "135138.250000", "135138.710000", "135139.170000", "135139.630000", "135140.090000", "135140.550000", "135141.010000", "135141.470000", "135141.930000", "135142.390000", "135142.850000", "135143.310000", "135143.770000", "135144.230000", "135144.690000", "135145.150000", "135145.610000", "135146.070000", "135146.530000", "135146.990000", "135147.450000", "135147.910000", "135148.370000", "135148.830000", "135149.290000", "135149.750000", "135150.210000", "135150.670000", "135151.130000", "135151.590000", "135152.050000", "135152.510000", "135152.970000", "135153.430000", "135153.890000", "135154.350000", "135154.810000", "135155.270000", "135155.730000", "135156.190000", "135156.650000", "135157.110000", "135157.570000", "135158.030000", "135158.490000", "135158.950000", "135159.410000", "135159.870000", "135200.330000", "135200.790000", "135201.250000", "135201.710000", "135202.170000", "135202.630000", "135203.090000", "135203.550000", "135204.010000", "135204.470000", "135204.930000", "135205.390000", "135205.850000", "135206.310000", "135206.770000", "135207.230000", "135207.690000", "135208.150000", "135208.610000", "135209.070000", "135209.530000", "135209.990000", "135210.450000", "135210.910000", "135211.370000", "135211.830000", "135212.290000", "135212.750000", "135213.210000", "135213.670000", "135214.130000", "135214.590000", "135215.050000", "135215.510000", "135215.970000", "135216.430000", "135216.890000", "135217.350000", "135217.810000", "135218.270000", "135218.730000", "135219.190000", "135219.650000", "135220.110000", "135220.570000", "135221.030000", "135221.490000", "135221.950000", "135222.410000", "135222.870000", "135223.330000", "135223.790000", "135224.250000", "135224.710000", "135225.170000", "135225.630000", "135226.090000", "135226.550000", "135227.010000", "135227.470000", "135227.930000", "135228.390000", "135228.850000", "135229.310000", "135229.770000", "135230.230000", "135230.690000", "135231.150000", "135231.610000", "135232.070000", "135232.530000", "135232.990000", "135233.450000", "135233.910000", "135234.370000", "135234.830000", "135235.290000", "135235.750000", "135236.210000", "135236.670000", "135237.130000", "135237.590000", "135238.050000", "135238.510000", "135238.970000", "135239.430000", "135239.890000", "135240.350000", "135240.810000", "135241.270000", "135241.730000", "135242.190000", "135242.650000", "135243.110000", "135243.570000", "135244.030000", "135244.490000", "135244.950000", "135245.410000", "135245.870000", "135246.330000", "135246.790000", "135247.250000", "135247.710000", "135248.170000", "135248.630000", "135249.090000", "135249.550000", "135250.010000", "135250.470000", "135250.930000", "135251.390000", "135251.850000", "135252.310000", "135252.770000", "135253.230000", "135253.690000", "135254.150000", "135254.610000", "135255.070000", "135255.530000", "135255.990000", "135256.450000", "135256.910000", "135257.370000", "135257.830000", "135258.290000", "135258.750000", "135259.210000", "135259.670000", "135300.130000", "135300.590000", "135301.050000", "135301.510000", "135301.970000", "135302.430000", "135302.890000", "135303.350000", "135303.810000", "135304.270000", "135304.730000", "135305.190000", "135305.650000", "135306.110000", "135306.570000", "135307.030000", "135307.490000", "135307.950000", "135308.410000", "135308.870000", "135309.330000", "135309.790000", "135310.250000", "135310.710000", "135311.170000", "135311.630000", "135312.090000", "135312.550000", "135313.010000", "135313.470000", "135313.930000", "135314.390000", "135314.850000", "135315.310000", "135315.770000", "135316.230000", "135316.690000", "135317.150000", "135317.610000", "135318.070000", "135318.530000", "135318.990000", "135319.450000", "135319.910000", "135320.370000", "135320.830000", "135321.290000", "135321.750000", "135322.210000", "135322.670000", "135323.130000", "135323.590000", "135324.050000", "135324.510000", "135324.970000", "135325.430000", "135325.890000", "135326.350000", "135326.810000", "135327.270000", "135327.730000", "135328.190000", "135328.650000", "135329.110000", "135329.570000", "135330.030000", "135330.490000", "135330.950000", "135331.410000", "135331.870000", "135332.330000", "135332.790000", "135333.250000", "135333.710000", "135334.170000", "135334.630000", "135335.090000", "135335.550000", "135336.010000", "135336.470000", "135336.930000", "135337.390000", "135337.850000", "135338.310000", "135338.770000", "135339.230000", "135339.690000", "135340.150000", "135340.610000", "135341.070000", "135341.530000", "135341.990000", "135342.450000", "135342.910000", "135343.370000", "135343.830000", "135344.290000", "135344.750000", "135345.210000", "135345.670000", "135346.130000", "135346.590000", "135347.050000", "135347.510000", "135347.970000", "135348.430000", "135348.890000", "135349.350000", "135349.810000", "135350.270000", "135350.730000", "135351.190000", "135351.650000", "135352.110000", "135352.570000", "135353.030000", "135353.490000", "135353.950000", "135354.410000", "135354.870000", "135355.330000", "135355.790000", "135356.250000", "135356.710000", "135357.170000", "135357.630000", "135358.090000", "135358.550000", "135359.010000", "135359.470000", "135359.930000", "135400.390000", "135400.850000", "135401.310000", "135401.770000", "135402.230000", "135402.690000", "135403.150000", "135403.610000", "135404.070000", "135404.530000", "135404.990000", "135405.450000", "135405.910000", "135406.370000", "135406.830000", "135407.290000", "135407.750000", "135408.210000", "135408.670000", "135409.130000", "135409.590000", "135410.050000", "135410.510000", "135410.970000", "135411.430000", "135411.890000", "135412.350000", "135412.810000", "135413.270000", "135413.730000", "135414.190000", "135414.650000", "135415.110000", "135415.570000", "135416.030000", "135416.490000", "135416.950000", "135417.410000", "135417.870000", "135418.330000", "135418.790000", "135419.250000", "135419.710000", "135420.170000", "135420.630000", "135421.090000", "135421.550000", "135422.010000", "135422.470000", "135422.930000", "135423.390000", "135423.850000", "135424.310000", "135424.770000", "135425.230000", "135425.690000", "135426.150000", "135426.610000", "135427.070000", "135427.530000", "135427.990000", "135428.450000", "135428.910000", "135429.370000", "135429.830000", "135430.290000", "135430.750000", "135431.210000", "135431.670000", "135432.130000", "135432.590000", "135433.050000", "135433.510000", "135433.970000", "135434.430000", "135434.890000", "135435.350000", "135435.810000", "135436.270000", "135436.730000", "135437.190000", "135437.650000", "135438.110000", "135438.570000", "135439.030000", "135439.490000", "135439.950000", "135440.410000", "135440.870000", "135441.330000", "135441.790000", "135442.250000", "135442.710000", "135443.170000", "135443.630000", "135444.090000", "135444.550000", "135445.010000", "135445.470000", "135445.930000", "135446.390000", "135446.850000", "135447.310000", "135447.770000", "135448.230000", "135448.690000", "135449.150000", "135449.610000", "135450.070000", "135450.530000", "135450.990000", "135451.450000", "135451.910000", "135452.370000", "135452.830000", "135453.290000", "135453.750000", "135454.210000", "135454.670000", "135455.130000", "135455.590000", "135456.050000", "135456.510000", "135456.970000", "135457.430000", "135457.890000", "135458.350000", "135458.810000", "135459.270000", "135459.730000", "135500.190000", "135500.650000", "135501.110000", "135501.570000", "135502.030000", "135502.490000", "135502.950000", "135503.410000", "135503.870000", "135504.330000", "135504.790000", "135505.250000", "135505.710000", "135506.170000", "135506.630000", "135507.090000", "135507.550000", "135508.010000", "135508.470000", "135508.930000", "135509.390000", "135509.850000", "135510.310000", "135510.770000", "135511.230000", "135511.690000", "135512.150000", "135512.610000", "135513.070000", "135513.530000", "135513.990000", "135514.450000", "135514.910000", "135515.370000", "135515.830000", "135516.290000", "135516.750000", "135517.210000", "135517.670000", "135518.130000", "135518.590000", "135519.050000", "135519.510000", "135519.970000", "135520.430000", "135520.890000", "135521.350000", "135521.810000", "135522.270000", "135522.730000", "135523.190000", "135523.650000", "135524.110000", "135524.570000", "135525.030000", "135525.490000", "135525.950000", "135526.410000", "135526.870000", "135527.330000", "135527.790000", "135528.250000", "135528.710000", "135529.170000", "135529.630000", "135530.090000", "135530.550000", "135531.010000", "135531.470000", "135531.930000", "135532.390000", "135532.850000", "135533.310000", "135533.770000", "135534.230000", "135534.690000", "135535.150000", "135535.610000", "135536.070000", "135536.530000", "135536.990000", "135537.450000", "135537.910000", "135538.370000", "135538.830000", "135539.290000", "135539.750000", "135540.210000", "135540.670000", "135541.130000", "135541.590000", "135542.050000", "135542.510000", "135542.970000", "135543.430000", "135543.890000", "135544.350000", "135544.810000", "135545.270000", "135545.730000", "135546.190000", "135546.650000", "135547.110000", "135547.570000", "135548.030000", "135548.490000", "135548.950000", "135549.410000", "135549.870000", "135550.330000", "135550.790000", "135551.250000", "135551.710000", "135552.170000", "135552.630000", "135553.090000", "135553.550000", "135554.010000", "135554.470000", "135554.930000", "135555.390000", "135555.850000", "135556.310000", "135556.770000", "135557.230000", "135557.690000", "135558.150000", "135558.610000", "135559.070000", "135559.530000", "135559.990000", "135600.450000", "135600.910000", "135601.370000", "135601.830000", "135602.290000", "135602.750000", "135603.210000", "135603.670000", "135604.130000", "135604.590000", "135605.050000", "135605.510000", "135605.970000", "135606.430000", "135606.890000", "135607.350000", "135607.810000", "135608.270000", "135608.730000", "135609.190000", "135609.650000", "135610.110000", "135610.570000", "135611.030000", "135611.490000", "135611.950000", "135612.410000", "135612.870000", "135613.330000", "135613.790000", "135614.250000", "135614.710000", "135615.170000", "135615.630000", "135616.090000", "135616.550000", "135617.010000", "135617.470000", "135617.930000", "135618.390000", "135618.850000", "135619.310000", "135619.770000", "135620.230000", "135620.690000", "135621.150000", "135621.610000", "135622.070000", "135622.530000", "135622.990000", "135623.450000", "135623.910000", "135624.370000", "135624.830000", "135625.290000", "135625.750000", "135626.210000", "135626.670000", "135627.130000", "135627.590000", "135628.050000", "135628.510000", "135628.970000", "135629.430000", "135629.890000", "135630.350000", "135630.810000", "135631.270000", "135631.730000", "135632.190000", "135632.650000", "135633.110000", "135633.570000", "135634.030000", "135634.490000", "135634.950000", "135635.410000", "135635.870000", "135636.330000", "135636.790000", "135637.250000", "135637.710000", "135638.170000", "135638.630000", "135639.090000", "135639.550000", "135640.010000", "135640.470000", "135640.930000", "135641.390000", "135641.850000", "135642.310000", "135642.770000", "135643.230000", "135643.690000", "135644.150000", "135644.610000", "135645.070000", "135645.530000", "135645.990000", "135646.450000", "135646.910000", "135647.370000", "135647.830000", "135648.290000", "135648.750000", "135649.210000", "135649.670000", "135650.130000", "135650.590000", "135651.050000", "135651.510000", "135651.970000", "135652.430000", "135652.890000", "135653.350000", "135653.810000", "135654.270000", "135654.730000", "135655.190000", "135655.650000", "135656.110000", "135656.570000", "135657.030000", "135657.490000", "135657.950000", "135658.410000", "135658.870000", "135659.330000", "135659.790000", "135700.250000", "135700.710000", "135701.170000", "135701.630000", "135702.090000", "135702.550000", "135703.010000", "135703.470000", "135703.930000", "135704.390000", "135704.850000", "135705.310000", "135705.770000", "135706.230000", "135706.690000", "135707.150000", "135707.610000", "135708.070000", "135708.530000", "135708.990000", "135709.450000", "135709.910000", "135710.370000", "135710.830000", "135711.290000", "135711.750000", "135712.210000", "135712.670000", "135713.130000", "135713.590000", "135714.050000", "135714.510000", "135714.970000", "135715.430000", "135715.890000", "135716.350000", "135716.810000", "135717.270000", "135717.730000", "135718.190000", "135718.650000", "135719.110000", "135719.570000", "135720.030000", "135720.490000", "135720.950000", "135721.410000", "135721.870000", "135722.330000", "135722.790000", "135723.250000", "135723.710000", "135724.170000", "135724.630000", "135725.090000", "135725.550000", "135726.010000", "135726.470000", "135726.930000", "135727.390000", "135727.850000", "135728.310000", "135728.770000", "135729.230000", "135729.690000", "135730.150000", "135730.610000", "135731.070000", "135731.530000", "135731.990000", "135732.450000", "135732.910000", "135733.370000", "135733.830000", "135734.290000", "135734.750000", "135735.210000", "135735.670000"],
