{
  "AcquisitionMatrixPE": 82,
  "AcquisitionNumber": 1,
  "AcquisitionTime": "13:42:27.982500",
  "BandwidthPerPixelPhaseEncode": 24.888,
  "BaseResolution": 82,
  "BodyPartExamined": "BRAIN",
  "ConsistencyInfo": "N4_VE11C_LATEST_20160120",
  "ConversionSoftware": "dcm2niix",
  "ConversionSoftwareVersion": "v1.0.20201102",
  "DerivedVendorReportedEchoSpacing": 0.00049,
  "DeviceSerialNumber": "66112",
  "DwellTime": 2e-06,
  "EchoTime": 0.0272,
  "EchoTrainLength": 82,
  "EffectiveEchoSpacing": 0.00049,
  "FlipAngle": 44,
  "ImageComments": "Unaliased MB8/PE3",
  "ImageOrientationPatientDICOM": [0.99934, 0.0362429, -0.00247561, -0.0362948, 0.993237, -0.11029],
  "ImageType": [
    "ORIGINAL",
    "PRIMARY",
    "M",
    "MB",
    "ND",
    "NORM",
    "MOSAIC"
],
  "ImagingFrequency": 123.252,
  "InPlanePhaseEncodingDirectionDICOM": "COL",
  "InstitutionAddress": "Maynard 3,Hanover,NH,US,03755",
  "InstitutionName": "Dartmouth College - PBS",
  "InstitutionalDepartmentName": "Department",
  "MRAcquisitionType": "2D",
  "MagneticFieldStrength": 3,
  "Manufacturer": "Siemens",
  "ManufacturersModelName": "Prisma",
  "Modality": "MR",
  "MultibandAccelerationFactor": 8,
  "PartialFourier": 1,
  "PatientPosition": "HFS",
  "PercentPhaseFOV": 100,
  "PercentSampling": 100,
  "PhaseEncodingDirection": "j-",
  "PhaseEncodingSteps": 82,
  "PhaseResolution": 1,
  "PixelBandwidth": 3050,
  "ProcedureStepDescription": "Wager_Wager^1076_spacetop",
  "ProtocolName": "func_run-05_task-social_acq-ap-mb8",
  "PulseSequenceDetails": "%CustomerSeq%\\cmrr_mbep2d_bold",
  "ReceiveCoilActiveElements": "HEA;HEP",
  "ReceiveCoilName": "Head_32",
  "ReconMatrixPE": 82,
  "RepetitionTime": 0.46,
  "SAR": 0.114833,
  "ScanOptions": "FS",
  "ScanningSequence": "EP",
  "SequenceName": "epfid2d1_82",
  "SequenceVariant": "SK\\SS",
  "SeriesDescription": "func_run-05_task-social_acq-ap-mb8",
  "SeriesNumber": 20,
  "ShimSetting": [4169, -7708, -7228, 363, -38, -101, 15, 72],
  "SliceThickness": 2.7,
  "SliceTiming": [0, 0.2525, 0.0625, 0.315, 0.125, 0.3775, 0.1875, 0, 0.2525, 0.0625, 0.315, 0.125, 0.3775, 0.1875, 0, 0.2525, 0.0625, 0.315, 0.125, 0.3775, 0.1875, 0, 0.2525, 0.0625, 0.315, 0.125, 0.3775, 0.1875, 0, 0.2525, 0.0625, 0.315, 0.125, 0.3775, 0.1875, 0, 0.2525, 0.0625, 0.315, 0.125, 0.3775, 0.1875, 0, 0.2525, 0.0625, 0.315, 0.125, 0.3775, 0.1875, 0, 0.2525, 0.0625, 0.315, 0.125, 0.3775, 0.1875],
  "SoftwareVersions": "syngo MR E11",
  "SpacingBetweenSlices": 2.7,
  "StationName": "AWP66112",
  "TaskName": "social",
  "TotalReadoutTime": 0.03969,
  "TxRefAmp": 300.573,
  "WipMemBlock": "223e5897-0363-4dbb-93d7-0bd0c82666f9||Sequence: R016 ve11c/master r/e634e98; Dec 19 2017 11:00:25 by eja",
  "dcmmeta_affine": [
    [-2.6811559200286865, -0.09737624228000641, 0.00415359390899539, 115.48279571533203],
    [-0.09723709523677826, 2.664780855178833, -0.29782935976982117, -77.49663543701172],
    [-0.0066418834030628204, 0.2959003150463104, 2.6835200786590576, -69.85901641845703],
    [0.0, 0.0, 0.0, 1.0]
],
  "dcmmeta_reorient_transform": [
    [0.0, -1.0, 0.0, 81.0],
    [1.0, 0.0, 0.0, 0.0],
    [0.0, 0.0, 1.0, 0.0],
    [0.0, 0.0, 0.0, 1.0]
],
  "dcmmeta_shape": [82, 82, 56, 872],
  "dcmmeta_slice_dim": 2,
  "dcmmeta_version": 0.6,
  "global": {
    "const": {
      "AccessionNumber": "A003797",
      "AcquisitionMatrix": [82, 0, 0, 82],
      "AngioFlag": "N",
      "BitsAllocated": 16,
      "BitsStored": 16,
      "BodyPartExamined": "BRAIN",
      "Columns": 656,
      "EchoNumbers": 1,
      "EchoTime": 27.2,
      "EchoTrainLength": 82,
      "FlipAngle": 44.0,
      "HighBit": 15,
      "ImageOrientationPatient": [0.99933994335365, 0.03624291611214, -0.0024756109571, -0.0362947798076, 0.99323651741731, -0.110290114822],
      "ImagePositionPatient": [-849.14011754816, -931.04980465128, 40.938522447947],
      "ImageType": [
        "ORIGINAL",
        "PRIMARY",
        "M",
        "MB",
        "ND",
        "NORM",
        "MOSAIC"
],
      "ImagedNucleus": "1H",
      "ImagingFrequency": 123.252158,
      "InPlanePhaseEncodingDirection": "COL",
      "MRAcquisitionType": "2D",
      "MagneticFieldStrength": 3.0,
      "Manufacturer": "SIEMENS",
      "ManufacturerModelName": "Prisma",
      "Modality": "MR",
      "NumberOfAverages": 1.0,
      "NumberOfPhaseEncodingSteps": 82,
      "PercentPhaseFieldOfView": 100.0,
      "PercentSampling": 100.0,
      "PerformedProcedureStepStartTime": "122831.472000",
      "PhotometricInterpretation": "MONOCHROME2",
      "PixelBandwidth": 3050.0,
      "PixelRepresentation": 0,
      "PixelSpacing": [2.6829268932343, 2.6829268932343],
      "ProtocolName": "func_run-05_task-social_acq-ap-mb8",
      "RepetitionTime": 460.0,
      "Rows": 656,
      "SAR": 0.11483327497719,
      "SamplesPerPixel": 1,
      "ScanOptions": "FS",
      "ScanningSequence": "EP",
      "SequenceName": "epfid2d1_82",
      "SequenceVariant": [
        "SK",
        "SS"
],
      "SeriesDescription": "func_run-05_task-social_acq-ap-mb8",
      "SeriesNumber": 20,
      "SeriesTime": "134257.688000",
      "SliceLocation": -60.706529692923,
      "SliceThickness": 2.7000000476837,
      "SmallestImagePixelValue": 0,
      "SoftwareVersions": "syngo MR E11",
      "SpacingBetweenSlices": 2.6999999364572,
      "SpecificCharacterSet": "ISO_IR 100",
      "StudyID": "1",
      "StudyTime": "122831.380000",
      "TransmitCoilName": "Body",
      "VariableFlipAngleFlag": "N",
      "WindowCenterWidthExplanation": "Algo1",
      "dBdt": 0.0},
    "slices": {}
  },
  "time": {
    "samples": {
      "AcquisitionNumber": [1, 2, 3, 4, 5, 6, 7, 8, 9, 10, 11, 12, 13, 14, 15, 16, 17, 18, 19, 20, 21, 22, 23, 24, 25, 26, 27, 28, 29, 30, 31, 32, 33, 34, 35, 36, 37, 38, 39, 40, 41, 42, 43, 44, 45, 46, 47, 48, 49, 50, 51, 52, 53, 54, 55, 56, 57, 58, 59, 60, 61, 62, 63, 64, 65, 66, 67, 68, 69, 70, 71, 72, 73, 74, 75, 76, 77, 78, 79, 80, 81, 82, 83, 84, 85, 86, 87, 88, 89, 90, 91, 92, 93, 94, 95, 96, 97, 98, 99, 100, 101, 102, 103, 104, 105, 106, 107, 108, 109, 110, 111, 112, 113, 114, 115, 116, 117, 118, 119, 120, 121, 122, 123, 124, 125, 126, 127, 128, 129, 130, 131, 132, 133, 134, 135, 136, 137, 138, 139, 140, 141, 142, 143, 144, 145, 146, 147, 148, 149, 150, 151, 152, 153, 154, 155, 156, 157, 158, 159, 160, 161, 162, 163, 164, 165, 166, 167, 168, 169, 170, 171, 172, 173, 174, 175, 176, 177, 178, 179, 180, 181, 182, 183, 184, 185, 186, 187, 188, 189, 190, 191, 192, 193, 194, 195, 196, 197, 198, 199, 200, 201, 202, 203, 204, 205, 206, 207, 208, 209, 210, 211, 212, 213, 214, 215, 216, 217, 218, 219, 220, 221, 222, 223, 224, 225, 226, 227, 228, 229, 230, 231, 232, 233, 234, 235, 236, 237, 238, 239, 240, 241, 242, 243, 244, 245, 246, 247, 248, 249, 250, 251, 252, 253, 254, 255, 256, 257, 258, 259, 260, 261, 262, 263, 264, 265, 266, 267, 268, 269, 270, 271, 272, 273, 274, 275, 276, 277, 278, 279, 280, 281, 282, 283, 284, 285, 286, 287, 288, 289, 290, 291, 292, 293, 294, 295, 296, 297, 298, 299, 300, 301, 302, 303, 304, 305, 306, 307, 308, 309, 310, 311, 312, 313, 314, 315, 316, 317, 318, 319, 320, 321, 322, 323, 324, 325, 326, 327, 328, 329, 330, 331, 332, 333, 334, 335, 336, 337, 338, 339, 340, 341, 342, 343, 344, 345, 346, 347, 348, 349, 350, 351, 352, 353, 354, 355, 356, 357, 358, 359, 360, 361, 362, 363, 364, 365, 366, 367, 368, 369, 370, 371, 372, 373, 374, 375, 376, 377, 378, 379, 380, 381, 382, 383, 384, 385, 386, 387, 388, 389, 390, 391, 392, 393, 394, 395, 396, 397, 398, 399, 400, 401, 402, 403, 404, 405, 406, 407, 408, 409, 410, 411, 412, 413, 414, 415, 416, 417, 418, 419, 420, 421, 422, 423, 424, 425, 426, 427, 428, 429, 430, 431, 432, 433, 434, 435, 436, 437, 438, 439, 440, 441, 442, 443, 444, 445, 446, 447, 448, 449, 450, 451, 452, 453, 454, 455, 456, 457, 458, 459, 460, 461, 462, 463, 464, 465, 466, 467, 468, 469, 470, 471, 472, 473, 474, 475, 476, 477, 478, 479, 480, 481, 482, 483, 484, 485, 486, 487, 488, 489, 490, 491, 492, 493, 494, 495, 496, 497, 498, 499, 500, 501, 502, 503, 504, 505, 506, 507, 508, 509, 510, 511, 512, 513, 514, 515, 516, 517, 518, 519, 520, 521, 522, 523, 524, 525, 526, 527, 528, 529, 530, 531, 532, 533, 534, 535, 536, 537, 538, 539, 540, 541, 542, 543, 544, 545, 546, 547, 548, 549, 550, 551, 552, 553, 554, 555, 556, 557, 558, 559, 560, 561, 562, 563, 564, 565, 566, 567, 568, 569, 570, 571, 572, 573, 574, 575, 576, 577, 578, 579, 580, 581, 582, 583, 584, 585, 586, 587, 588, 589, 590, 591, 592, 593, 594, 595, 596, 597, 598, 599, 600, 601, 602, 603, 604, 605, 606, 607, 608, 609, 610, 611, 612, 613, 614, 615, 616, 617, 618, 619, 620, 621, 622, 623, 624, 625, 626, 627, 628, 629, 630, 631, 632, 633, 634, 635, 636, 637, 638, 639, 640, 641, 642, 643, 644, 645, 646, 647, 648, 649, 650, 651, 652, 653, 654, 655, 656, 657, 658, 659, 660, 661, 662, 663, 664, 665, 666, 667, 668, 669, 670, 671, 672, 673, 674, 675, 676, 677, 678, 679, 680, 681, 682, 683, 684, 685, 686, 687, 688, 689, 690, 691, 692, 693, 694, 695, 696, 697, 698, 699, 700, 701, 702, 703, 704, 705, 706, 707, 708, 709, 710, 711, 712, 713, 714, 715, 716, 717, 718, 719, 720, 721, 722, 723, 724, 725, 726, 727, 728, 729, 730, 731, 732, 733, 734, 735, 736, 737, 738, 739, 740, 741, 742, 743, 744, 745, 746, 747, 748, 749, 750, 751, 752, 753, 754, 755, 756, 757, 758, 759, 760, 761, 762, 763, 764, 765, 766, 767, 768, 769, 770, 771, 772, 773, 774, 775, 776, 777, 778, 779, 780, 781, 782, 783, 784, 785, 786, 787, 788, 789, 790, 791, 792, 793, 794, 795, 796, 797, 798, 799, 800, 801, 802, 803, 804, 805, 806, 807, 808, 809, 810, 811, 812, 813, 814, 815, 816, 817, 818, 819, 820, 821, 822, 823, 824, 825, 826, 827, 828, 829, 830, 831, 832, 833, 834, 835, 836, 837, 838, 839, 840, 841, 842, 843, 844, 845, 846, 847, 848, 849, 850, 851, 852, 853, 854, 855, 856, 857, 858, 859, 860, 861, 862, 863, 864, 865, 866, 867, 868, 869, 870, 871, 872],
      "AcquisitionTime": ["134227.982500", "134228.442500", "134228.902500", "134229.362500", "134229.822500", "134230.282500", "134230.742500", "134231.202500", "134231.662500", "134232.122500", "134232.582500", "134233.042500", "134233.502500", "134233.962500", "134234.422500", "134234.882500", "134235.342500", "134235.802500", "134236.262500", "134236.722500", "134237.182500", "134237.642500", "134238.102500", "134238.562500", "134239.022500", "134239.482500", "134239.942500", "134240.402500", "134240.862500", "134241.322500", "134241.782500", "134242.242500", "134242.702500", "134243.162500", "134243.622500", "134244.082500", "134244.542500", "134245.002500", "134245.462500", "134245.922500", "134246.382500", "134246.842500", "134247.302500", "134247.762500", "134248.222500", "134248.682500", "134249.142500", "134249.602500", "134250.062500", "134250.522500", "134250.982500", "134251.442500", "134251.902500", "134252.362500", "134252.822500", "134253.282500", "134253.742500", "134254.202500", "134254.662500", "134255.122500", "134255.582500", "134256.042500", "134256.502500", "134256.962500", "134257.422500", "134257.882500", "134258.342500", "134258.802500", "134259.262500", "134259.722500", "134300.182500", "134300.642500", "134301.102500", "134301.562500", "134302.022500", "134302.482500", "134302.942500", "134303.402500", "134303.862500", "134304.322500", "134304.782500", "134305.242500", "134305.702500", "134306.162500", "134306.622500", "134307.082500", "134307.542500", "134308.002500", "134308.462500", "134308.922500", "134309.382500", "134309.842500", "134310.302500", "134310.762500", "134311.222500", "134311.682500", "134312.142500", "134312.602500", "134313.062500", "134313.522500", "134313.982500", "134314.442500", "134314.902500", "134315.362500", "134315.822500", "134316.282500", "134316.742500", "134317.202500", "134317.662500", "134318.122500", "134318.582500", "134319.042500", "134319.502500", "134319.962500", "134320.422500", "134320.882500", "134321.342500", "134321.802500", "134322.262500", "134322.722500", "134323.182500", "134323.642500", "134324.102500", "134324.562500", "134325.022500", "134325.482500", "134325.942500", "134326.402500", "134326.862500", "134327.322500", "134327.782500", "134328.242500", "134328.702500", "134329.162500", "134329.622500", "134330.082500", "134330.542500", "134331.002500", "134331.462500", "134331.922500", "134332.382500", "134332.842500", "134333.302500", "134333.762500", "134334.222500", "134334.682500", "134335.142500", "134335.602500", "134336.062500", "134336.522500", "134336.982500", "134337.442500", "134337.902500", "134338.362500", "134338.822500", "134339.282500", "134339.742500", "134340.202500", "134340.662500", "134341.122500", "134341.582500", "134342.042500", "134342.502500", "134342.962500", "134343.422500", "134343.882500", "134344.342500", "134344.802500", "134345.262500", "134345.722500", "134346.182500", "134346.642500", "134347.102500", "134347.562500", "134348.022500", "134348.482500", "134348.942500", "134349.402500", "134349.862500", "134350.322500", "134350.782500", "134351.242500", "134351.702500", "134352.162500", "134352.622500", "134353.082500", "134353.542500", "134354.002500", "134354.462500", "134354.922500", "134355.382500", "134355.842500", "134356.302500", "134356.762500", "134357.222500", "134357.682500", "134358.142500", "134358.602500", "134359.062500", "134359.522500", "134359.982500", "134400.442500", "134400.902500", "134401.362500", "134401.822500", "134402.282500", "134402.742500", "134403.202500", "134403.662500", "134404.122500", "134404.582500", "134405.042500", "134405.502500", "134405.962500", "134406.422500", "134406.882500", "134407.342500", "134407.802500", "134408.262500", "134408.722500", "134409.182500", "134409.642500", "134410.102500", "134410.562500", "134411.022500", "134411.482500", "134411.942500", "134412.402500", "134412.862500", "134413.322500", "134413.782500", "134414.242500", "134414.702500", "134415.162500", "134415.622500", "134416.082500", "134416.542500", "134417.002500", "134417.462500", "134417.922500", "134418.382500", "134418.842500", "134419.302500", "134419.762500", "134420.222500", "134420.682500", "134421.142500", "134421.602500", "134422.062500", "134422.522500", "134422.982500", "134423.442500", "134423.902500", "134424.362500", "134424.822500", "134425.282500", "134425.742500", "134426.202500", "134426.662500", "134427.122500", "134427.582500", "134428.042500", "134428.502500", "134428.962500", "134429.422500", "134429.882500", "134430.342500", "134430.802500", "134431.262500", "134431.722500", "134432.182500", "134432.642500", "134433.102500", "134433.562500", "134434.022500", "134434.482500", "134434.942500", "134435.402500", "134435.862500", "134436.322500", "134436.782500", "134437.242500", "134437.702500", "134438.162500", "134438.622500", "134439.082500", "134439.542500", "134440.002500", "134440.462500", "134440.922500", "134441.382500", "134441.842500", "134442.302500", "134442.762500", "134443.222500", "134443.682500", "134444.142500", "134444.602500", "134445.062500", "134445.522500", "134445.982500", "134446.442500", "134446.902500", "134447.362500", "134447.822500", "134448.282500", "134448.742500", "134449.202500", "134449.662500", "134450.122500", "134450.582500", "134451.042500", "134451.502500", "134451.962500", "134452.422500", "134452.882500", "134453.342500", "134453.802500", "134454.262500", "134454.722500", "134455.182500", "134455.642500", "134456.102500", "134456.562500", "134457.022500", "134457.482500", "134457.942500", "134458.402500", "134458.862500", "134459.322500", "134459.782500", "134500.242500", "134500.702500", "134501.162500", "134501.622500", "134502.082500", "134502.542500", "134503.002500", "134503.462500", "134503.922500", "134504.382500", "134504.842500", "134505.302500", "134505.762500", "134506.222500", "134506.682500", "134507.142500", "134507.602500", "134508.062500", "134508.522500", "134508.982500", "134509.442500", "134509.902500", "134510.362500", "134510.822500", "134511.282500", "134511.742500", "134512.202500", "134512.662500", "134513.122500", "134513.582500", "134514.042500", "134514.502500", "134514.962500", "134515.422500", "134515.882500", "134516.342500", "134516.802500", "134517.262500", "134517.722500", "134518.182500", "134518.642500", "134519.102500", "134519.562500", "134520.022500", "134520.482500", "134520.942500", "134521.402500", "134521.862500", "134522.322500", "134522.782500", "134523.242500", "134523.702500", "134524.162500", "134524.622500", "134525.082500", "134525.542500", "134526.002500", "134526.462500", "134526.922500", "134527.382500", "134527.842500", "134528.302500", "134528.762500", "134529.222500", "134529.682500", "134530.142500", "134530.602500", "134531.062500", "134531.522500", "134531.982500", "134532.442500", "134532.902500", "134533.362500", "134533.822500", "134534.282500", "134534.742500", "134535.202500", "134535.662500", "134536.122500", "134536.582500", "134537.042500", "134537.502500", "134537.962500", "134538.422500", "134538.882500", "134539.342500", "134539.802500", "134540.262500", "134540.722500", "134541.182500", "134541.642500", "134542.102500", "134542.562500", "134543.022500", "134543.482500", "134543.942500", "134544.402500", "134544.862500", "134545.322500", "134545.782500", "134546.242500", "134546.702500", "134547.162500", "134547.622500", "134548.082500", "134548.542500", "134549.002500", "134549.462500", "134549.922500", "134550.382500", "134550.842500", "134551.302500", "134551.762500", "134552.222500", "134552.682500", "134553.142500", "134553.602500", "134554.062500", "134554.522500", "134554.982500", "134555.442500", "134555.902500", "134556.362500", "134556.822500", "134557.282500", "134557.742500", "134558.202500", "134558.662500", "134559.122500", "134559.582500", "134600.042500", "134600.502500", "134600.962500", "134601.422500", "134601.882500", "134602.342500", "134602.802500", "134603.262500", "134603.722500", "134604.182500", "134604.642500", "134605.102500", "134605.562500", "134606.022500", "134606.482500", "134606.942500", "134607.402500", "134607.862500", "134608.322500", "134608.782500", "134609.242500", "134609.702500", "134610.162500", "134610.622500", "134611.082500", "134611.542500", "134612.002500", "134612.462500", "134612.922500", "134613.382500", "134613.842500", "134614.302500", "134614.762500", "134615.222500", "134615.682500", "134616.142500", "134616.602500", "134617.062500", "134617.522500", "134617.982500", "134618.442500", "134618.902500", "134619.362500", "134619.822500", "134620.282500", "134620.742500", "134621.202500", "134621.662500", "134622.122500", "134622.582500", "134623.042500", "134623.502500", "134623.962500", "134624.422500", "134624.882500", "134625.342500", "134625.802500", "134626.262500", "134626.722500", "134627.182500", "134627.642500", "134628.102500", "134628.562500", "134629.022500", "134629.482500", "134629.942500", "134630.402500", "134630.862500", "134631.322500", "134631.782500", "134632.242500", "134632.702500", "134633.162500", "134633.622500", "134634.082500", "134634.542500", "134635.002500", "134635.462500", "134635.922500", "134636.382500", "134636.842500", "134637.302500", "134637.762500", "134638.222500", "134638.682500", "134639.142500", "134639.602500", "134640.062500", "134640.522500", "134640.982500", "134641.442500", "134641.902500", "134642.362500", "134642.822500", "134643.282500", "134643.742500", "134644.202500", "134644.662500", "134645.122500", "134645.582500", "134646.042500", "134646.502500", "134646.962500", "134647.422500", "134647.882500", "134648.342500", "134648.802500", "134649.262500", "134649.722500", "134650.182500", "134650.642500", "134651.102500", "134651.562500", "134652.022500", "134652.482500", "134652.942500", "134653.402500", "134653.862500", "134654.322500", "134654.782500", "134655.242500", "134655.702500", "134656.162500", "134656.622500", "134657.082500", "134657.542500", "134658.002500", "134658.462500", "134658.922500", "134659.382500", "134659.842500", "134700.302500", "134700.762500", "134701.222500", "134701.682500", "134702.142500", "134702.602500", "134703.062500", "134703.522500", "134703.982500", "134704.442500", "134704.902500", "134705.362500", "134705.822500", "134706.282500", "134706.742500", "134707.202500", "134707.662500", "134708.122500", "134708.582500", "134709.042500", "134709.502500", "134709.962500", "134710.422500", "134710.882500", "134711.342500", "134711.802500", "134712.262500", "134712.722500", "134713.182500", "134713.642500", "134714.102500", "134714.562500", "134715.022500", "134715.482500", "134715.942500", "134716.402500", "134716.862500", "134717.322500", "134717.782500", "134718.242500", "134718.702500", "134719.162500", "134719.622500", "134720.082500", "134720.542500", "134721.002500", "134721.462500", "134721.922500", "134722.382500", "134722.842500", "134723.302500", "134723.762500", "134724.222500", "134724.682500", "134725.142500", "134725.602500", "134726.062500", "134726.522500", "134726.982500", "134727.442500", "134727.902500", "134728.362500", "134728.822500", "134729.282500", "134729.742500", "134730.202500", "134730.662500", "134731.122500", "134731.582500", "134732.042500", "134732.502500", "134732.962500", "134733.422500", "134733.882500", "134734.342500", "134734.802500", "134735.262500", "134735.722500", "134736.182500", "134736.642500", "134737.102500", "134737.562500", "134738.022500", "134738.482500", "134738.942500", "134739.402500", "134739.862500", "134740.322500", "134740.782500", "134741.242500", "134741.702500", "134742.162500", "134742.622500", "134743.082500", "134743.542500", "134744.002500", "134744.462500", "134744.922500", "134745.382500", "134745.842500", "134746.302500", "134746.762500", "134747.222500", "134747.682500", "134748.142500", "134748.602500", "134749.062500", "134749.522500", "134749.982500", "134750.442500", "134750.902500", "134751.362500", "134751.822500", "134752.282500", "134752.742500", "134753.202500", "134753.662500", "134754.122500", "134754.582500", "134755.042500", "134755.502500", "134755.962500", "134756.422500", "134756.882500", "134757.342500", "134757.802500", "134758.262500", "134758.722500", "134759.182500", "134759.642500", "134800.102500", "134800.562500", "134801.022500", "134801.482500", "134801.942500", "134802.402500", "134802.862500", "134803.322500", "134803.782500", "134804.242500", "134804.702500", "134805.162500", "134805.622500", "134806.082500", "134806.542500", "134807.002500", "134807.462500", "134807.922500", "134808.382500", "134808.842500", "134809.302500", "134809.762500", "134810.222500", "134810.682500", "134811.142500", "134811.602500", "134812.062500", "134812.522500", "134812.982500", "134813.442500", "134813.902500", "134814.362500", "134814.822500", "134815.282500", "134815.742500", "134816.202500", "134816.662500", "134817.122500", "134817.582500", "134818.042500", "134818.502500", "134818.962500", "134819.422500", "134819.882500", "134820.342500", "134820.802500", "134821.262500", "134821.722500", "134822.182500", "134822.642500", "134823.102500", "134823.562500", "134824.022500", "134824.482500", "134824.942500", "134825.402500", "134825.862500", "134826.322500", "134826.782500", "134827.242500", "134827.702500", "134828.162500", "134828.622500", "134829.082500", "134829.542500", "134830.002500", "134830.462500", "134830.922500", "134831.382500", "134831.842500", "134832.302500", "134832.762500", "134833.222500", "134833.682500", "134834.142500", "134834.602500", "134835.062500", "134835.522500", "134835.982500", "134836.442500", "134836.902500", "134837.362500", "134837.822500", "134838.282500", "134838.742500", "134839.202500", "134839.662500", "134840.122500", "134840.582500", "134841.042500", "134841.502500", "134841.962500", "134842.422500", "134842.882500", "134843.342500", "134843.802500", "134844.262500", "134844.722500", "134845.182500", "134845.642500", "134846.102500", "134846.562500", "134847.022500", "134847.482500", "134847.942500", "134848.402500", "134848.862500", "134849.322500", "134849.782500", "134850.242500", "134850.702500", "134851.162500", "134851.622500", "134852.082500", "134852.542500", "134853.002500", "134853.462500", "134853.922500", "134854.382500", "134854.842500", "134855.302500", "134855.762500", "134856.222500", "134856.682500", "134857.142500", "134857.602500", "134858.062500", "134858.522500", "134858.982500", "134859.442500", "134859.902500", "134900.362500", "134900.822500", "134901.282500", "134901.742500", "134902.202500", "134902.662500", "134903.122500", "134903.582500", "134904.042500", "134904.502500", "134904.962500", "134905.422500", "134905.882500", "134906.342500", "134906.802500", "134907.262500", "134907.722500", "134908.182500", "134908.642500"],
