{
  "AcquisitionMatrixPE": 82,
  "AcquisitionNumber": 1,
  "AcquisitionTime": "14:01:38.112500",
  "BandwidthPerPixelPhaseEncode": 24.888,
  "BaseResolution": 82,
  "BodyPartExamined": "BRAIN",
  "ConsistencyInfo": "N4_VE11C_LATEST_20160120",
  "ConversionSoftware": "dcm2niix",
  "ConversionSoftwareVersion": "v1.0.20201102",
  "DerivedVendorReportedEchoSpacing": 0.00049,
  "DeviceSerialNumber": "66112",
  "DwellTime": 2e-06,
  "EchoTime": 0.0272,
  "EchoTrainLength": 82,
  "EffectiveEchoSpacing": 0.00049,
  "FlipAngle": 44,
  "ImageComments": "Unaliased MB8/PE3",
  "ImageOrientationPatientDICOM": [0.999443, 0.0235107, 0.0236838, -0.0204117, 0.992132, -0.123518],
  "ImageType": [
    "ORIGINAL",
    "PRIMARY",
    "M",
    "MB",
    "ND",
    "NORM",
    "MOSAIC"
],
  "ImagingFrequency": 123.252,
  "InPlanePhaseEncodingDirectionDICOM": "COL",
  "InstitutionAddress": "Maynard 3,Hanover,NH,US,03755",
  "InstitutionName": "Dartmouth College - PBS",
  "InstitutionalDepartmentName": "Department",
  "MRAcquisitionType": "2D",
  "MagneticFieldStrength": 3,
  "Manufacturer": "Siemens",
  "ManufacturersModelName": "Prisma",
  "Modality": "MR",
  "MultibandAccelerationFactor": 8,
  "PartialFourier": 1,
  "PatientPosition": "HFS",
  "PercentPhaseFOV": 100,
  "PercentSampling": 100,
  "PhaseEncodingDirection": "j-",
  "PhaseEncodingSteps": 82,
  "PhaseResolution": 1,
  "PixelBandwidth": 3050,
  "ProcedureStepDescription": "Wager_Wager^1076_spacetop",
  "ProtocolName": "func_run-01_task-alignvideo_acq-ap-mb8",
  "PulseSequenceDetails": "%CustomerSeq%\\cmrr_mbep2d_bold",
  "ReceiveCoilActiveElements": "HEA;HEP",
  "ReceiveCoilName": "Head_32",
  "ReconMatrixPE": 82,
  "RepetitionTime": 0.46,
  "SAR": 0.114967,
  "ScanOptions": "FS",
  "ScanningSequence": "EP",
  "SequenceName": "epfid2d1_82",
  "SequenceVariant": "SK\\SS",
  "SeriesDescription": "func_run-01_task-alignvideo_acq-ap-mb8",
  "SeriesNumber": 30,
  "ShimSetting": [4169, -7708, -7227, 365, -39, -103, 16, 74],
  "SliceThickness": 2.7,
  "SliceTiming": [0, 0.2525, 0.0625, 0.315, 0.125, 0.3775, 0.1875, 0, 0.2525, 0.0625, 0.315, 0.125, 0.3775, 0.1875, 0, 0.2525, 0.0625, 0.315, 0.125, 0.3775, 0.1875, 0, 0.2525, 0.0625, 0.315, 0.125, 0.3775, 0.1875, 0, 0.2525, 0.0625, 0.315, 0.125, 0.3775, 0.1875, 0, 0.2525, 0.0625, 0.315, 0.125, 0.3775, 0.1875, 0, 0.2525, 0.0625, 0.315, 0.125, 0.3775, 0.1875, 0, 0.2525, 0.0625, 0.315, 0.125, 0.3775, 0.1875],
  "SoftwareVersions": "syngo MR E11",
  "SpacingBetweenSlices": 2.7,
  "StationName": "AWP66112",
  "TaskName": "alignvideo",
  "TotalReadoutTime": 0.03969,
  "TxRefAmp": 300.573,
  "WipMemBlock": "bd6dacea-173a-466e-8cd9-b99c050d8773||Sequence: R016 ve11c/master r/e634e98; Dec 19 2017 11:00:25 by eja",
  "dcmmeta_affine": [
    [-2.6814324855804443, -0.054763223975896835, 0.0712839886546135, 112.165283203125],
    [-0.06307757645845413, 2.661818504333496, -0.3320082724094391, -78.21653747558594],
    [0.06354192644357681, 0.3313904404640198, 2.678560972213745, -74.63758087158203],
    [0.0, 0.0, 0.0, 1.0]
],
  "dcmmeta_reorient_transform": [
    [0.0, -1.0, 0.0, 81.0],
    [1.0, 0.0, 0.0, 0.0],
    [0.0, 0.0, 1.0, 0.0],
    [0.0, 0.0, 0.0, 1.0]
],
  "dcmmeta_shape": [82, 82, 56, 1073],
  "dcmmeta_slice_dim": 2,
  "dcmmeta_version": 0.6,
  "global": {
    "const": {
      "AccessionNumber": "A003797",
      "AcquisitionMatrix": [82, 0, 0, 82],
      "AngioFlag": "N",
      "BitsAllocated": 16,
      "BitsStored": 16,
      "BodyPartExamined": "BRAIN",
      "Columns": 656,
      "EchoNumbers": 1,
      "EchoTime": 27.2,
      "EchoTrainLength": 82,
      "FlipAngle": 44.0,
      "HighBit": 15,
      "ImageOrientationPatient": [0.99944300619983, 0.02351073357109, 0.02368380808037, -0.020411745983, 0.99213235092687, -0.1235182531865],
      "ImagePositionPatient": [-861.58355300324, -919.43595863172, 29.077568945465],
      "ImageType": [
        "ORIGINAL",
        "PRIMARY",
        "M",
        "MB",
        "ND",
        "NORM",
        "MOSAIC"
],
      "ImagedNucleus": "1H",
      "ImagingFrequency": 123.252162,
      "InPlanePhaseEncodingDirection": "COL",
      "MRAcquisitionType": "2D",
      "MagneticFieldStrength": 3.0,
      "Manufacturer": "SIEMENS",
      "ManufacturerModelName": "Prisma",
      "Modality": "MR",
      "NumberOfAverages": 1.0,
      "NumberOfPhaseEncodingSteps": 82,
      "PercentPhaseFieldOfView": 100.0,
      "PercentSampling": 100.0,
      "PerformedProcedureStepStartTime": "122831.472000",
      "PhotometricInterpretation": "MONOCHROME2",
      "PixelBandwidth": 3050.0,
      "PixelRepresentation": 0,
      "PixelSpacing": [2.6829268932343, 2.6829268932343],
      "ProtocolName": "func_run-01_task-alignvideo_acq-ap-mb8",
      "RepetitionTime": 460.0,
      "Rows": 656,
      "SAR": 0.1149671909004,
      "SamplesPerPixel": 1,
      "ScanOptions": "FS",
      "ScanningSequence": "EP",
      "SequenceName": "epfid2d1_82",
      "SequenceVariant": [
        "SK",
        "SS"
],
      "SeriesDescription": "func_run-01_task-alignvideo_acq-ap-mb8",
      "SeriesNumber": 30,
      "SeriesTime": "140157.610000",
      "SliceLocation": -61.465625653367,
      "SliceThickness": 2.7000000476837,
      "SmallestImagePixelValue": 0,
      "SoftwareVersions": "syngo MR E11",
      "SpacingBetweenSlices": 2.7000000400934,
      "SpecificCharacterSet": "ISO_IR 100",
      "StudyID": "1",
      "StudyTime": "122831.380000",
      "TransmitCoilName": "Body",
      "VariableFlipAngleFlag": "N",
      "WindowCenterWidthExplanation": "Algo1",
      "dBdt": 0.0},
    "slices": {}
  },
  "time": {
    "samples": {
      "AcquisitionNumber": [1, 2, 3, 4, 5, 6, 7, 8, 9, 10, 11, 12, 13, 14, 15, 16, 17, 18, 19, 20, 21, 22, 23, 24, 25, 26, 27, 28, 29, 30, 31, 32, 33, 34, 35, 36, 37, 38, 39, 40, 41, 42, 43, 44, 45, 46, 47, 48, 49, 50, 51, 52, 53, 54, 55, 56, 57, 58, 59, 60, 61, 62, 63, 64, 65, 66, 67, 68, 69, 70, 71, 72, 73, 74, 75, 76, 77, 78, 79, 80, 81, 82, 83, 84, 85, 86, 87, 88, 89, 90, 91, 92, 93, 94, 95, 96, 97, 98, 99, 100, 101, 102, 103, 104, 105, 106, 107, 108, 109, 110, 111, 112, 113, 114, 115, 116, 117, 118, 119, 120, 121, 122, 123, 124, 125, 126, 127, 128, 129, 130, 131, 132, 133, 134, 135, 136, 137, 138, 139, 140, 141, 142, 143, 144, 145, 146, 147, 148, 149, 150, 151, 152, 153, 154, 155, 156, 157, 158, 159, 160, 161, 162, 163, 164, 165, 166, 167, 168, 169, 170, 171, 172, 173, 174, 175, 176, 177, 178, 179, 180, 181, 182, 183, 184, 185, 186, 187, 188, 189, 190, 191, 192, 193, 194, 195, 196, 197, 198, 199, 200, 201, 202, 203, 204, 205, 206, 207, 208, 209, 210, 211, 212, 213, 214, 215, 216, 217, 218, 219, 220, 221, 222, 223, 224, 225, 226, 227, 228, 229, 230, 231, 232, 233, 234, 235, 236, 237, 238, 239, 240, 241, 242, 243, 244, 245, 246, 247, 248, 249, 250, 251, 252, 253, 254, 255, 256, 257, 258, 259, 260, 261, 262, 263, 264, 265, 266, 267, 268, 269, 270, 271, 272, 273, 274, 275, 276, 277, 278, 279, 280, 281, 282, 283, 284, 285, 286, 287, 288, 289, 290, 291, 292, 293, 294, 295, 296, 297, 298, 299, 300, 301, 302, 303, 304, 305, 306, 307, 308, 309, 310, 311, 312, 313, 314, 315, 316, 317, 318, 319, 320, 321, 322, 323, 324, 325, 326, 327, 328, 329, 330, 331, 332, 333, 334, 335, 336, 337, 338, 339, 340, 341, 342, 343, 344, 345, 346, 347, 348, 349, 350, 351, 352, 353, 354, 355, 356, 357, 358, 359, 360, 361, 362, 363, 364, 365, 366, 367, 368, 369, 370, 371, 372, 373, 374, 375, 376, 377, 378, 379, 380, 381, 382, 383, 384, 385, 386, 387, 388, 389, 390, 391, 392, 393, 394, 395, 396, 397, 398, 399, 400, 401, 402, 403, 404, 405, 406, 407, 408, 409, 410, 411, 412, 413, 414, 415, 416, 417, 418, 419, 420, 421, 422, 423, 424, 425, 426, 427, 428, 429, 430, 431, 432, 433, 434, 435, 436, 437, 438, 439, 440, 441, 442, 443, 444, 445, 446, 447, 448, 449, 450, 451, 452, 453, 454, 455, 456, 457, 458, 459, 460, 461, 462, 463, 464, 465, 466, 467, 468, 469, 470, 471, 472, 473, 474, 475, 476, 477, 478, 479, 480, 481, 482, 483, 484, 485, 486, 487, 488, 489, 490, 491, 492, 493, 494, 495, 496, 497, 498, 499, 500, 501, 502, 503, 504, 505, 506, 507, 508, 509, 510, 511, 512, 513, 514, 515, 516, 517, 518, 519, 520, 521, 522, 523, 524, 525, 526, 527, 528, 529, 530, 531, 532, 533, 534, 535, 536, 537, 538, 539, 540, 541, 542, 543, 544, 545, 546, 547, 548, 549, 550, 551, 552, 553, 554, 555, 556, 557, 558, 559, 560, 561, 562, 563, 564, 565, 566, 567, 568, 569, 570, 571, 572, 573, 574, 575, 576, 577, 578, 579, 580, 581, 582, 583, 584, 585, 586, 587, 588, 589, 590, 591, 592, 593, 594, 595, 596, 597, 598, 599, 600, 601, 602, 603, 604, 605, 606, 607, 608, 609, 610, 611, 612, 613, 614, 615, 616, 617, 618, 619, 620, 621, 622, 623, 624, 625, 626, 627, 628, 629, 630, 631, 632, 633, 634, 635, 636, 637, 638, 639, 640, 641, 642, 643, 644, 645, 646, 647, 648, 649, 650, 651, 652, 653, 654, 655, 656, 657, 658, 659, 660, 661, 662, 663, 664, 665, 666, 667, 668, 669, 670, 671, 672, 673, 674, 675, 676, 677, 678, 679, 680, 681, 682, 683, 684, 685, 686, 687, 688, 689, 690, 691, 692, 693, 694, 695, 696, 697, 698, 699, 700, 701, 702, 703, 704, 705, 706, 707, 708, 709, 710, 711, 712, 713, 714, 715, 716, 717, 718, 719, 720, 721, 722, 723, 724, 725, 726, 727, 728, 729, 730, 731, 732, 733, 734, 735, 736, 737, 738, 739, 740, 741, 742, 743, 744, 745, 746, 747, 748, 749, 750, 751, 752, 753, 754, 755, 756, 757, 758, 759, 760, 761, 762, 763, 764, 765, 766, 767, 768, 769, 770, 771, 772, 773, 774, 775, 776, 777, 778, 779, 780, 781, 782, 783, 784, 785, 786, 787, 788, 789, 790, 791, 792, 793, 794, 795, 796, 797, 798, 799, 800, 801, 802, 803, 804, 805, 806, 807, 808, 809, 810, 811, 812, 813, 814, 815, 816, 817, 818, 819, 820, 821, 822, 823, 824, 825, 826, 827, 828, 829, 830, 831, 832, 833, 834, 835, 836, 837, 838, 839, 840, 841, 842, 843, 844, 845, 846, 847, 848, 849, 850, 851, 852, 853, 854, 855, 856, 857, 858, 859, 860, 861, 862, 863, 864, 865, 866, 867, 868, 869, 870, 871, 872, 873, 874, 875, 876, 877, 878, 879, 880, 881, 882, 883, 884, 885, 886, 887, 888, 889, 890, 891, 892, 893, 894, 895, 896, 897, 898, 899, 900, 901, 902, 903, 904, 905, 906, 907, 908, 909, 910, 911, 912, 913, 914, 915, 916, 917, 918, 919, 920, 921, 922, 923, 924, 925, 926, 927, 928, 929, 930, 931, 932, 933, 934, 935, 936, 937, 938, 939, 940, 941, 942, 943, 944, 945, 946, 947, 948, 949, 950, 951, 952, 953, 954, 955, 956, 957, 958, 959, 960, 961, 962, 963, 964, 965, 966, 967, 968, 969, 970, 971, 972, 973, 974, 975, 976, 977, 978, 979, 980, 981, 982, 983, 984, 985, 986, 987, 988, 989, 990, 991, 992, 993, 994, 995, 996, 997, 998, 999, 1000, 1001, 1002, 1003, 1004, 1005, 1006, 1007, 1008, 1009, 1010, 1011, 1012, 1013, 1014, 1015, 1016, 1017, 1018, 1019, 1020, 1021, 1022, 1023, 1024, 1025, 1026, 1027, 1028, 1029, 1030, 1031, 1032, 1033, 1034, 1035, 1036, 1037, 1038, 1039, 1040, 1041, 1042, 1043, 1044, 1045, 1046, 1047, 1048, 1049, 1050, 1051, 1052, 1053, 1054, 1055, 1056, 1057, 1058, 1059, 1060, 1061, 1062, 1063, 1064, 1065, 1066, 1067, 1068, 1069, 1070, 1071, 1072, 1073],
      "AcquisitionTime": ["140138.112500", "140138.572500", "140139.032500", "140139.492500", "140139.952500", "140140.412500", "140140.872500", "140141.332500", "140141.792500", "140142.252500", "140142.712500", "140143.172500", "140143.632500", "140144.092500", "140144.552500", "140145.012500", "140145.472500", "140145.932500", "140146.392500", "140146.852500", "140147.312500", "140147.772500", "140148.232500", "140148.692500", "140149.152500", "140149.612500", "140150.072500", "140150.532500", "140150.992500", "140151.452500", "140151.912500", "140152.372500", "140152.832500", "140153.292500", "140153.752500", "140154.212500", "140154.672500", "140155.132500", "140155.592500", "140156.052500", "140156.512500", "140156.972500", "140157.432500", "140157.892500", "140158.352500", "140158.812500", "140159.272500", "140159.732500", "140200.192500", "140200.652500", "140201.112500", "140201.572500", "140202.032500", "140202.492500", "140202.952500", "140203.412500", "140203.872500", "140204.332500", "140204.792500", "140205.252500", "140205.712500", "140206.172500", "140206.632500", "140207.092500", "140207.552500", "140208.012500", "140208.472500", "140208.932500", "140209.392500", "140209.852500", "140210.312500", "140210.772500", "140211.232500", "140211.692500", "140212.152500", "140212.612500", "140213.072500", "140213.532500", "140213.992500", "140214.452500", "140214.912500", "140215.372500", "140215.832500", "140216.292500", "140216.752500", "140217.212500", "140217.672500", "140218.132500", "140218.592500", "140219.052500", "140219.512500", "140219.972500", "140220.432500", "140220.892500", "140221.352500", "140221.812500", "140222.272500", "140222.732500", "140223.192500", "140223.652500", "140224.112500", "140224.572500", "140225.032500", "140225.492500", "140225.952500", "140226.412500", "140226.872500", "140227.332500", "140227.792500", "140228.252500", "140228.712500", "140229.172500", "140229.632500", "140230.092500", "140230.552500", "140231.012500", "140231.472500", "140231.932500", "140232.392500", "140232.852500", "140233.312500", "140233.772500", "140234.232500", "140234.692500", "140235.152500", "140235.612500", "140236.072500", "140236.532500", "140236.992500", "140237.452500", "140237.912500", "140238.372500", "140238.832500", "140239.292500", "140239.752500", "140240.212500", "140240.672500", "140241.132500", "140241.592500", "140242.052500", "140242.512500", "140242.972500", "140243.432500", "140243.892500", "140244.352500", "140244.812500", "140245.272500", "140245.732500", "140246.192500", "140246.652500", "140247.112500", "140247.572500", "140248.032500", "140248.492500", "140248.952500", "140249.412500", "140249.872500", "140250.332500", "140250.792500", "140251.252500", "140251.712500", "140252.172500", "140252.632500", "140253.092500", "140253.552500", "140254.012500", "140254.472500", "140254.932500", "140255.392500", "140255.852500", "140256.312500", "140256.772500", "140257.232500", "140257.692500", "140258.152500", "140258.612500", "140259.072500", "140259.532500", "140259.992500", "140300.452500", "140300.912500", "140301.372500", "140301.832500", "140302.292500", "140302.752500", "140303.212500", "140303.672500", "140304.132500", "140304.592500", "140305.052500", "140305.512500", "140305.972500", "140306.432500", "140306.892500", "140307.352500", "140307.812500", "140308.272500", "140308.732500", "140309.192500", "140309.652500", "140310.112500", "140310.572500", "140311.032500", "140311.492500", "140311.952500", "140312.412500", "140312.872500", "140313.332500", "140313.792500", "140314.252500", "140314.712500", "140315.172500", "140315.632500", "140316.092500", "140316.552500", "140317.012500", "140317.472500", "140317.932500", "140318.392500", "140318.852500", "140319.312500", "140319.772500", "140320.232500", "140320.692500", "140321.152500", "140321.612500", "140322.072500", "140322.532500", "140322.992500", "140323.452500", "140323.912500", "140324.372500", "140324.832500", "140325.292500", "140325.752500", "140326.212500", "140326.672500", "140327.132500", "140327.592500", "140328.052500", "140328.512500", "140328.972500", "140329.432500", "140329.892500", "140330.352500", "140330.812500", "140331.272500", "140331.732500", "140332.192500", "140332.652500", "140333.112500", "140333.572500", "140334.032500", "140334.492500", "140334.952500", "140335.412500", "140335.872500", "140336.332500", "140336.792500", "140337.252500", "140337.712500", "140338.172500", "140338.632500", "140339.092500", "140339.552500", "140340.012500", "140340.472500", "140340.932500", "140341.392500", "140341.852500", "140342.312500", "140342.772500", "140343.232500", "140343.692500", "140344.152500", "140344.612500", "140345.072500", "140345.532500", "140345.992500", "140346.452500", "140346.912500", "140347.372500", "140347.832500", "140348.292500", "140348.752500", "140349.212500", "140349.672500", "140350.132500", "140350.592500", "140351.052500", "140351.512500", "140351.972500", "140352.432500", "140352.892500", "140353.352500", "140353.812500", "140354.272500", "140354.732500", "140355.192500", "140355.652500", "140356.112500", "140356.572500", "140357.032500", "140357.492500", "140357.952500", "140358.412500", "140358.872500", "140359.332500", "140359.792500", "140400.252500", "140400.712500", "140401.172500", "140401.632500", "140402.092500", "140402.552500", "140403.012500", "140403.472500", "140403.932500", "140404.392500", "140404.852500", "140405.312500", "140405.772500", "140406.232500", "140406.692500", "140407.152500", "140407.612500", "140408.072500", "140408.532500", "140408.992500", "140409.452500", "140409.912500", "140410.372500", "140410.832500", "140411.292500", "140411.752500", "140412.212500", "140412.672500", "140413.132500", "140413.592500", "140414.052500", "140414.512500", "140414.972500", "140415.432500", "140415.892500", "140416.352500", "140416.812500", "140417.272500", "140417.732500", "140418.192500", "140418.652500", "140419.112500", "140419.572500", "140420.032500", "140420.492500", "140420.952500", "140421.412500", "140421.872500", "140422.332500", "140422.792500", "140423.252500", "140423.712500", "140424.172500", "140424.632500", "140425.092500", "140425.552500", "140426.012500", "140426.472500", "140426.932500", "140427.392500", "140427.852500", "140428.312500", "140428.772500", "140429.232500", "140429.692500", "140430.152500", "140430.612500", "140431.072500", "140431.532500", "140431.992500", "140432.452500", "140432.912500", "140433.372500", "140433.832500", "140434.292500", "140434.752500", "140435.212500", "140435.672500", "140436.132500", "140436.592500", "140437.052500", "140437.512500", "140437.972500", "140438.432500", "140438.892500", "140439.352500", "140439.812500", "140440.272500", "140440.732500", "140441.192500", "140441.652500", "140442.112500", "140442.572500", "140443.032500", "140443.492500", "140443.952500", "140444.412500", "140444.872500", "140445.332500", "140445.792500", "140446.252500", "140446.712500", "140447.172500", "140447.632500", "140448.092500", "140448.552500", "140449.012500", "140449.472500", "140449.932500", "140450.392500", "140450.852500", "140451.312500", "140451.772500", "140452.232500", "140452.692500", "140453.152500", "140453.612500", "140454.072500", "140454.532500", "140454.992500", "140455.452500", "140455.912500", "140456.372500", "140456.832500", "140457.292500", "140457.752500", "140458.212500", "140458.672500", "140459.132500", "140459.592500", "140500.052500", "140500.512500", "140500.972500", "140501.432500", "140501.892500", "140502.352500", "140502.812500", "140503.272500", "140503.732500", "140504.192500", "140504.652500", "140505.112500", "140505.572500", "140506.032500", "140506.492500", "140506.952500", "140507.412500", "140507.872500", "140508.332500", "140508.792500", "140509.252500", "140509.712500", "140510.172500", "140510.632500", "140511.092500", "140511.552500", "140512.012500", "140512.472500", "140512.932500", "140513.392500", "140513.852500", "140514.312500", "140514.772500", "140515.232500", "140515.692500", "140516.152500", "140516.612500", "140517.072500", "140517.532500", "140517.992500", "140518.452500", "140518.912500", "140519.372500", "140519.832500", "140520.292500", "140520.752500", "140521.212500", "140521.672500", "140522.132500", "140522.592500", "140523.052500", "140523.512500", "140523.972500", "140524.432500", "140524.892500", "140525.352500", "140525.812500", "140526.272500", "140526.732500", "140527.192500", "140527.652500", "140528.112500", "140528.572500", "140529.032500", "140529.492500", "140529.952500", "140530.412500", "140530.872500", "140531.332500", "140531.792500", "140532.252500", "140532.712500", "140533.172500", "140533.632500", "140534.092500", "140534.552500", "140535.012500", "140535.472500", "140535.932500", "140536.392500", "140536.852500", "140537.312500", "140537.772500", "140538.232500", "140538.692500", "140539.152500", "140539.612500", "140540.072500", "140540.532500", "140540.992500", "140541.452500", "140541.912500", "140542.372500", "140542.832500", "140543.292500", "140543.752500", "140544.212500", "140544.672500", "140545.132500", "140545.592500", "140546.052500", "140546.512500", "140546.972500", "140547.432500", "140547.892500", "140548.352500", "140548.812500", "140549.272500", "140549.732500", "140550.192500", "140550.652500", "140551.112500", "140551.572500", "140552.032500", "140552.492500", "140552.952500", "140553.412500", "140553.872500", "140554.332500", "140554.792500", "140555.252500", "140555.712500", "140556.172500", "140556.632500", "140557.092500", "140557.552500", "140558.012500", "140558.472500", "140558.932500", "140559.392500", "140559.852500", "140600.312500", "140600.772500", "140601.232500", "140601.692500", "140602.152500", "140602.612500", "140603.072500", "140603.532500", "140603.992500", "140604.452500", "140604.912500", "140605.372500", "140605.832500", "140606.292500", "140606.752500", "140607.212500", "140607.672500", "140608.132500", "140608.592500", "140609.052500", "140609.512500", "140609.972500", "140610.432500", "140610.892500", "140611.352500", "140611.812500", "140612.272500", "140612.732500", "140613.192500", "140613.652500", "140614.112500", "140614.572500", "140615.032500", "140615.492500", "140615.952500", "140616.412500", "140616.872500", "140617.332500", "140617.792500", "140618.252500", "140618.712500", "140619.172500", "140619.632500", "140620.092500", "140620.552500", "140621.012500", "140621.472500", "140621.932500", "140622.392500", "140622.852500", "140623.312500", "140623.772500", "140624.232500", "140624.692500", "140625.152500", "140625.612500", "140626.072500", "140626.532500", "140626.992500", "140627.452500", "140627.912500", "140628.372500", "140628.832500", "140629.292500", "140629.752500", "140630.212500", "140630.672500", "140631.132500", "140631.592500", "140632.052500", "140632.512500", "140632.972500", "140633.432500", "140633.892500", "140634.352500", "140634.812500", "140635.272500", "140635.732500", "140636.192500", "140636.652500", "140637.112500", "140637.572500", "140638.032500", "140638.492500", "140638.952500", "140639.412500", "140639.872500", "140640.332500", "140640.792500", "140641.252500", "140641.712500", "140642.172500", "140642.632500", "140643.092500", "140643.552500", "140644.012500", "140644.472500", "140644.932500", "140645.392500", "140645.852500", "140646.312500", "140646.772500", "140647.232500", "140647.692500", "140648.152500", "140648.612500", "140649.072500", "140649.532500", "140649.992500", "140650.452500", "140650.912500", "140651.372500", "140651.832500", "140652.292500", "140652.752500", "140653.212500", "140653.672500", "140654.132500", "140654.592500", "140655.052500", "140655.512500", "140655.972500", "140656.432500", "140656.892500", "140657.352500", "140657.812500", "140658.272500", "140658.732500", "140659.192500", "140659.652500", "140700.112500", "140700.572500", "140701.032500", "140701.492500", "140701.952500", "140702.412500", "140702.872500", "140703.332500", "140703.792500", "140704.252500", "140704.712500", "140705.172500", "140705.632500", "140706.092500", "140706.552500", "140707.012500", "140707.472500", "140707.932500", "140708.392500", "140708.852500", "140709.312500", "140709.772500", "140710.232500", "140710.692500", "140711.152500", "140711.612500", "140712.072500", "140712.532500", "140712.992500", "140713.452500", "140713.912500", "140714.372500", "140714.832500", "140715.292500", "140715.752500", "140716.212500", "140716.672500", "140717.132500", "140717.592500", "140718.052500", "140718.512500", "140718.972500", "140719.432500", "140719.892500", "140720.352500", "140720.812500", "140721.272500", "140721.732500", "140722.192500", "140722.652500", "140723.112500", "140723.572500", "140724.032500", "140724.492500", "140724.952500", "140725.412500", "140725.872500", "140726.332500", "140726.792500", "140727.252500", "140727.712500", "140728.172500", "140728.632500", "140729.092500", "140729.552500", "140730.012500", "140730.472500", "140730.932500", "140731.392500", "140731.852500", "140732.312500", "140732.772500", "140733.232500", "140733.692500", "140734.152500", "140734.612500", "140735.072500", "140735.532500", "140735.992500", "140736.452500", "140736.912500", "140737.372500", "140737.832500", "140738.292500", "140738.752500", "140739.212500", "140739.672500", "140740.132500", "140740.592500", "140741.052500", "140741.512500", "140741.972500", "140742.432500", "140742.892500", "140743.352500", "140743.812500", "140744.272500", "140744.732500", "140745.192500", "140745.652500", "140746.112500", "140746.572500", "140747.032500", "140747.492500", "140747.952500", "140748.412500", "140748.872500", "140749.332500", "140749.792500", "140750.252500", "140750.712500", "140751.172500", "140751.632500", "140752.092500", "140752.552500", "140753.012500", "140753.472500", "140753.932500", "140754.392500", "140754.852500", "140755.312500", "140755.772500", "140756.232500", "140756.692500", "140757.152500", "140757.612500", "140758.072500", "140758.532500", "140758.992500", "140759.452500", "140759.912500", "140800.372500", "140800.832500", "140801.292500", "140801.752500", "140802.212500", "140802.672500", "140803.132500", "140803.592500", "140804.052500", "140804.512500", "140804.972500", "140805.432500", "140805.892500", "140806.352500", "140806.812500", "140807.272500", "140807.732500", "140808.192500", "140808.652500", "140809.112500", "140809.572500", "140810.032500", "140810.492500", "140810.952500", "140811.412500", "140811.872500", "140812.332500", "140812.792500", "140813.252500", "140813.712500", "140814.172500", "140814.632500", "140815.092500", "140815.552500", "140816.012500", "140816.472500", "140816.932500", "140817.392500", "140817.852500", "140818.312500", "140818.772500", "140819.232500", "140819.692500", "140820.152500", "140820.612500", "140821.072500", "140821.532500", "140821.992500", "140822.452500", "140822.912500", "140823.372500", "140823.832500", "140824.292500", "140824.752500", "140825.212500", "140825.672500", "140826.132500", "140826.592500", "140827.052500", "140827.512500", "140827.972500", "140828.432500", "140828.892500", "140829.352500", "140829.812500", "140830.272500", "140830.732500", "140831.192500", "140831.652500", "140832.112500", "140832.572500", "140833.032500", "140833.492500", "140833.952500", "140834.412500", "140834.872500", "140835.332500", "140835.792500", "140836.252500", "140836.712500", "140837.172500", "140837.632500", "140838.092500", "140838.552500", "140839.012500", "140839.472500", "140839.932500", "140840.392500", "140840.852500", "140841.312500", "140841.772500", "140842.232500", "140842.692500", "140843.152500", "140843.612500", "140844.072500", "140844.532500", "140844.992500", "140845.452500", "140845.912500", "140846.372500", "140846.832500", "140847.292500", "140847.752500", "140848.212500", "140848.672500", "140849.132500", "140849.592500", "140850.052500", "140850.512500", "140850.972500", "140851.432500", "140851.892500", "140852.352500", "140852.812500", "140853.272500", "140853.732500", "140854.192500", "140854.652500", "140855.112500", "140855.572500", "140856.032500", "140856.492500", "140856.952500", "140857.412500", "140857.872500", "140858.332500", "140858.792500", "140859.252500", "140859.712500", "140900.172500", "140900.632500", "140901.092500", "140901.552500", "140902.012500", "140902.472500", "140902.932500", "140903.392500", "140903.852500", "140904.312500", "140904.772500", "140905.232500", "140905.692500", "140906.152500", "140906.612500", "140907.072500", "140907.532500", "140907.992500", "140908.452500", "140908.912500", "140909.372500", "140909.832500", "140910.292500", "140910.752500", "140911.212500", "140911.672500", "140912.132500", "140912.592500", "140913.052500", "140913.512500", "140913.972500", "140914.432500", "140914.892500", "140915.352500", "140915.812500", "140916.272500", "140916.732500", "140917.192500", "140917.652500", "140918.112500", "140918.572500", "140919.032500", "140919.492500", "140919.952500", "140920.412500", "140920.872500", "140921.332500", "140921.792500", "140922.252500", "140922.712500", "140923.172500", "140923.632500", "140924.092500", "140924.552500", "140925.012500", "140925.472500", "140925.932500", "140926.392500", "140926.852500", "140927.312500", "140927.772500", "140928.232500", "140928.692500", "140929.152500", "140929.612500", "140930.072500", "140930.532500", "140930.992500", "140931.452500", "140931.912500", "140932.372500", "140932.832500", "140933.292500", "140933.752500", "140934.212500", "140934.672500", "140935.132500", "140935.592500", "140936.052500", "140936.512500", "140936.972500", "140937.432500", "140937.892500", "140938.352500", "140938.812500", "140939.272500", "140939.732500", "140940.192500", "140940.652500", "140941.112500", "140941.572500", "140942.032500", "140942.492500", "140942.952500", "140943.412500", "140943.872500", "140944.332500", "140944.792500", "140945.252500", "140945.712500", "140946.172500", "140946.632500", "140947.092500", "140947.552500", "140948.012500", "140948.472500", "140948.932500", "140949.392500", "140949.852500", "140950.312500", "140950.772500", "140951.232500"],
