{
  "AcquisitionMatrixPE": 82,
  "AcquisitionNumber": 1,
  "AcquisitionTime": "21:21:41.467500",
  "BandwidthPerPixelPhaseEncode": 24.888,
  "BaseResolution": 82,
  "BodyPartExamined": "BRAIN",
  "ConsistencyInfo": "N4_VE11E_LATEST_20181129",
  "ConversionSoftware": "dcm2niix",
  "ConversionSoftwareVersion": "v1.0.20201102",
  "DerivedVendorReportedEchoSpacing": 0.00049,
  "DeviceSerialNumber": "66112",
  "DwellTime": 2e-06,
  "EchoTime": 0.0272,
  "EchoTrainLength": 82,
  "EffectiveEchoSpacing": 0.00049,
  "FlipAngle": 44,
  "ImageComments": "Unaliased MB8/PE3",
  "ImageOrientationPatientDICOM": [0.993328, 0.113962, -0.0176507, -0.112473, 0.991189, 0.0699636],
  "ImageType": [
    "ORIGINAL",
    "PRIMARY",
    "M",
    "MB",
    "ND",
    "NORM",
    "MOSAIC"
],
  "ImagingFrequency": 123.252,
  "InPlanePhaseEncodingDirectionDICOM": "COL",
  "InstitutionAddress": "Maynard 3,Hanover,NH,US,03755",
  "InstitutionName": "Dartmouth College - PBS",
  "InstitutionalDepartmentName": "Department",
  "MRAcquisitionType": "2D",
  "MagneticFieldStrength": 3,
  "Manufacturer": "Siemens",
  "ManufacturersModelName": "Prisma",
  "Modality": "MR",
  "MultibandAccelerationFactor": 8,
  "PartialFourier": 1,
  "PatientPosition": "HFS",
  "PercentPhaseFOV": 100,
  "PercentSampling": 100,
  "PhaseEncodingDirection": "j-",
  "PhaseEncodingSteps": 82,
  "PhaseResolution": 1,
  "PixelBandwidth": 3050,
  "ProcedureStepDescription": "Wager_Wager^1076_spacetop",
  "ProtocolName": "func_run-05_task-social_acq-ap-mb8",
  "PulseSequenceDetails": "%CustomerSeq%\\cmrr_mbep2d_bold",
  "ReceiveCoilActiveElements": "HEA;HEP",
  "ReceiveCoilName": "Head_32",
  "ReconMatrixPE": 82,
  "RepetitionTime": 0.46,
  "SAR": 0.0770008,
  "ScanOptions": "FS",
  "ScanningSequence": "EP",
  "SequenceName": "epfid2d1_82",
  "SequenceVariant": "SK\\SS",
  "SeriesDescription": "func_run-05_task-social_acq-ap-mb8",
  "SeriesNumber": 20,
  "ShimSetting": [4144, -7754, -7331, 799, -83, -238, -83, 131],
  "SliceThickness": 2.7,
  "SliceTiming": [0, 0.2525, 0.0625, 0.315, 0.125, 0.3775, 0.19, 0, 0.2525, 0.0625, 0.315, 0.125, 0.3775, 0.19, 0, 0.2525, 0.0625, 0.315, 0.125, 0.3775, 0.19, 0, 0.2525, 0.0625, 0.315, 0.125, 0.3775, 0.19, 0, 0.2525, 0.0625, 0.315, 0.125, 0.3775, 0.19, 0, 0.2525, 0.0625, 0.315, 0.125, 0.3775, 0.19, 0, 0.2525, 0.0625, 0.315, 0.125, 0.3775, 0.19, 0, 0.2525, 0.0625, 0.315, 0.125, 0.3775, 0.19],
  "SoftwareVersions": "syngo MR E11",
  "SpacingBetweenSlices": 2.7,
  "StationName": "AWP66112",
  "TaskName": "social",
  "TotalReadoutTime": 0.03969,
  "TxRefAmp": 234.052,
  "WipMemBlock": "a0976194-889f-4bab-b7bc-d9a812bc4897||Sequence: R016 ve11e/master r/434b28f1; Aug  7 2019 18:53:46 by eja",
  "dcmmeta_affine": [
    [-2.665027379989624, -0.301756888628006, -0.06876460462808609, 122.1244888305664],
    [-0.30575090646743774, 2.6592867374420166, 0.18228138983249664, -97.98878479003906],
    [-0.04735560342669487, -0.1877073049545288, 2.692962169647217, -80.58750915527344],
    [0.0, 0.0, 0.0, 1.0]
],
  "dcmmeta_reorient_transform": [
    [0.0, -1.0, 0.0, 81.0],
    [1.0, 0.0, 0.0, 0.0],
    [0.0, 0.0, 1.0, 0.0],
    [0.0, 0.0, 0.0, 1.0]
],
  "dcmmeta_shape": [82, 82, 56, 872],
  "dcmmeta_slice_dim": 2,
  "dcmmeta_version": 0.6,
  "global": {
    "const": {
      "AccessionNumber": "A004045",
      "AcquisitionMatrix": [82, 0, 0, 82],
      "AngioFlag": "N",
      "BitsAllocated": 16,
      "BitsStored": 16,
      "BodyPartExamined": "BRAIN",
      "Columns": 656,
      "EchoNumbers": 1,
      "EchoTime": 27.2,
      "EchoTrainLength": 82,
      "FlipAngle": 44.0,
      "HighBit": 15,
      "ImageOrientationPatient": [0.99332833601072, 0.11396169876037, -0.0176507250227, -0.1124730140409, 0.99118863561172, 0.06996363160067],
      "ImagePositionPatient": [-775.94079514304, -968.37921217547, -136.07274291937],
      "ImageType": [
        "ORIGINAL",
        "PRIMARY",
        "M",
        "MB",
        "ND",
        "NORM",
        "MOSAIC"
],
      "ImagedNucleus": "1H",
      "ImagingFrequency": 123.252244,
      "InPlanePhaseEncodingDirection": "COL",
      "MRAcquisitionType": "2D",
      "MagneticFieldStrength": 3.0,
      "Manufacturer": "SIEMENS",
      "ManufacturerModelName": "Prisma",
      "Modality": "MR",
      "NumberOfAverages": 1.0,
      "NumberOfPhaseEncodingSteps": 82,
      "PercentPhaseFieldOfView": 100.0,
      "PercentSampling": 100.0,
      "PerformedProcedureStepStartTime": "202754.427000",
      "PhotometricInterpretation": "MONOCHROME2",
      "PixelBandwidth": 3050.0,
      "PixelRepresentation": 0,
      "PixelSpacing": [2.6829268932343, 2.6829268932343],
      "ProtocolName": "func_run-05_task-social_acq-ap-mb8",
      "RepetitionTime": 460.0,
      "Rows": 656,
      "SAR": 0.07700082614075,
      "SamplesPerPixel": 1,
      "ScanOptions": "FS",
      "ScanningSequence": "EP",
      "SequenceName": "epfid2d1_82",
      "SequenceVariant": [
        "SK",
        "SS"
],
      "SeriesDescription": "func_run-05_task-social_acq-ap-mb8",
      "SeriesNumber": 20,
      "SeriesTime": "212152.810000",
      "SliceLocation": -90.103144581299,
      "SliceThickness": 2.7000000476837,
      "SmallestImagePixelValue": 0,
      "SoftwareVersions": "syngo MR E11",
      "SpacingBetweenSlices": 2.6999999821235,
      "SpecificCharacterSet": "ISO_IR 100",
      "StudyID": "1",
      "StudyTime": "202754.374000",
      "TransmitCoilName": "Body",
      "VariableFlipAngleFlag": "N",
      "WindowCenterWidthExplanation": "Algo1"
    },
    "slices": {}
  },
  "time": {
    "samples": {
      "AcquisitionNumber": [1, 2, 3, 4, 5, 6, 7, 8, 9, 10, 11, 12, 13, 14, 15, 16, 17, 18, 19, 20, 21, 22, 23, 24, 25, 26, 27, 28, 29, 30, 31, 32, 33, 34, 35, 36, 37, 38, 39, 40, 41, 42, 43, 44, 45, 46, 47, 48, 49, 50, 51, 52, 53, 54, 55, 56, 57, 58, 59, 60, 61, 62, 63, 64, 65, 66, 67, 68, 69, 70, 71, 72, 73, 74, 75, 76, 77, 78, 79, 80, 81, 82, 83, 84, 85, 86, 87, 88, 89, 90, 91, 92, 93, 94, 95, 96, 97, 98, 99, 100, 101, 102, 103, 104, 105, 106, 107, 108, 109, 110, 111, 112, 113, 114, 115, 116, 117, 118, 119, 120, 121, 122, 123, 124, 125, 126, 127, 128, 129, 130, 131, 132, 133, 134, 135, 136, 137, 138, 139, 140, 141, 142, 143, 144, 145, 146, 147, 148, 149, 150, 151, 152, 153, 154, 155, 156, 157, 158, 159, 160, 161, 162, 163, 164, 165, 166, 167, 168, 169, 170, 171, 172, 173, 174, 175, 176, 177, 178, 179, 180, 181, 182, 183, 184, 185, 186, 187, 188, 189, 190, 191, 192, 193, 194, 195, 196, 197, 198, 199, 200, 201, 202, 203, 204, 205, 206, 207, 208, 209, 210, 211, 212, 213, 214, 215, 216, 217, 218, 219, 220, 221, 222, 223, 224, 225, 226, 227, 228, 229, 230, 231, 232, 233, 234, 235, 236, 237, 238, 239, 240, 241, 242, 243, 244, 245, 246, 247, 248, 249, 250, 251, 252, 253, 254, 255, 256, 257, 258, 259, 260, 261, 262, 263, 264, 265, 266, 267, 268, 269, 270, 271, 272, 273, 274, 275, 276, 277, 278, 279, 280, 281, 282, 283, 284, 285, 286, 287, 288, 289, 290, 291, 292, 293, 294, 295, 296, 297, 298, 299, 300, 301, 302, 303, 304, 305, 306, 307, 308, 309, 310, 311, 312, 313, 314, 315, 316, 317, 318, 319, 320, 321, 322, 323, 324, 325, 326, 327, 328, 329, 330, 331, 332, 333, 334, 335, 336, 337, 338, 339, 340, 341, 342, 343, 344, 345, 346, 347, 348, 349, 350, 351, 352, 353, 354, 355, 356, 357, 358, 359, 360, 361, 362, 363, 364, 365, 366, 367, 368, 369, 370, 371, 372, 373, 374, 375, 376, 377, 378, 379, 380, 381, 382, 383, 384, 385, 386, 387, 388, 389, 390, 391, 392, 393, 394, 395, 396, 397, 398, 399, 400, 401, 402, 403, 404, 405, 406, 407, 408, 409, 410, 411, 412, 413, 414, 415, 416, 417, 418, 419, 420, 421, 422, 423, 424, 425, 426, 427, 428, 429, 430, 431, 432, 433, 434, 435, 436, 437, 438, 439, 440, 441, 442, 443, 444, 445, 446, 447, 448, 449, 450, 451, 452, 453, 454, 455, 456, 457, 458, 459, 460, 461, 462, 463, 464, 465, 466, 467, 468, 469, 470, 471, 472, 473, 474, 475, 476, 477, 478, 479, 480, 481, 482, 483, 484, 485, 486, 487, 488, 489, 490, 491, 492, 493, 494, 495, 496, 497, 498, 499, 500, 501, 502, 503, 504, 505, 506, 507, 508, 509, 510, 511, 512, 513, 514, 515, 516, 517, 518, 519, 520, 521, 522, 523, 524, 525, 526, 527, 528, 529, 530, 531, 532, 533, 534, 535, 536, 537, 538, 539, 540, 541, 542, 543, 544, 545, 546, 547, 548, 549, 550, 551, 552, 553, 554, 555, 556, 557, 558, 559, 560, 561, 562, 563, 564, 565, 566, 567, 568, 569, 570, 571, 572, 573, 574, 575, 576, 577, 578, 579, 580, 581, 582, 583, 584, 585, 586, 587, 588, 589, 590, 591, 592, 593, 594, 595, 596, 597, 598, 599, 600, 601, 602, 603, 604, 605, 606, 607, 608, 609, 610, 611, 612, 613, 614, 615, 616, 617, 618, 619, 620, 621, 622, 623, 624, 625, 626, 627, 628, 629, 630, 631, 632, 633, 634, 635, 636, 637, 638, 639, 640, 641, 642, 643, 644, 645, 646, 647, 648, 649, 650, 651, 652, 653, 654, 655, 656, 657, 658, 659, 660, 661, 662, 663, 664, 665, 666, 667, 668, 669, 670, 671, 672, 673, 674, 675, 676, 677, 678, 679, 680, 681, 682, 683, 684, 685, 686, 687, 688, 689, 690, 691, 692, 693, 694, 695, 696, 697, 698, 699, 700, 701, 702, 703, 704, 705, 706, 707, 708, 709, 710, 711, 712, 713, 714, 715, 716, 717, 718, 719, 720, 721, 722, 723, 724, 725, 726, 727, 728, 729, 730, 731, 732, 733, 734, 735, 736, 737, 738, 739, 740, 741, 742, 743, 744, 745, 746, 747, 748, 749, 750, 751, 752, 753, 754, 755, 756, 757, 758, 759, 760, 761, 762, 763, 764, 765, 766, 767, 768, 769, 770, 771, 772, 773, 774, 775, 776, 777, 778, 779, 780, 781, 782, 783, 784, 785, 786, 787, 788, 789, 790, 791, 792, 793, 794, 795, 796, 797, 798, 799, 800, 801, 802, 803, 804, 805, 806, 807, 808, 809, 810, 811, 812, 813, 814, 815, 816, 817, 818, 819, 820, 821, 822, 823, 824, 825, 826, 827, 828, 829, 830, 831, 832, 833, 834, 835, 836, 837, 838, 839, 840, 841, 842, 843, 844, 845, 846, 847, 848, 849, 850, 851, 852, 853, 854, 855, 856, 857, 858, 859, 860, 861, 862, 863, 864, 865, 866, 867, 868, 869, 870, 871, 872],
      "AcquisitionTime": ["212141.467500", "212141.927500", "212142.387500", "212142.847500", "212143.307500", "212143.767500", "212144.227500", "212144.687500", "212145.147500", "212145.607500", "212146.067500", "212146.527500", "212146.987500", "212147.447500", "212147.907500", "212148.367500", "212148.827500", "212149.287500", "212149.747500", "212150.207500", "212150.667500", "212151.127500", "212151.587500", "212152.047500", "212152.507500", "212152.967500", "212153.427500", "212153.887500", "212154.347500", "212154.807500", "212155.267500", "212155.727500", "212156.187500", "212156.647500", "212157.107500", "212157.567500", "212158.027500", "212158.487500", "212158.947500", "212159.407500", "212159.867500", "212200.327500", "212200.787500", "212201.247500", "212201.707500", "212202.167500", "212202.627500", "212203.087500", "212203.547500", "212204.007500", "212204.467500", "212204.927500", "212205.387500", "212205.847500", "212206.307500", "212206.767500", "212207.227500", "212207.687500", "212208.147500", "212208.607500", "212209.067500", "212209.527500", "212209.987500", "212210.447500", "212210.907500", "212211.367500", "212211.827500", "212212.287500", "212212.747500", "212213.207500", "212213.667500", "212214.127500", "212214.587500", "212215.047500", "212215.507500", "212215.967500", "212216.427500", "212216.887500", "212217.347500", "212217.807500", "212218.267500", "212218.727500", "212219.187500", "212219.647500", "212220.107500", "212220.567500", "212221.027500", "212221.487500", "212221.947500", "212222.407500", "212222.867500", "212223.327500", "212223.787500", "212224.247500", "212224.707500", "212225.167500", "212225.627500", "212226.087500", "212226.547500", "212227.007500", "212227.467500", "212227.927500", "212228.387500", "212228.847500", "212229.307500", "212229.767500", "212230.227500", "212230.687500", "212231.147500", "212231.607500", "212232.067500", "212232.527500", "212232.987500", "212233.447500", "212233.907500", "212234.367500", "212234.827500", "212235.287500", "212235.747500", "212236.207500", "212236.667500", "212237.127500", "212237.587500", "212238.047500", "212238.507500", "212238.967500", "212239.427500", "212239.887500", "212240.347500", "212240.807500", "212241.267500", "212241.727500", "212242.187500", "212242.647500", "212243.107500", "212243.567500", "212244.027500", "212244.487500", "212244.947500", "212245.407500", "212245.867500", "212246.327500", "212246.787500", "212247.247500", "212247.707500", "212248.167500", "212248.627500", "212249.087500", "212249.547500", "212250.007500", "212250.467500", "212250.927500", "212251.387500", "212251.847500", "212252.307500", "212252.767500", "212253.227500", "212253.687500", "212254.147500", "212254.607500", "212255.067500", "212255.527500", "212255.987500", "212256.447500", "212256.907500", "212257.367500", "212257.827500", "212258.287500", "212258.747500", "212259.207500", "212259.667500", "212300.127500", "212300.587500", "212301.047500", "212301.507500", "212301.967500", "212302.427500", "212302.887500", "212303.347500", "212303.807500", "212304.267500", "212304.727500", "212305.187500", "212305.647500", "212306.107500", "212306.567500", "212307.027500", "212307.487500", "212307.947500", "212308.407500", "212308.867500", "212309.327500", "212309.787500", "212310.247500", "212310.707500", "212311.167500", "212311.627500", "212312.087500", "212312.547500", "212313.007500", "212313.467500", "212313.927500", "212314.387500", "212314.847500", "212315.307500", "212315.767500", "212316.227500", "212316.687500", "212317.147500", "212317.607500", "212318.067500", "212318.527500", "212318.987500", "212319.447500", "212319.907500", "212320.367500", "212320.827500", "212321.287500", "212321.747500", "212322.207500", "212322.667500", "212323.127500", "212323.587500", "212324.047500", "212324.507500", "212324.967500", "212325.427500", "212325.887500", "212326.347500", "212326.807500", "212327.267500", "212327.727500", "212328.187500", "212328.647500", "212329.107500", "212329.567500", "212330.027500", "212330.487500", "212330.947500", "212331.407500", "212331.867500", "212332.327500", "212332.787500", "212333.247500", "212333.707500", "212334.167500", "212334.627500", "212335.087500", "212335.547500", "212336.007500", "212336.467500", "212336.927500", "212337.387500", "212337.847500", "212338.307500", "212338.767500", "212339.227500", "212339.687500", "212340.147500", "212340.607500", "212341.067500", "212341.527500", "212341.987500", "212342.447500", "212342.907500", "212343.367500", "212343.827500", "212344.287500", "212344.747500", "212345.207500", "212345.667500", "212346.127500", "212346.587500", "212347.047500", "212347.507500", "212347.967500", "212348.427500", "212348.887500", "212349.347500", "212349.807500", "212350.267500", "212350.727500", "212351.187500", "212351.647500", "212352.107500", "212352.567500", "212353.027500", "212353.487500", "212353.947500", "212354.407500", "212354.867500", "212355.327500", "212355.787500", "212356.247500", "212356.707500", "212357.167500", "212357.627500", "212358.087500", "212358.547500", "212359.007500", "212359.467500", "212359.927500", "212400.387500", "212400.847500", "212401.307500", "212401.767500", "212402.227500", "212402.687500", "212403.147500", "212403.607500", "212404.067500", "212404.527500", "212404.987500", "212405.447500", "212405.907500", "212406.367500", "212406.827500", "212407.287500", "212407.747500", "212408.207500", "212408.667500", "212409.127500", "212409.587500", "212410.047500", "212410.507500", "212410.967500", "212411.427500", "212411.887500", "212412.347500", "212412.807500", "212413.267500", "212413.727500", "212414.187500", "212414.647500", "212415.107500", "212415.567500", "212416.027500", "212416.487500", "212416.947500", "212417.407500", "212417.867500", "212418.327500", "212418.787500", "212419.247500", "212419.707500", "212420.167500", "212420.627500", "212421.087500", "212421.547500", "212422.007500", "212422.467500", "212422.927500", "212423.387500", "212423.847500", "212424.307500", "212424.767500", "212425.227500", "212425.687500", "212426.147500", "212426.607500", "212427.067500", "212427.527500", "212427.987500", "212428.447500", "212428.907500", "212429.367500", "212429.827500", "212430.287500", "212430.747500", "212431.207500", "212431.667500", "212432.127500", "212432.587500", "212433.047500", "212433.507500", "212433.967500", "212434.427500", "212434.887500", "212435.347500", "212435.807500", "212436.267500", "212436.727500", "212437.187500", "212437.647500", "212438.107500", "212438.567500", "212439.027500", "212439.487500", "212439.947500", "212440.407500", "212440.867500", "212441.327500", "212441.787500", "212442.247500", "212442.707500", "212443.167500", "212443.627500", "212444.087500", "212444.547500", "212445.007500", "212445.467500", "212445.927500", "212446.387500", "212446.847500", "212447.307500", "212447.767500", "212448.227500", "212448.687500", "212449.147500", "212449.607500", "212450.067500", "212450.527500", "212450.987500", "212451.447500", "212451.907500", "212452.367500", "212452.827500", "212453.287500", "212453.747500", "212454.207500", "212454.667500", "212455.127500", "212455.587500", "212456.047500", "212456.507500", "212456.967500", "212457.427500", "212457.887500", "212458.347500", "212458.807500", "212459.267500", "212459.727500", "212500.187500", "212500.647500", "212501.107500", "212501.567500", "212502.027500", "212502.487500", "212502.947500", "212503.407500", "212503.867500", "212504.327500", "212504.787500", "212505.247500", "212505.707500", "212506.167500", "212506.627500", "212507.087500", "212507.547500", "212508.007500", "212508.467500", "212508.927500", "212509.387500", "212509.847500", "212510.307500", "212510.767500", "212511.227500", "212511.687500", "212512.147500", "212512.607500", "212513.067500", "212513.527500", "212513.987500", "212514.447500", "212514.907500", "212515.367500", "212515.827500", "212516.287500", "212516.747500", "212517.207500", "212517.667500", "212518.127500", "212518.587500", "212519.047500", "212519.507500", "212519.967500", "212520.427500", "212520.887500", "212521.347500", "212521.807500", "212522.267500", "212522.727500", "212523.187500", "212523.647500", "212524.107500", "212524.567500", "212525.027500", "212525.487500", "212525.947500", "212526.407500", "212526.867500", "212527.327500", "212527.787500", "212528.247500", "212528.707500", "212529.167500", "212529.627500", "212530.087500", "212530.547500", "212531.007500", "212531.467500", "212531.927500", "212532.387500", "212532.847500", "212533.307500", "212533.767500", "212534.227500", "212534.687500", "212535.147500", "212535.607500", "212536.067500", "212536.527500", "212536.987500", "212537.447500", "212537.907500", "212538.367500", "212538.827500", "212539.287500", "212539.747500", "212540.207500", "212540.667500", "212541.127500", "212541.587500", "212542.047500", "212542.507500", "212542.967500", "212543.427500", "212543.887500", "212544.347500", "212544.807500", "212545.267500", "212545.727500", "212546.187500", "212546.647500", "212547.107500", "212547.567500", "212548.027500", "212548.487500", "212548.947500", "212549.407500", "212549.867500", "212550.327500", "212550.787500", "212551.247500", "212551.707500", "212552.167500", "212552.627500", "212553.087500", "212553.547500", "212554.007500", "212554.467500", "212554.927500", "212555.387500", "212555.847500", "212556.307500", "212556.767500", "212557.227500", "212557.687500", "212558.147500", "212558.607500", "212559.067500", "212559.527500", "212559.987500", "212600.447500", "212600.907500", "212601.367500", "212601.827500", "212602.287500", "212602.747500", "212603.207500", "212603.667500", "212604.127500", "212604.587500", "212605.047500", "212605.507500", "212605.967500", "212606.427500", "212606.887500", "212607.347500", "212607.807500", "212608.267500", "212608.727500", "212609.187500", "212609.647500", "212610.107500", "212610.567500", "212611.027500", "212611.487500", "212611.947500", "212612.407500", "212612.867500", "212613.327500", "212613.787500", "212614.247500", "212614.707500", "212615.167500", "212615.627500", "212616.087500", "212616.547500", "212617.007500", "212617.467500", "212617.927500", "212618.387500", "212618.847500", "212619.307500", "212619.767500", "212620.227500", "212620.687500", "212621.147500", "212621.607500", "212622.067500", "212622.527500", "212622.987500", "212623.447500", "212623.907500", "212624.367500", "212624.827500", "212625.287500", "212625.747500", "212626.207500", "212626.667500", "212627.127500", "212627.587500", "212628.047500", "212628.507500", "212628.967500", "212629.427500", "212629.887500", "212630.347500", "212630.807500", "212631.267500", "212631.727500", "212632.187500", "212632.647500", "212633.107500", "212633.567500", "212634.027500", "212634.487500", "212634.947500", "212635.407500", "212635.867500", "212636.327500", "212636.787500", "212637.247500", "212637.707500", "212638.167500", "212638.627500", "212639.087500", "212639.547500", "212640.007500", "212640.467500", "212640.927500", "212641.387500", "212641.847500", "212642.307500", "212642.767500", "212643.227500", "212643.687500", "212644.147500", "212644.607500", "212645.067500", "212645.527500", "212645.987500", "212646.447500", "212646.907500", "212647.367500", "212647.827500", "212648.287500", "212648.747500", "212649.207500", "212649.667500", "212650.127500", "212650.587500", "212651.047500", "212651.507500", "212651.967500", "212652.427500", "212652.887500", "212653.347500", "212653.807500", "212654.267500", "212654.727500", "212655.187500", "212655.647500", "212656.107500", "212656.567500", "212657.027500", "212657.487500", "212657.947500", "212658.407500", "212658.867500", "212659.327500", "212659.787500", "212700.247500", "212700.707500", "212701.167500", "212701.627500", "212702.087500", "212702.547500", "212703.007500", "212703.467500", "212703.927500", "212704.387500", "212704.847500", "212705.307500", "212705.767500", "212706.227500", "212706.687500", "212707.147500", "212707.607500", "212708.067500", "212708.527500", "212708.987500", "212709.447500", "212709.907500", "212710.367500", "212710.827500", "212711.287500", "212711.747500", "212712.207500", "212712.667500", "212713.127500", "212713.587500", "212714.047500", "212714.507500", "212714.967500", "212715.427500", "212715.887500", "212716.347500", "212716.807500", "212717.267500", "212717.727500", "212718.187500", "212718.647500", "212719.107500", "212719.567500", "212720.027500", "212720.487500", "212720.947500", "212721.407500", "212721.867500", "212722.327500", "212722.787500", "212723.247500", "212723.707500", "212724.167500", "212724.627500", "212725.087500", "212725.547500", "212726.007500", "212726.467500", "212726.927500", "212727.387500", "212727.847500", "212728.307500", "212728.767500", "212729.227500", "212729.687500", "212730.147500", "212730.607500", "212731.067500", "212731.527500", "212731.987500", "212732.447500", "212732.907500", "212733.367500", "212733.827500", "212734.287500", "212734.747500", "212735.207500", "212735.667500", "212736.127500", "212736.587500", "212737.047500", "212737.507500", "212737.967500", "212738.427500", "212738.887500", "212739.347500", "212739.807500", "212740.267500", "212740.727500", "212741.187500", "212741.647500", "212742.107500", "212742.567500", "212743.027500", "212743.487500", "212743.947500", "212744.407500", "212744.867500", "212745.327500", "212745.787500", "212746.247500", "212746.707500", "212747.167500", "212747.627500", "212748.087500", "212748.547500", "212749.007500", "212749.467500", "212749.927500", "212750.387500", "212750.847500", "212751.307500", "212751.767500", "212752.227500", "212752.687500", "212753.147500", "212753.607500", "212754.067500", "212754.527500", "212754.987500", "212755.447500", "212755.907500", "212756.367500", "212756.827500", "212757.287500", "212757.747500", "212758.207500", "212758.667500", "212759.127500", "212759.587500", "212800.047500", "212800.507500", "212800.967500", "212801.427500", "212801.887500", "212802.347500", "212802.807500", "212803.267500", "212803.727500", "212804.187500", "212804.647500", "212805.107500", "212805.567500", "212806.027500", "212806.487500", "212806.947500", "212807.407500", "212807.867500", "212808.327500", "212808.787500", "212809.247500", "212809.707500", "212810.167500", "212810.627500", "212811.087500", "212811.547500", "212812.007500", "212812.467500", "212812.927500", "212813.387500", "212813.847500", "212814.307500", "212814.767500", "212815.227500", "212815.687500", "212816.147500", "212816.607500", "212817.067500", "212817.527500", "212817.987500", "212818.447500", "212818.907500", "212819.367500", "212819.827500", "212820.287500", "212820.747500", "212821.207500", "212821.667500", "212822.127500"],
