{
  "AcquisitionMatrixPE": 82,
  "AcquisitionNumber": 1,
  "AcquisitionTime": "11:42:8.962500",
  "BandwidthPerPixelPhaseEncode": 24.888,
  "BaseResolution": 82,
  "BodyPartExamined": "BRAIN",
  "ConsistencyInfo": "N4_VE11C_LATEST_20160120",
  "ConversionSoftware": "dcm2niix",
  "ConversionSoftwareVersion": "v1.0.20201102",
  "DerivedVendorReportedEchoSpacing": 0.00049,
  "DeviceSerialNumber": "66112",
  "DwellTime": 2e-06,
  "EchoTime": 0.0272,
  "EchoTrainLength": 82,
  "EffectiveEchoSpacing": 0.00049,
  "FlipAngle": 44,
  "ImageComments": "Unaliased MB8/PE3",
  "ImageOrientationPatientDICOM": [0.998818, 0.0175943, 0.0453215, -0.0118548, 0.99222, -0.123929],
  "ImageType": [
    "ORIGINAL",
    "PRIMARY",
    "M",
    "MB",
    "ND",
    "NORM",
    "MOSAIC"
],
  "ImagingFrequency": 123.252,
  "InPlanePhaseEncodingDirectionDICOM": "COL",
  "InstitutionAddress": "Maynard 3,Hanover,NH,US,03755",
  "InstitutionName": "Dartmouth College - PBS",
  "InstitutionalDepartmentName": "Department",
  "MRAcquisitionType": "2D",
  "MagneticFieldStrength": 3,
  "Manufacturer": "Siemens",
  "ManufacturersModelName": "Prisma",
  "Modality": "MR",
  "MultibandAccelerationFactor": 8,
  "PartialFourier": 1,
  "PatientPosition": "HFS",
  "PercentPhaseFOV": 100,
  "PercentSampling": 100,
  "PhaseEncodingDirection": "j-",
  "PhaseEncodingSteps": 82,
  "PhaseResolution": 1,
  "PixelBandwidth": 3050,
  "ProcedureStepDescription": "Wager_Wager^1076_spacetop",
  "ProtocolName": "func_run-06_task-social_acq-ap-mb8",
  "PulseSequenceDetails": "%CustomerSeq%\\cmrr_mbep2d_bold",
  "ReceiveCoilActiveElements": "HEA;HEP",
  "ReceiveCoilName": "Head_32",
  "ReconMatrixPE": 82,
  "RepetitionTime": 0.46,
  "SAR": 0.837798,
  "ScanOptions": "FS",
  "ScanningSequence": "EP",
  "SequenceName": "epfid2d1_82",
  "SequenceVariant": "SK\\SS",
  "SeriesDescription": "func_run-06_task-social_acq-ap-mb8",
  "SeriesNumber": 18,
  "ShimSetting": [4156, -7727, -7249, 401, -33, -43, -31, 99],
  "SliceThickness": 2.7,
  "SliceTiming": [0, 0.25, 0.0625, 0.315, 0.125, 0.3775, 0.1875, 0, 0.25, 0.0625, 0.315, 0.125, 0.3775, 0.1875, 0, 0.25, 0.0625, 0.315, 0.125, 0.3775, 0.1875, 0, 0.25, 0.0625, 0.315, 0.125, 0.3775, 0.1875, 0, 0.25, 0.0625, 0.315, 0.125, 0.3775, 0.1875, 0, 0.25, 0.0625, 0.315, 0.125, 0.3775, 0.1875, 0, 0.25, 0.0625, 0.315, 0.125, 0.3775, 0.1875, 0, 0.25, 0.0625, 0.315, 0.125, 0.3775, 0.1875],
  "SoftwareVersions": "syngo MR E11",
  "SpacingBetweenSlices": 2.7,
  "StationName": "AWP66112",
  "TaskName": "social",
  "TotalReadoutTime": 0.03969,
  "TxRefAmp": 287.891,
  "WipMemBlock": "4ffc4ea7-4a9b-4eac-a883-48775cd4a068||Sequence: R016 ve11c/master r/e634e98; Dec 19 2017 11:00:25 by eja",
  "dcmmeta_affine": [
    [-2.6797542572021484, -0.03180546313524246, 0.1273033618927002, 109.80828094482422],
    [-0.04720412939786911, 2.6620545387268066, -0.33276134729385376, -81.04300689697266],
    [0.1215943992137909, 0.33249181509017944, 2.6763901710510254, -82.84429168701172],
    [0.0, 0.0, 0.0, 1.0]
],
  "dcmmeta_reorient_transform": [
    [0.0, -1.0, 0.0, 81.0],
    [1.0, 0.0, 0.0, 0.0],
    [0.0, 0.0, 1.0, 0.0],
    [0.0, 0.0, 0.0, 1.0]
],
  "dcmmeta_shape": [82, 82, 56, 872],
  "dcmmeta_slice_dim": 2,
  "dcmmeta_version": 0.6,
  "global": {
    "const": {
      "AccessionNumber": "A003840",
      "AcquisitionMatrix": [82, 0, 0, 82],
      "AngioFlag": "N",
      "BitsAllocated": 16,
      "BitsStored": 16,
      "BodyPartExamined": "BRAIN",
      "Columns": 656,
      "EchoNumbers": 1,
      "EchoTime": 27.2,
      "EchoTrainLength": 82,
      "FlipAngle": 44.0,
      "HighBit": 15,
      "ImageOrientationPatient": [0.99881750046179, 0.01759426637765, 0.04532154633167, -0.0118547631698, 0.99222030077929, -0.1239287670868],
      "ImagePositionPatient": [-867.19336090144, -912.14064544538, 4.6151060358008],
      "ImageType": [
        "ORIGINAL",
        "PRIMARY",
        "M",
        "MB",
        "ND",
        "NORM",
        "MOSAIC"
],
      "ImagedNucleus": "1H",
      "ImagingFrequency": 123.252191,
      "InPlanePhaseEncodingDirection": "COL",
      "MRAcquisitionType": "2D",
      "MagneticFieldStrength": 3.0,
      "Manufacturer": "SIEMENS",
      "ManufacturerModelName": "Prisma",
      "Modality": "MR",
      "NumberOfAverages": 1.0,
      "NumberOfPhaseEncodingSteps": 82,
      "PercentPhaseFieldOfView": 100.0,
      "PercentSampling": 100.0,
      "PerformedProcedureStepStartTime": "105241.096000",
      "PhotometricInterpretation": "MONOCHROME2",
      "PixelBandwidth": 3050.0,
      "PixelRepresentation": 0,
      "PixelSpacing": [2.6829268932343, 2.6829268932343],
      "ProtocolName": "func_run-06_task-social_acq-ap-mb8",
      "RepetitionTime": 460.0,
      "Rows": 656,
      "SAR": 0.83779807595245,
      "SamplesPerPixel": 1,
      "ScanOptions": "FS",
      "ScanningSequence": "EP",
      "SequenceName": "epfid2d1_82",
      "SequenceVariant": [
        "SK",
        "SS"
],
      "SeriesDescription": "func_run-06_task-social_acq-ap-mb8",
      "SeriesNumber": 18,
      "SeriesTime": "114235.778000",
      "SliceLocation": -66.954332737986,
      "SliceThickness": 2.7000000476837,
      "SmallestImagePixelValue": 0,
      "SoftwareVersions": "syngo MR E11",
      "SpacingBetweenSlices": 2.7000000191405,
      "SpecificCharacterSet": "ISO_IR 100",
      "StudyID": "1",
      "StudyTime": "105241.022000",
      "TransmitCoilName": "Body",
      "VariableFlipAngleFlag": "N",
      "WindowCenterWidthExplanation": "Algo1",
      "dBdt": 0.0},
    "slices": {}
  },
  "time": {
    "samples": {
      "AcquisitionNumber": [1, 2, 3, 4, 5, 6, 7, 8, 9, 10, 11, 12, 13, 14, 15, 16, 17, 18, 19, 20, 21, 22, 23, 24, 25, 26, 27, 28, 29, 30, 31, 32, 33, 34, 35, 36, 37, 38, 39, 40, 41, 42, 43, 44, 45, 46, 47, 48, 49, 50, 51, 52, 53, 54, 55, 56, 57, 58, 59, 60, 61, 62, 63, 64, 65, 66, 67, 68, 69, 70, 71, 72, 73, 74, 75, 76, 77, 78, 79, 80, 81, 82, 83, 84, 85, 86, 87, 88, 89, 90, 91, 92, 93, 94, 95, 96, 97, 98, 99, 100, 101, 102, 103, 104, 105, 106, 107, 108, 109, 110, 111, 112, 113, 114, 115, 116, 117, 118, 119, 120, 121, 122, 123, 124, 125, 126, 127, 128, 129, 130, 131, 132, 133, 134, 135, 136, 137, 138, 139, 140, 141, 142, 143, 144, 145, 146, 147, 148, 149, 150, 151, 152, 153, 154, 155, 156, 157, 158, 159, 160, 161, 162, 163, 164, 165, 166, 167, 168, 169, 170, 171, 172, 173, 174, 175, 176, 177, 178, 179, 180, 181, 182, 183, 184, 185, 186, 187, 188, 189, 190, 191, 192, 193, 194, 195, 196, 197, 198, 199, 200, 201, 202, 203, 204, 205, 206, 207, 208, 209, 210, 211, 212, 213, 214, 215, 216, 217, 218, 219, 220, 221, 222, 223, 224, 225, 226, 227, 228, 229, 230, 231, 232, 233, 234, 235, 236, 237, 238, 239, 240, 241, 242, 243, 244, 245, 246, 247, 248, 249, 250, 251, 252, 253, 254, 255, 256, 257, 258, 259, 260, 261, 262, 263, 264, 265, 266, 267, 268, 269, 270, 271, 272, 273, 274, 275, 276, 277, 278, 279, 280, 281, 282, 283, 284, 285, 286, 287, 288, 289, 290, 291, 292, 293, 294, 295, 296, 297, 298, 299, 300, 301, 302, 303, 304, 305, 306, 307, 308, 309, 310, 311, 312, 313, 314, 315, 316, 317, 318, 319, 320, 321, 322, 323, 324, 325, 326, 327, 328, 329, 330, 331, 332, 333, 334, 335, 336, 337, 338, 339, 340, 341, 342, 343, 344, 345, 346, 347, 348, 349, 350, 351, 352, 353, 354, 355, 356, 357, 358, 359, 360, 361, 362, 363, 364, 365, 366, 367, 368, 369, 370, 371, 372, 373, 374, 375, 376, 377, 378, 379, 380, 381, 382, 383, 384, 385, 386, 387, 388, 389, 390, 391, 392, 393, 394, 395, 396, 397, 398, 399, 400, 401, 402, 403, 404, 405, 406, 407, 408, 409, 410, 411, 412, 413, 414, 415, 416, 417, 418, 419, 420, 421, 422, 423, 424, 425, 426, 427, 428, 429, 430, 431, 432, 433, 434, 435, 436, 437, 438, 439, 440, 441, 442, 443, 444, 445, 446, 447, 448, 449, 450, 451, 452, 453, 454, 455, 456, 457, 458, 459, 460, 461, 462, 463, 464, 465, 466, 467, 468, 469, 470, 471, 472, 473, 474, 475, 476, 477, 478, 479, 480, 481, 482, 483, 484, 485, 486, 487, 488, 489, 490, 491, 492, 493, 494, 495, 496, 497, 498, 499, 500, 501, 502, 503, 504, 505, 506, 507, 508, 509, 510, 511, 512, 513, 514, 515, 516, 517, 518, 519, 520, 521, 522, 523, 524, 525, 526, 527, 528, 529, 530, 531, 532, 533, 534, 535, 536, 537, 538, 539, 540, 541, 542, 543, 544, 545, 546, 547, 548, 549, 550, 551, 552, 553, 554, 555, 556, 557, 558, 559, 560, 561, 562, 563, 564, 565, 566, 567, 568, 569, 570, 571, 572, 573, 574, 575, 576, 577, 578, 579, 580, 581, 582, 583, 584, 585, 586, 587, 588, 589, 590, 591, 592, 593, 594, 595, 596, 597, 598, 599, 600, 601, 602, 603, 604, 605, 606, 607, 608, 609, 610, 611, 612, 613, 614, 615, 616, 617, 618, 619, 620, 621, 622, 623, 624, 625, 626, 627, 628, 629, 630, 631, 632, 633, 634, 635, 636, 637, 638, 639, 640, 641, 642, 643, 644, 645, 646, 647, 648, 649, 650, 651, 652, 653, 654, 655, 656, 657, 658, 659, 660, 661, 662, 663, 664, 665, 666, 667, 668, 669, 670, 671, 672, 673, 674, 675, 676, 677, 678, 679, 680, 681, 682, 683, 684, 685, 686, 687, 688, 689, 690, 691, 692, 693, 694, 695, 696, 697, 698, 699, 700, 701, 702, 703, 704, 705, 706, 707, 708, 709, 710, 711, 712, 713, 714, 715, 716, 717, 718, 719, 720, 721, 722, 723, 724, 725, 726, 727, 728, 729, 730, 731, 732, 733, 734, 735, 736, 737, 738, 739, 740, 741, 742, 743, 744, 745, 746, 747, 748, 749, 750, 751, 752, 753, 754, 755, 756, 757, 758, 759, 760, 761, 762, 763, 764, 765, 766, 767, 768, 769, 770, 771, 772, 773, 774, 775, 776, 777, 778, 779, 780, 781, 782, 783, 784, 785, 786, 787, 788, 789, 790, 791, 792, 793, 794, 795, 796, 797, 798, 799, 800, 801, 802, 803, 804, 805, 806, 807, 808, 809, 810, 811, 812, 813, 814, 815, 816, 817, 818, 819, 820, 821, 822, 823, 824, 825, 826, 827, 828, 829, 830, 831, 832, 833, 834, 835, 836, 837, 838, 839, 840, 841, 842, 843, 844, 845, 846, 847, 848, 849, 850, 851, 852, 853, 854, 855, 856, 857, 858, 859, 860, 861, 862, 863, 864, 865, 866, 867, 868, 869, 870, 871, 872],
      "AcquisitionTime": ["114208.962500", "114209.422500", "114209.882500", "114210.342500", "114210.802500", "114211.262500", "114211.722500", "114212.182500", "114212.642500", "114213.102500", "114213.562500", "114214.022500", "114214.482500", "114214.942500", "114215.402500", "114215.862500", "114216.322500", "114216.782500", "114217.242500", "114217.702500", "114218.162500", "114218.622500", "114219.082500", "114219.542500", "114220.002500", "114220.462500", "114220.922500", "114221.382500", "114221.842500", "114222.302500", "114222.762500", "114223.222500", "114223.682500", "114224.142500", "114224.602500", "114225.062500", "114225.522500", "114225.982500", "114226.442500", "114226.902500", "114227.362500", "114227.822500", "114228.282500", "114228.742500", "114229.202500", "114229.662500", "114230.122500", "114230.582500", "114231.042500", "114231.502500", "114231.962500", "114232.422500", "114232.882500", "114233.342500", "114233.802500", "114234.262500", "114234.722500", "114235.182500", "114235.642500", "114236.102500", "114236.562500", "114237.022500", "114237.482500", "114237.942500", "114238.402500", "114238.862500", "114239.322500", "114239.782500", "114240.242500", "114240.702500", "114241.162500", "114241.622500", "114242.082500", "114242.542500", "114243.002500", "114243.462500", "114243.922500", "114244.382500", "114244.842500", "114245.302500", "114245.762500", "114246.222500", "114246.682500", "114247.142500", "114247.602500", "114248.062500", "114248.522500", "114248.982500", "114249.442500", "114249.902500", "114250.362500", "114250.822500", "114251.282500", "114251.742500", "114252.202500", "114252.662500", "114253.122500", "114253.582500", "114254.042500", "114254.502500", "114254.962500", "114255.422500", "114255.882500", "114256.342500", "114256.802500", "114257.262500", "114257.722500", "114258.182500", "114258.642500", "114259.102500", "114259.562500", "114300.022500", "114300.482500", "114300.942500", "114301.402500", "114301.862500", "114302.322500", "114302.782500", "114303.242500", "114303.702500", "114304.162500", "114304.622500", "114305.082500", "114305.542500", "114306.002500", "114306.462500", "114306.922500", "114307.382500", "114307.842500", "114308.302500", "114308.762500", "114309.222500", "114309.682500", "114310.142500", "114310.602500", "114311.062500", "114311.522500", "114311.982500", "114312.442500", "114312.902500", "114313.362500", "114313.822500", "114314.282500", "114314.742500", "114315.202500", "114315.662500", "114316.122500", "114316.582500", "114317.042500", "114317.502500", "114317.962500", "114318.422500", "114318.882500", "114319.342500", "114319.802500", "114320.262500", "114320.722500", "114321.182500", "114321.642500", "114322.102500", "114322.562500", "114323.022500", "114323.482500", "114323.942500", "114324.402500", "114324.862500", "114325.322500", "114325.782500", "114326.242500", "114326.702500", "114327.162500", "114327.622500", "114328.082500", "114328.542500", "114329.002500", "114329.462500", "114329.922500", "114330.382500", "114330.842500", "114331.302500", "114331.762500", "114332.222500", "114332.682500", "114333.142500", "114333.602500", "114334.062500", "114334.522500", "114334.982500", "114335.442500", "114335.902500", "114336.362500", "114336.822500", "114337.282500", "114337.742500", "114338.202500", "114338.662500", "114339.122500", "114339.582500", "114340.042500", "114340.502500", "114340.962500", "114341.422500", "114341.882500", "114342.342500", "114342.802500", "114343.262500", "114343.722500", "114344.182500", "114344.642500", "114345.102500", "114345.562500", "114346.022500", "114346.482500", "114346.942500", "114347.402500", "114347.862500", "114348.322500", "114348.782500", "114349.242500", "114349.702500", "114350.162500", "114350.622500", "114351.082500", "114351.542500", "114352.002500", "114352.462500", "114352.922500", "114353.382500", "114353.842500", "114354.302500", "114354.762500", "114355.222500", "114355.682500", "114356.142500", "114356.602500", "114357.062500", "114357.522500", "114357.982500", "114358.442500", "114358.902500", "114359.362500", "114359.822500", "114400.282500", "114400.742500", "114401.202500", "114401.662500", "114402.122500", "114402.582500", "114403.042500", "114403.502500", "114403.962500", "114404.422500", "114404.882500", "114405.342500", "114405.802500", "114406.262500", "114406.722500", "114407.182500", "114407.642500", "114408.102500", "114408.562500", "114409.022500", "114409.482500", "114409.942500", "114410.402500", "114410.862500", "114411.322500", "114411.782500", "114412.242500", "114412.702500", "114413.162500", "114413.622500", "114414.082500", "114414.542500", "114415.002500", "114415.462500", "114415.922500", "114416.382500", "114416.842500", "114417.302500", "114417.762500", "114418.222500", "114418.682500", "114419.142500", "114419.602500", "114420.062500", "114420.522500", "114420.982500", "114421.442500", "114421.902500", "114422.362500", "114422.822500", "114423.282500", "114423.742500", "114424.202500", "114424.662500", "114425.122500", "114425.582500", "114426.042500", "114426.502500", "114426.962500", "114427.422500", "114427.882500", "114428.342500", "114428.802500", "114429.262500", "114429.722500", "114430.182500", "114430.642500", "114431.102500", "114431.562500", "114432.022500", "114432.482500", "114432.942500", "114433.402500", "114433.862500", "114434.322500", "114434.782500", "114435.242500", "114435.702500", "114436.162500", "114436.622500", "114437.082500", "114437.542500", "114438.002500", "114438.462500", "114438.922500", "114439.382500", "114439.842500", "114440.302500", "114440.762500", "114441.222500", "114441.682500", "114442.142500", "114442.602500", "114443.062500", "114443.522500", "114443.982500", "114444.442500", "114444.902500", "114445.362500", "114445.822500", "114446.282500", "114446.742500", "114447.202500", "114447.662500", "114448.122500", "114448.582500", "114449.042500", "114449.502500", "114449.962500", "114450.422500", "114450.882500", "114451.342500", "114451.802500", "114452.262500", "114452.722500", "114453.182500", "114453.642500", "114454.102500", "114454.562500", "114455.022500", "114455.482500", "114455.942500", "114456.402500", "114456.862500", "114457.322500", "114457.782500", "114458.242500", "114458.702500", "114459.162500", "114459.622500", "114500.082500", "114500.542500", "114501.002500", "114501.462500", "114501.922500", "114502.382500", "114502.842500", "114503.302500", "114503.762500", "114504.222500", "114504.682500", "114505.142500", "114505.602500", "114506.062500", "114506.522500", "114506.982500", "114507.442500", "114507.902500", "114508.362500", "114508.822500", "114509.282500", "114509.742500", "114510.202500", "114510.662500", "114511.122500", "114511.582500", "114512.042500", "114512.502500", "114512.962500", "114513.422500", "114513.882500", "114514.342500", "114514.802500", "114515.262500", "114515.722500", "114516.182500", "114516.642500", "114517.102500", "114517.562500", "114518.022500", "114518.482500", "114518.942500", "114519.402500", "114519.862500", "114520.322500", "114520.782500", "114521.242500", "114521.702500", "114522.162500", "114522.622500", "114523.082500", "114523.542500", "114524.002500", "114524.462500", "114524.922500", "114525.382500", "114525.842500", "114526.302500", "114526.762500", "114527.222500", "114527.682500", "114528.142500", "114528.602500", "114529.062500", "114529.522500", "114529.982500", "114530.442500", "114530.902500", "114531.362500", "114531.822500", "114532.282500", "114532.742500", "114533.202500", "114533.662500", "114534.122500", "114534.582500", "114535.042500", "114535.502500", "114535.962500", "114536.422500", "114536.882500", "114537.342500", "114537.802500", "114538.262500", "114538.722500", "114539.182500", "114539.642500", "114540.102500", "114540.562500", "114541.022500", "114541.482500", "114541.942500", "114542.402500", "114542.862500", "114543.322500", "114543.782500", "114544.242500", "114544.702500", "114545.162500", "114545.622500", "114546.082500", "114546.542500", "114547.002500", "114547.462500", "114547.922500", "114548.382500", "114548.842500", "114549.302500", "114549.762500", "114550.222500", "114550.682500", "114551.142500", "114551.602500", "114552.062500", "114552.522500", "114552.982500", "114553.442500", "114553.902500", "114554.362500", "114554.822500", "114555.282500", "114555.742500", "114556.202500", "114556.662500", "114557.122500", "114557.582500", "114558.042500", "114558.502500", "114558.962500", "114559.422500", "114559.882500", "114600.342500", "114600.802500", "114601.262500", "114601.722500", "114602.182500", "114602.642500", "114603.102500", "114603.562500", "114604.022500", "114604.482500", "114604.942500", "114605.402500", "114605.862500", "114606.322500", "114606.782500", "114607.242500", "114607.702500", "114608.162500", "114608.622500", "114609.082500", "114609.542500", "114610.002500", "114610.462500", "114610.922500", "114611.382500", "114611.842500", "114612.302500", "114612.762500", "114613.222500", "114613.682500", "114614.142500", "114614.602500", "114615.062500", "114615.522500", "114615.982500", "114616.442500", "114616.902500", "114617.362500", "114617.822500", "114618.282500", "114618.742500", "114619.202500", "114619.662500", "114620.122500", "114620.582500", "114621.042500", "114621.502500", "114621.962500", "114622.422500", "114622.882500", "114623.342500", "114623.802500", "114624.262500", "114624.722500", "114625.182500", "114625.642500", "114626.102500", "114626.562500", "114627.022500", "114627.482500", "114627.942500", "114628.402500", "114628.862500", "114629.322500", "114629.782500", "114630.242500", "114630.702500", "114631.162500", "114631.622500", "114632.082500", "114632.542500", "114633.002500", "114633.462500", "114633.922500", "114634.382500", "114634.842500", "114635.302500", "114635.762500", "114636.222500", "114636.682500", "114637.142500", "114637.602500", "114638.062500", "114638.522500", "114638.982500", "114639.442500", "114639.902500", "114640.362500", "114640.822500", "114641.282500", "114641.742500", "114642.202500", "114642.662500", "114643.122500", "114643.582500", "114644.042500", "114644.502500", "114644.962500", "114645.422500", "114645.882500", "114646.342500", "114646.802500", "114647.262500", "114647.722500", "114648.182500", "114648.642500", "114649.102500", "114649.562500", "114650.022500", "114650.482500", "114650.942500", "114651.402500", "114651.862500", "114652.322500", "114652.782500", "114653.242500", "114653.702500", "114654.162500", "114654.622500", "114655.082500", "114655.542500", "114656.002500", "114656.462500", "114656.922500", "114657.382500", "114657.842500", "114658.302500", "114658.762500", "114659.222500", "114659.682500", "114700.142500", "114700.602500", "114701.062500", "114701.522500", "114701.982500", "114702.442500", "114702.902500", "114703.362500", "114703.822500", "114704.282500", "114704.742500", "114705.202500", "114705.662500", "114706.122500", "114706.582500", "114707.042500", "114707.502500", "114707.962500", "114708.422500", "114708.882500", "114709.342500", "114709.802500", "114710.262500", "114710.722500", "114711.182500", "114711.642500", "114712.102500", "114712.562500", "114713.022500", "114713.482500", "114713.942500", "114714.402500", "114714.862500", "114715.322500", "114715.782500", "114716.242500", "114716.702500", "114717.162500", "114717.622500", "114718.082500", "114718.542500", "114719.002500", "114719.462500", "114719.922500", "114720.382500", "114720.842500", "114721.302500", "114721.762500", "114722.222500", "114722.682500", "114723.142500", "114723.602500", "114724.062500", "114724.522500", "114724.982500", "114725.442500", "114725.902500", "114726.362500", "114726.822500", "114727.282500", "114727.742500", "114728.202500", "114728.662500", "114729.122500", "114729.582500", "114730.042500", "114730.502500", "114730.962500", "114731.422500", "114731.882500", "114732.342500", "114732.802500", "114733.262500", "114733.722500", "114734.182500", "114734.642500", "114735.102500", "114735.562500", "114736.022500", "114736.482500", "114736.942500", "114737.402500", "114737.862500", "114738.322500", "114738.782500", "114739.242500", "114739.702500", "114740.162500", "114740.622500", "114741.082500", "114741.542500", "114742.002500", "114742.462500", "114742.922500", "114743.382500", "114743.842500", "114744.302500", "114744.762500", "114745.222500", "114745.682500", "114746.142500", "114746.602500", "114747.062500", "114747.522500", "114747.982500", "114748.442500", "114748.902500", "114749.362500", "114749.822500", "114750.282500", "114750.742500", "114751.202500", "114751.662500", "114752.122500", "114752.582500", "114753.042500", "114753.502500", "114753.962500", "114754.422500", "114754.882500", "114755.342500", "114755.802500", "114756.262500", "114756.722500", "114757.182500", "114757.642500", "114758.102500", "114758.562500", "114759.022500", "114759.482500", "114759.942500", "114800.402500", "114800.862500", "114801.322500", "114801.782500", "114802.242500", "114802.702500", "114803.162500", "114803.622500", "114804.082500", "114804.542500", "114805.002500", "114805.462500", "114805.922500", "114806.382500", "114806.842500", "114807.302500", "114807.762500", "114808.222500", "114808.682500", "114809.142500", "114809.602500", "114810.062500", "114810.522500", "114810.982500", "114811.442500", "114811.902500", "114812.362500", "114812.822500", "114813.282500", "114813.742500", "114814.202500", "114814.662500", "114815.122500", "114815.582500", "114816.042500", "114816.502500", "114816.962500", "114817.422500", "114817.882500", "114818.342500", "114818.802500", "114819.262500", "114819.722500", "114820.182500", "114820.642500", "114821.102500", "114821.562500", "114822.022500", "114822.482500", "114822.942500", "114823.402500", "114823.862500", "114824.322500", "114824.782500", "114825.242500", "114825.702500", "114826.162500", "114826.622500", "114827.082500", "114827.542500", "114828.002500", "114828.462500", "114828.922500", "114829.382500", "114829.842500", "114830.302500", "114830.762500", "114831.222500", "114831.682500", "114832.142500", "114832.602500", "114833.062500", "114833.522500", "114833.982500", "114834.442500", "114834.902500", "114835.362500", "114835.822500", "114836.282500", "114836.742500", "114837.202500", "114837.662500", "114838.122500", "114838.582500", "114839.042500", "114839.502500", "114839.962500", "114840.422500", "114840.882500", "114841.342500", "114841.802500", "114842.262500", "114842.722500", "114843.182500", "114843.642500", "114844.102500", "114844.562500", "114845.022500", "114845.482500", "114845.942500", "114846.402500", "114846.862500", "114847.322500", "114847.782500", "114848.242500", "114848.702500", "114849.162500", "114849.622500"],
