{
  "AcquisitionMatrixPE": 140,
  "AcquisitionNumber": 1,
  "AcquisitionTime": "12:37:30.995000",
  "BandwidthPerPixelPhaseEncode": 10.352,
  "BaseResolution": 140,
  "BodyPartExamined": "BRAIN",
  "ConsistencyInfo": "N4_VE11E_LATEST_20181129",
  "ConversionSoftware": "dcm2niix",
  "ConversionSoftwareVersion": "v1.0.20201102",
  "DerivedVendorReportedEchoSpacing": 0.000689998,
  "DeviceSerialNumber": "66112",
  "DiffusionScheme": "Monopolar",
  "DwellTime": 2.1e-06,
  "EchoTime": 0.088,
  "EchoTrainLength": 105,
  "EffectiveEchoSpacing": 0.000689998,
  "FlipAngle": 90,
  "ImageComments": "Unaliased MB3/PE3",
  "ImageOrientationPatientDICOM": [0.997608, -0.0158332, 0.0672836, -0.00191531, 0.966706, 0.255884],
  "ImageType": [
    "ORIGINAL",
    "PRIMARY",
    "DIFFUSION",
    "NONE",
    "MB",
    "ND"
],
  "ImagingFrequency": 123.252,
  "InPlanePhaseEncodingDirectionDICOM": "COL",
  "InstitutionAddress": "Maynard 3,Hanover,NH,US,03755",
  "InstitutionName": "Dartmouth College - PBS",
  "InstitutionalDepartmentName": "Department",
  "IntendedFor": [
    "ses-01/dwi/sub-0079_ses-01_acq-96dirX6b0Xmb_dwi.nii.gz"
],
  "MRAcquisitionType": "2D",
  "MagneticFieldStrength": 3,
  "Manufacturer": "Siemens",
  "ManufacturersModelName": "Prisma",
  "Modality": "MR",
  "MultibandAccelerationFactor": 3,
  "PartialFourier": 0.75,
  "PatientPosition": "HFS",
  "PercentPhaseFOV": 100,
  "PercentSampling": 100,
  "PhaseEncodingDirection": "j",
  "PhaseEncodingSteps": 105,
  "PhaseResolution": 1,
  "PixelBandwidth": 1700,
  "ProcedureStepDescription": "Wager_Wager^1076_spacetop",
  "ProtocolName": "dwi_acq-discorr-PA",
  "PulseSequenceDetails": "%CustomerSeq%\\cmrr_mbep2d_diff",
  "ReceiveCoilActiveElements": "HEA;HEP",
  "ReceiveCoilName": "Head_32",
  "ReconMatrixPE": 140,
  "RepetitionTime": 4.1,
  "SAR": 0.191432,
  "ScanOptions": "PFP\\FS",
  "ScanningSequence": "EP",
  "SequenceName": "ep_b0",
  "SequenceVariant": "SK\\SS",
  "SeriesDescription": "dwi_acq-discorr-PA",
  "SeriesNumber": 6,
  "ShimSetting": [4182, -7754, -7285, 386, -10, -33, 142, 41],
  "SliceThickness": 1.7,
  "SliceTiming": [0, 2.11719, 0.15625, 2.26562, 0.30469, 2.42188, 0.45312, 2.57031, 0.60938, 2.72656, 0.75781, 2.875, 0.90625, 3.02344, 1.0625, 3.17188, 1.21094, 3.32812, 1.35938, 3.47656, 1.51562, 3.625, 1.66406, 3.78125, 1.8125, 3.92969, 1.96875, 0, 2.11719, 0.15625, 2.26562, 0.30469, 2.42188, 0.45312, 2.57031, 0.60938, 2.72656, 0.75781, 2.875, 0.90625, 3.02344, 1.0625, 3.17188, 1.21094, 3.32812, 1.35938, 3.47656, 1.51562, 3.625, 1.66406, 3.78125, 1.8125, 3.92969, 1.96875, 0, 2.11719, 0.15625, 2.26562, 0.30469, 2.42188, 0.45312, 2.57031, 0.60938, 2.72656, 0.75781, 2.875, 0.90625, 3.02344, 1.0625, 3.17188, 1.21094, 3.32812, 1.35938, 3.47656, 1.51562, 3.625, 1.66406, 3.78125, 1.8125, 3.92969, 1.96875],
  "SoftwareVersions": "syngo MR E11",
  "SpacingBetweenSlices": 1.7,
  "StationName": "AWP66112",
  "TotalReadoutTime": 0.0959097,
  "TxRefAmp": 261.034,
  "WipMemBlock": "7746e73a-3050-4584-943f-c8328c271a04||Sequence: R016 ve11e/master r/434b28f1; Aug  7 2019 19:06:17 by eja",
  "dcmmeta_affine": [
    [-1.7101856470108032, -0.0032833849545568228, 0.117462158203125, 118.77857208251953],
    [0.027142642065882683, 1.6572097539901733, 0.43418121337890625, -99.14945220947266],
    [0.11534339934587479, -0.4386575520038605, 1.6394195556640625, -26.24557113647461],
    [0.0, 0.0, 0.0, 1.0]
],
  "dcmmeta_reorient_transform": [
    [0.0, -1.0, 0.0, 139.0],
    [1.0, 0.0, 0.0, 0.0],
    [0.0, 0.0, -1.0, 80.0],
    [0.0, 0.0, 0.0, 1.0]
],
  "dcmmeta_shape": [140, 140, 81],
  "dcmmeta_slice_dim": 2,
  "dcmmeta_version": 0.6,
  "global": {
    "const": {
      "AccessionNumber": "A004015",
      "AcquisitionMatrix": [140, 0, 0, 140],
      "AcquisitionNumber": 1,
      "AngioFlag": "N",
      "BitsAllocated": 16,
      "BitsStored": 16,
      "BodyPartExamined": "BRAIN",
      "Columns": 140,
      "EchoNumbers": 1,
      "EchoTime": 88.0,
      "EchoTrainLength": 105,
      "FlipAngle": 90.0,
      "HighBit": 15,
      "ImageOrientationPatient": [0.99760824991971, -0.0158332078693, 0.06728364749849, -0.001915307828, 0.96670571236606, 0.25588356194714],
      "ImageType": [
        "ORIGINAL",
        "PRIMARY",
        "DIFFUSION",
        "NONE",
        "MB",
        "ND"
],
      "ImagedNucleus": "1H",
      "ImagingFrequency": 123.252159,
      "InPlanePhaseEncodingDirection": "COL",
      "MRAcquisitionType": "2D",
      "MagneticFieldStrength": 3.0,
      "Manufacturer": "SIEMENS",
      "ManufacturerModelName": "Prisma",
      "Modality": "MR",
      "NumberOfAverages": 1.0,
      "NumberOfPhaseEncodingSteps": 105,
      "PercentPhaseFieldOfView": 100.0,
      "PercentSampling": 100.0,
      "PerformedProcedureStepStartTime": "121031.412000",
      "PhotometricInterpretation": "MONOCHROME2",
      "PixelBandwidth": 1700.0,
      "PixelRepresentation": 0,
      "PixelSpacing": [1.7142857313156, 1.7142857313156],
      "ProtocolName": "dwi_acq-discorr-PA",
      "RepetitionTime": 4100.0,
      "Rows": 140,
      "SAR": 0.19143241464988,
      "SamplesPerPixel": 1,
      "ScanOptions": [
        "PFP",
        "FS"
],
      "ScanningSequence": "EP",
      "SequenceName": "ep_b0",
      "SequenceVariant": [
        "SK",
        "SS"
],
      "SeriesDescription": "dwi_acq-discorr-PA",
      "SeriesNumber": 6,
      "SeriesTime": "123735.162000",
      "SliceThickness": 1.7000000476837,
      "SmallestImagePixelValue": 0,
      "SoftwareVersions": "syngo MR E11",
      "SpacingBetweenSlices": 1.7,
      "SpecificCharacterSet": "ISO_IR 100",
      "StudyID": "2",
      "StudyTime": "121031.366000",
      "TransmitCoilName": "Body",
      "VariableFlipAngleFlag": "N",
      "WindowCenterWidthExplanation": "Algo1"
    },
    "slices": {
      "AcquisitionTime": ["123730.995000", "123733.110000", "123731.145000", "123733.260000", "123731.297500", "123733.412500", "123731.447500", "123733.562500", "123731.600000", "123733.715000", "123731.750000", "123733.865000", "123731.900000", "123734.017500", "123732.052500", "123734.167500", "123732.202500", "123734.320000", "123732.355000", "123734.470000", "123732.505000", "123734.620000", "123732.657500", "123734.772500", "123732.807500", "123734.922500", "123732.960000", "123730.995000", "123733.110000", "123731.145000", "123733.260000", "123731.297500", "123733.412500", "123731.447500", "123733.562500", "123731.600000", "123733.715000", "123731.750000", "123733.865000", "123731.900000", "123734.017500", "123732.052500", "123734.167500", "123732.202500", "123734.320000", "123732.355000", "123734.470000", "123732.505000", "123734.620000", "123732.657500", "123734.772500", "123732.807500", "123734.922500", "123732.960000", "123730.995000", "123733.110000", "123731.145000", "123733.260000", "123731.297500", "123733.412500", "123731.447500", "123733.562500", "123731.600000", "123733.715000", "123731.750000", "123733.865000", "123731.900000", "123734.017500", "123732.052500", "123734.167500", "123732.202500", "123734.320000", "123732.355000", "123734.470000", "123732.505000", "123734.620000", "123732.657500", "123734.772500", "123732.807500", "123734.922500", "123732.960000"],
      "ContentTime": ["123735.165000", "123735.252000", "123735.172000", "123735.258000", "123735.178000", "123735.264000", "123735.184000", "123735.270000", "123735.190000", "123735.276000", "123735.196000", "123735.281000", "123735.202000", "123735.287000", "123735.208000", "123735.293000", "123735.214000", "123735.299000", "123735.219000", "123735.632000", "123735.225000", "123735.639000", "123735.235000", "123735.645000", "123735.241000", "123735.650000", "123735.246000", "123735.168000", "123735.254000", "123735.174000", "123735.260000", "123735.180000", "123735.266000", "123735.186000", "123735.272000", "123735.192000", "123735.277000", "123735.198000", "123735.283000", "123735.204000", "123735.289000", "123735.210000", "123735.295000", "123735.216000", "123735.301000", "123735.221000", "123735.635000", "123735.227000", "123735.641000", "123735.237000", "123735.646000", "123735.242000", "123735.652000", "123735.248000", "123735.170000", "123735.256000", "123735.176000", "123735.262000", "123735.182000", "123735.268000", "123735.188000", "123735.274000", "123735.194000", "123735.279000", "123735.200000", "123735.285000", "123735.206000", "123735.291000", "123735.212000", "123735.297000", "123735.217000", "123735.303000", "123735.223000", "123735.637000", "123735.229000", "123735.643000", "123735.239000", "123735.648000", "123735.244000", "123735.654000", "123735.250000"],
      "CsaImage.GSWDDataType": [
        "predicted",
        "predicted",
        "predicted",
        "predicted",
        "predicted",
        "predicted",
        "predicted",
        "predicted",
        "predicted",
        "predicted",
        "predicted",
        "predicted",
        "predicted",
        "predicted",
        "predicted",
        "predicted",
        "predicted",
        "predicted",
        "predicted",
        "predicted",
        "predicted",
        "predicted",
        "predicted",
        "measured",
        "predicted",
        "measured",
        "predicted",
        "predicted",
        "predicted",
        "predicted",
        "predicted",
        "predicted",
        "predicted",
        "predicted",
        "predicted",
        "predicted",
        "predicted",
        "predicted",
        "predicted",
        "predicted",
        "predicted",
        "predicted",
        "predicted",
        "predicted",
        "predicted",
        "predicted",
        "predicted",
        "predicted",
        "predicted",
        "predicted",
        "measured",
        "predicted",
        "measured",
        "predicted",
        "predicted",
        "predicted",
        "predicted",
        "predicted",
        "predicted",
        "predicted",
        "predicted",
        "predicted",
        "predicted",
        "predicted",
        "predicted",
        "predicted",
        "predicted",
        "predicted",
        "predicted",
        "predicted",
        "predicted",
        "predicted",
        "predicted",
        "predicted",
        "predicted",
        "predicted",
        "predicted",
        "measured",
        "predicted",
        "measured",
        "predicted"
],
      "CsaImage.ICE_Dims": [
        "X_1_1_1_1_1_1_1_1_1_1_1_106",
        "X_1_1_1_1_1_1_42_1_1_2_1_106",
        "X_1_1_1_1_1_1_2_1_1_3_1_106",
        "X_1_1_1_1_1_1_43_1_1_4_1_106",
        "X_1_1_1_1_1_1_3_1_1_5_1_106",
        "X_1_1_1_1_1_1_44_1_1_6_1_106",
        "X_1_1_1_1_1_1_4_1_1_7_1_106",
        "X_1_1_1_1_1_1_45_1_1_8_1_106",
        "X_1_1_1_1_1_1_5_1_1_9_1_106",
        "X_1_1_1_1_1_1_46_1_1_10_1_106",
        "X_1_1_1_1_1_1_6_1_1_11_1_106",
        "X_1_1_1_1_1_1_47_1_1_12_1_106",
        "X_1_1_1_1_1_1_7_1_1_13_1_106",
        "X_1_1_1_1_1_1_48_1_1_14_1_106",
        "X_1_1_1_1_1_1_8_1_1_15_1_106",
        "X_1_1_1_1_1_1_49_1_1_16_1_106",
        "X_1_1_1_1_1_1_9_1_1_17_1_106",
        "X_1_1_1_1_1_1_50_1_1_18_1_106",
        "X_1_1_1_1_1_1_10_1_1_19_1_106",
        "X_1_1_1_1_1_1_51_1_1_20_1_106",
        "X_1_1_1_1_1_1_11_1_1_21_1_106",
        "X_1_1_1_1_1_1_52_1_1_22_1_106",
        "X_1_1_1_1_1_1_12_1_1_23_1_106",
        "X_1_1_1_1_1_1_53_1_1_24_1_106",
        "X_1_1_1_1_1_1_13_1_1_25_1_106",
        "X_1_1_1_1_1_1_54_1_1_26_1_106",
        "X_1_1_1_1_1_1_14_1_1_27_1_106",
        "X_1_1_1_1_1_1_55_1_1_28_1_106",
        "X_1_1_1_1_1_1_15_1_1_29_1_106",
        "X_1_1_1_1_1_1_56_1_1_30_1_106",
        "X_1_1_1_1_1_1_16_1_1_31_1_106",
        "X_1_1_1_1_1_1_57_1_1_32_1_106",
        "X_1_1_1_1_1_1_17_1_1_33_1_106",
        "X_1_1_1_1_1_1_58_1_1_34_1_106",
        "X_1_1_1_1_1_1_18_1_1_35_1_106",
        "X_1_1_1_1_1_1_59_1_1_36_1_106",
        "X_1_1_1_1_1_1_19_1_1_37_1_106",
        "X_1_1_1_1_1_1_60_1_1_38_1_106",
        "X_1_1_1_1_1_1_20_1_1_39_1_106",
        "X_1_1_1_1_1_1_61_1_1_40_1_106",
        "X_1_1_1_1_1_1_21_1_1_41_1_106",
        "X_1_1_1_1_1_1_62_1_1_42_1_106",
        "X_1_1_1_1_1_1_22_1_1_43_1_106",
        "X_1_1_1_1_1_1_63_1_1_44_1_106",
        "X_1_1_1_1_1_1_23_1_1_45_1_106",
        "X_1_1_1_1_1_1_64_1_1_46_1_106",
        "X_1_1_1_1_1_1_24_1_1_47_1_106",
        "X_1_1_1_1_1_1_65_1_1_48_1_106",
        "X_1_1_1_1_1_1_25_1_1_49_1_106",
        "X_1_1_1_1_1_1_66_1_1_50_1_106",
        "X_1_1_1_1_1_1_26_1_1_51_1_106",
        "X_1_1_1_1_1_1_67_1_1_52_1_106",
        "X_1_1_1_1_1_1_27_1_1_53_1_106",
        "X_1_1_1_1_1_1_68_1_1_54_1_106",
        "X_1_1_1_1_1_1_28_1_1_55_1_106",
        "X_1_1_1_1_1_1_69_1_1_56_1_106",
        "X_1_1_1_1_1_1_29_1_1_57_1_106",
        "X_1_1_1_1_1_1_70_1_1_58_1_106",
        "X_1_1_1_1_1_1_30_1_1_59_1_106",
        "X_1_1_1_1_1_1_71_1_1_60_1_106",
        "X_1_1_1_1_1_1_31_1_1_61_1_106",
        "X_1_1_1_1_1_1_72_1_1_62_1_106",
        "X_1_1_1_1_1_1_32_1_1_63_1_106",
        "X_1_1_1_1_1_1_73_1_1_64_1_106",
        "X_1_1_1_1_1_1_33_1_1_65_1_106",
        "X_1_1_1_1_1_1_74_1_1_66_1_106",
        "X_1_1_1_1_1_1_34_1_1_67_1_106",
        "X_1_1_1_1_1_1_75_1_1_68_1_106",
        "X_1_1_1_1_1_1_35_1_1_69_1_106",
        "X_1_1_1_1_1_1_76_1_1_70_1_106",
        "X_1_1_1_1_1_1_36_1_1_71_1_106",
        "X_1_1_1_1_1_1_77_1_1_72_1_106",
        "X_1_1_1_1_1_1_37_1_1_73_1_106",
        "X_1_1_1_1_1_1_78_1_1_74_1_106",
        "X_1_1_1_1_1_1_38_1_1_75_1_106",
        "X_1_1_1_1_1_1_79_1_1_76_1_106",
        "X_1_1_1_1_1_1_39_1_1_77_1_106",
        "X_1_1_1_1_1_1_80_1_1_78_1_106",
        "X_1_1_1_1_1_1_40_1_1_79_1_106",
        "X_1_1_1_1_1_1_81_1_1_80_1_106",
        "X_1_1_1_1_1_1_41_1_1_81_1_106"
],
      "CsaImage.ProtocolSliceNumber": [0, 1, 2, 3, 4, 5, 6, 7, 8, 9, 10, 11, 12, 13, 14, 15, 16, 17, 18, 19, 20, 21, 22, 23, 24, 25, 26, 27, 28, 29, 30, 31, 32, 33, 34, 35, 36, 37, 38, 39, 40, 41, 42, 43, 44, 45, 46, 47, 48, 49, 50, 51, 52, 53, 54, 55, 56, 57, 58, 59, 60, 61, 62, 63, 64, 65, 66, 67, 68, 69, 70, 71, 72, 73, 74, 75, 76, 77, 78, 79, 80],
      "CsaImage.RFSWDDataType": [
        "predicted",
        "predicted",
        "predicted",
        "predicted",
        "predicted",
        "predicted",
        "predicted",
        "predicted",
        "predicted",
        "predicted",
        "predicted",
        "predicted",
        "predicted",
        "predicted",
        "predicted",
        "predicted",
        "predicted",
        "predicted",
        "predicted",
        "predicted",
        "predicted",
        "predicted",
        "predicted",
        "measured",
        "predicted",
        "measured",
        "predicted",
        "predicted",
        "predicted",
        "predicted",
        "predicted",
        "predicted",
        "predicted",
        "predicted",
        "predicted",
        "predicted",
        "predicted",
        "predicted",
        "predicted",
        "predicted",
        "predicted",
        "predicted",
        "predicted",
        "predicted",
        "predicted",
        "predicted",
        "predicted",
        "predicted",
        "predicted",
        "predicted",
        "measured",
        "predicted",
        "measured",
        "predicted",
        "predicted",
        "predicted",
        "predicted",
        "predicted",
        "predicted",
        "predicted",
        "predicted",
        "predicted",
        "predicted",
        "predicted",
        "predicted",
        "predicted",
        "predicted",
        "predicted",
        "predicted",
        "predicted",
        "predicted",
        "predicted",
        "predicted",
        "predicted",
        "predicted",
        "predicted",
        "predicted",
        "measured",
        "predicted",
        "measured",
        "predicted"
],
      "CsaImage.SlicePosition_PCS": [
        [-118.32224137, -131.20274893, -87.21880911],
        [-118.43970269, -131.63693014, -85.57939337],
        [-118.55716413, -132.07111136, -83.93997381],
        [-118.67462558, -132.50529066, -82.30055807],
        [-118.79208696, -132.93947188, -80.66113852],
        [-118.9095484, -133.37365309, -79.02172278],
        [-119.02700979, -133.8078343, -77.38230322],
        [-119.1444712, -134.24201361, -75.74288748],
        [-119.2619326, -134.67619482, -74.10346792],
        [-119.37939401, -135.11037604, -72.46405218],
        [-119.49685542, -135.54455534, -70.82463263],
        [-119.61431684, -135.97873655, -69.18521689],
        [-119.73177823, -136.41291777, -67.54579924],
        [-119.84923965, -136.84709898, -65.90638159],
        [-119.96670106, -137.28127829, -64.26696394],
        [-120.08416247, -137.7154595, -62.62754629],
        [-120.20162386, -138.14964071, -60.98812864],
        [-120.3190853, -138.58382193, -59.348711],
        [-120.43654668, -139.01800123, -57.70929335],
        [-120.55400807, -139.45218245, -56.0698757],
        [-120.67146951, -139.88636366, -54.430459],
        [-120.78893095, -140.32054297, -52.79104136],
        [-120.90639228, -140.75472418, -51.15162371],
        [-121.02385372, -141.18890539, -49.51220606],
        [-121.14131516, -141.62308661, -47.87278841],
        [-121.25877661, -142.05726591, -46.23337076],
        [-121.37623793, -142.49144713, -44.59395311],
        [-121.49369925, -142.92562834, -42.95453547],
        [-121.6111607, -143.35980955, -41.31511806],
        [-121.72862214, -143.79398886, -39.67570053],
        [-121.84608358, -144.22817007, -38.036283],
        [-121.96354503, -144.66235129, -36.39686535],
        [-122.08100647, -145.09653059, -34.7574477],
        [-122.19846791, -145.5307118, -33.11803053],
        [-122.31592912, -145.96489302, -31.47861288],
        [-122.43339056, -146.39907423, -29.83919523],
        [-122.550852, -146.83325545, -28.19977759],
        [-122.66831344, -147.26743666, -26.56035994],
        [-122.78577489, -147.70161406, -24.92094229],
        [-122.90323633, -148.13579527, -23.28152464],
        [-123.02069777, -148.56997648, -21.64210699],
        [-123.13815898, -149.0041577, -20.00268934],
        [-123.25562042, -149.43833891, -18.3632717],
        [-123.37308186, -149.87252012, -16.72385405],
        [-123.49054331, -150.30670134, -15.0844364],
        [-123.60800451, -150.74087874, -13.44501875],
        [-123.72546619, -151.17505995, -11.8056011],
        [-123.8429274, -151.60924116, -10.16618536],
        [-123.96038908, -152.04342238, -8.52676771],
        [-124.07785028, -152.47760359, -6.88735006],
        [-124.19531196, -152.9117848, -5.24793051],
        [-124.31277317, -153.34596602, -3.60851477],
        [-124.43023437, -153.78014723, -1.96909521],
        [-124.54769605, -154.21432463, -0.32967947],
        [-124.66515726, -154.64850584, 1.30974008],
        [-124.78261894, -155.08268706, 2.94915583],
        [-124.90008015, -155.51686827, 4.58857538],
        [-125.01754183, -155.95104948, 6.22799112],
        [-125.13500303, -156.3852307, 7.86740686],
        [-125.25246424, -156.81941191, 9.50682642],
        [-125.36992592, -157.25358931, 11.14624216],
        [-125.48738712, -157.68777052, 12.78566172],
        [-125.6048488, -158.12195173, 14.42507746],
        [-125.72231001, -158.55613295, 16.06449701],
        [-125.83977169, -158.99031416, 17.70391275],
        [-125.95723289, -159.42449537, 19.34333231],
        [-126.0746941, -159.85867659, 20.98274805],
        [-126.19215578, -160.2928578, 22.62216761],
        [-126.30961698, -160.7270352, 24.26158335],
        [-126.42707866, -161.16121641, 25.9010029],
        [-126.54453987, -161.59539763, 27.54042246],
        [-126.66200155, -162.02957884, 29.17983438],
        [-126.77946276, -162.46376005, 30.81925394],
        [-126.89692396, -162.89794127, 32.45867349],
        [-127.01438564, -163.33212248, 34.09809305],
        [-127.13184685, -163.76629988, 35.73750498],
        [-127.24930853, -164.20048109, 37.37692453],
        [-127.36676973, -164.63466231, 39.01634409],
        [-127.48423094, -165.06884352, 40.65576364],
        [-127.60169214, -165.50302473, 42.29517557],
        [-127.7191543, -165.93720595, 43.93459513]
],
      "CsaImage.TimeAfterStart": [16.4, 18.515, 16.55, 18.665, 16.7, 18.8175, 16.8525, 18.9675, 17.0025, 19.12, 17.155, 19.27, 17.305, 19.42, 17.4575, 19.5725, 17.6075, 19.7225, 17.76, 19.875, 17.91, 20.025, 18.06, 20.1775, 18.2125, 20.3275, 18.3625, 16.4, 18.515, 16.55, 18.665, 16.7, 18.8175, 16.8525, 18.9675, 17.0025, 19.12, 17.155, 19.27, 17.305, 19.42, 17.4575, 19.5725, 17.6075, 19.7225, 17.76, 19.875, 17.91, 20.025, 18.06, 20.1775, 18.2125, 20.3275, 18.3625, 16.4, 18.515, 16.55, 18.665, 16.7, 18.8175, 16.8525, 18.9675, 17.0025, 19.12, 17.155, 19.27, 17.305, 19.42, 17.4575, 19.5725, 17.6075, 19.7225, 17.76, 19.875, 17.91, 20.025, 18.06, 20.1775, 18.2125, 20.3275, 18.3625],
      "ImagePositionPatient": [
        [-118.3222413666, -131.20274892961, -87.218809110029],
        [-118.43970269034, -131.63693014299, -85.579393369063],
        [-118.55716413328, -132.07111135637, -83.939973813399],
        [-118.67462557623, -132.5052906624, -82.300558072432],
        [-118.79208695957, -132.93947187578, -80.661138516768],
        [-118.90954840252, -133.37365308916, -79.021722775801],
        [-119.02700978586, -133.80783430254, -77.382303220137],
        [-119.14447119901, -134.24201360857, -75.74288747917],
        [-119.26193259725, -134.67619482194, -74.103467923506],
        [-119.3793940104, -135.11037603532, -72.464052182539],
        [-119.49685542168, -135.54455534135, -70.824632626875],
        [-119.61431683669, -135.97873655473, -69.185216885908],
        [-119.73177823493, -136.41291776811, -67.545799237593],
        [-119.84923964808, -136.84709898149, -65.906381589277],
        [-119.96670106122, -137.28127828752, -64.266963940962],
        [-120.08416247437, -137.7154595009, -62.627546292647],
        [-120.20162385771, -138.14964071428, -60.988128644331],
        [-120.31908530066, -138.58382192766, -59.348710996016],
        [-120.436546684, -139.01800123369, -57.7092933477],
        [-120.55400806734, -139.45218244707, -56.069875699385],
        [-120.67146951029, -139.88636366045, -54.430459004744],
        [-120.78893095324, -140.32054296648, -52.791041356428],
        [-120.90639227698, -140.75472417985, -51.151623708113],
        [-121.02385371992, -141.18890539323, -49.512206059797],
        [-121.14131516287, -141.62308660661, -47.872788411482],
        [-121.25877660582, -142.05726591264, -46.233370763167],
        [-121.37623792956, -142.49144712602, -44.593953114851],
        [-121.49369925329, -142.9256283394, -42.954535466536],
        [-121.61116069624, -143.35980955278, -41.315118056639],
        [-121.72862213919, -143.79398885881, -39.675700527533],
        [-121.84608358214, -144.22817007219, -38.036282998427],
        [-121.96354502508, -144.66235128557, -36.396865350111],
        [-122.08100646803, -145.0965305916, -34.757447701796],
        [-122.19846791098, -145.53071180498, -33.118030530317],
        [-122.31592911551, -145.96489301836, -31.478612882002],
        [-122.43339055845, -146.39907423173, -29.839195233687],
        [-122.5508520014, -146.83325544511, -28.199777585371],
        [-122.66831344435, -147.26743665849, -26.560359937056],
        [-122.7857748873, -147.70161405717, -24.92094228874],
        [-122.90323633024, -148.13579527055, -23.281524640425],
        [-123.02069777319, -148.56997648393, -21.642106992109],
        [-123.13815897772, -149.00415769731, -20.002689343794],
        [-123.25562042067, -149.43833891069, -18.363271695479],
        [-123.37308186361, -149.87252012407, -16.723854047163],
        [-123.49054330656, -150.30670133745, -15.084436398848],
        [-123.60800451109, -150.74087873613, -13.445018750532],
        [-123.72546619246, -151.17505994951, -11.805601102217],
        [-123.84292739699, -151.60924116289, -10.16618536125],
        [-123.96038907835, -152.04342237627, -8.5267677129347],
        [-124.07785028288, -152.47760358965, -6.8873500646193],
        [-124.19531196425, -152.91178480302, -5.2479305089552],
        [-124.31277316878, -153.3459660164, -3.6085147679884],
        [-124.4302343733, -153.78014722978, -1.9690952123243],
        [-124.54769605467, -154.21432462846, -0.3296794713575],
        [-124.6651572592, -154.64850584184, 1.3097400843065],
        [-124.78261894056, -155.08268705522, 2.9491558252733],
        [-124.90008014509, -155.5168682686, 4.5885753809374],
        [-125.01754182646, -155.95104948198, 6.2279911219042],
        [-125.13500303099, -156.38523069536, 7.867406862871],
        [-125.25246423552, -156.81941190874, 9.506826418535],
        [-125.36992591688, -157.25358930742, 11.146242159502],
        [-125.48738712141, -157.6877705208, 12.785661715166],
        [-125.60484880278, -158.12195173418, 14.425077456133],
        [-125.72231000731, -158.55613294756, 16.064497011797],
        [-125.83977168867, -158.99031416093, 17.703912752764],
        [-125.9572328932, -159.42449537431, 19.343332308428],
        [-126.07469409773, -159.85867658769, 20.982748049394],
        [-126.1921557791, -160.29285780107, 22.622167605058],
        [-126.30961698363, -160.72703519975, 24.261583346025],
        [-126.42707866499, -161.16121641313, 25.901002901689],
        [-126.54453986952, -161.59539762651, 27.540422457353],
        [-126.66200155089, -162.02957883989, 29.179834383623],
        [-126.77946275541, -162.46376005327, 30.819253939287],
        [-126.89692395994, -162.89794126665, 32.458673494951],
        [-127.01438564131, -163.33212248003, 34.098093050615],
        [-127.13184684584, -163.76629987871, 35.737504976885],
        [-127.2493085272, -164.20048109209, 37.376924532549],
        [-127.36676973173, -164.63466230547, 39.016344088213],
        [-127.48423093626, -165.06884351884, 40.655763643877],
        [-127.60169214079, -165.50302473222, 42.295175570146],
        [-127.71915429899, -165.9372059456, 43.93459512581]
],
      "InstanceCreationTime": ["123735.165000", "123735.252000", "123735.172000", "123735.258000", "123735.178000", "123735.264000", "123735.184000", "123735.270000", "123735.190000", "123735.276000", "123735.196000", "123735.281000", "123735.202000", "123735.287000", "123735.208000", "123735.293000", "123735.214000", "123735.299000", "123735.219000", "123735.632000", "123735.225000", "123735.639000", "123735.235000", "123735.645000", "123735.241000", "123735.650000", "123735.246000", "123735.168000", "123735.254000", "123735.174000", "123735.260000", "123735.180000", "123735.266000", "123735.186000", "123735.272000", "123735.192000", "123735.277000", "123735.198000", "123735.283000", "123735.204000", "123735.289000", "123735.210000", "123735.295000", "123735.216000", "123735.301000", "123735.221000", "123735.635000", "123735.227000", "123735.641000", "123735.237000", "123735.646000", "123735.242000", "123735.652000", "123735.248000", "123735.170000", "123735.256000", "123735.176000", "123735.262000", "123735.182000", "123735.268000", "123735.188000", "123735.274000", "123735.194000", "123735.279000", "123735.200000", "123735.285000", "123735.206000", "123735.291000", "123735.212000", "123735.297000", "123735.217000", "123735.303000", "123735.223000", "123735.637000", "123735.229000", "123735.643000", "123735.239000", "123735.648000", "123735.244000", "123735.654000", "123735.250000"],
      "InstanceNumber": [1, 2, 3, 4, 5, 6, 7, 8, 9, 10, 11, 12, 13, 14, 15, 16, 17, 18, 19, 20, 21, 22, 23, 24, 25, 26, 27, 28, 29, 30, 31, 32, 33, 34, 35, 36, 37, 38, 39, 40, 41, 42, 43, 44, 45, 46, 47, 48, 49, 50, 51, 52, 53, 54, 55, 56, 57, 58, 59, 60, 61, 62, 63, 64, 65, 66, 67, 68, 69, 70, 71, 72, 73, 74, 75, 76, 77, 78, 79, 80, 81],
      "LargestImagePixelValue": [30671, 36266, 29434, 37922, 52182, 44107, 32940, 33264, 30047, 34063, 38542, 40337, 30461, 51159, 37799, 34493, 35487, 50936, 65464, 51997, 46376, 45008, 46188, 40459, 65535, 65535, 65535, 65535, 65535, 65535, 65535, 65535, 65535, 65535, 65535, 65535, 65535, 65535, 58997, 52320, 46717, 43753, 41632, 43244, 48013, 49618, 49505, 48993, 44894, 49672, 45494, 50536, 51069, 57084, 60560, 57909, 55782, 55175, 50908, 57465, 52050, 53203, 64503, 55641, 60082, 65535, 60090, 53345, 58510, 53961, 65535, 65535, 62364, 50834, 62032, 65535, 62638, 56107, 46557, 23614, 19656],
      "SliceLocation": [-42.425909825446, -40.725911454755, -39.025909397072, -37.325911505282, -35.625909451718, -33.925911072789, -32.225909019225, -30.525911129494, -28.8259090749, -27.125910698031, -25.425909129674, -23.725910752676, -22.025910537459, -20.325910321213, -18.625910592105, -16.925910375859, -15.225910161672, -13.525909943366, -11.825910216317, -10.12591000213, -8.4259107035129, -6.7259109723451, -5.0259107622765, -3.3259105439711, -1.6259103256657, 0.07408940550199, 1.7740896155706, 3.4740898256392, 5.1740898140225, 6.8740894302292, 8.5740895335735, 10.274089751879, 11.974089483047, 13.674089241508, 15.37408944334, 17.074089661645, 18.77408987995, 20.474090098256, 22.174089342286, 23.874089560591, 25.574089778897, 27.274089980728, 28.974090199034, 30.674090417339, 32.374090635645, 34.074089863201, 35.77409009798, 37.474088460435, 39.174088695214, 40.874088897046, 42.574090971202, 44.274089333657, 45.974091374865, 47.674088795992, 49.374090837201, 51.074089232603, 52.774091273812, 54.474089669214, 56.174088031668, 57.874090072877, 59.574087494004, 61.274089535213, 62.974087930615, 64.674089971824, 66.374088367225, 68.074090408434, 69.774088770889, 71.474090845045, 73.174088233225, 74.874090307381, 76.574092348589, 78.274087065237, 79.974089106446, 81.674091147655, 83.374093221811, 85.074086931237, 86.774089005392, 88.474091046601, 90.17409308781, 91.874087771511, 93.574089878614],
