{
  "AcquisitionMatrixPE": 82,
  "AcquisitionNumber": 1,
  "AcquisitionTime": "16:46:6.792500",
  "BandwidthPerPixelPhaseEncode": 24.888,
  "BaseResolution": 82,
  "BodyPartExamined": "BRAIN",
  "ConsistencyInfo": "N4_VE11E_LATEST_20181129",
  "ConversionSoftware": "dcm2niix",
  "ConversionSoftwareVersion": "v1.0.20201102",
  "DerivedVendorReportedEchoSpacing": 0.00049,
  "DeviceSerialNumber": "66112",
  "DwellTime": 2e-06,
  "EchoTime": 0.0272,
  "EchoTrainLength": 82,
  "EffectiveEchoSpacing": 0.00049,
  "FlipAngle": 44,
  "ImageComments": "Unaliased MB8/PE3",
  "ImageOrientationPatientDICOM": [0.999941, -0.0018324, -0.0106769, 0.00157074, 0.999699, -0.0244644],
  "ImageType": [
    "ORIGINAL",
    "PRIMARY",
    "M",
    "MB",
    "ND",
    "NORM",
    "MOSAIC"
],
  "ImagingFrequency": 123.252,
  "InPlanePhaseEncodingDirectionDICOM": "COL",
  "InstitutionAddress": "Maynard 3,Hanover,NH,US,03755",
  "InstitutionName": "Dartmouth College - PBS",
  "InstitutionalDepartmentName": "Department",
  "MRAcquisitionType": "2D",
  "MagneticFieldStrength": 3,
  "Manufacturer": "Siemens",
  "ManufacturersModelName": "Prisma",
  "Modality": "MR",
  "MultibandAccelerationFactor": 8,
  "PartialFourier": 1,
  "PatientPosition": "HFS",
  "PercentPhaseFOV": 100,
  "PercentSampling": 100,
  "PhaseEncodingDirection": "j-",
  "PhaseEncodingSteps": 82,
  "PhaseResolution": 1,
  "PixelBandwidth": 3050,
  "ProcedureStepDescription": "Wager_Wager^1076_spacetop",
  "ProtocolName": "func_run-01_task-alignvideo_acq-ap-mb8",
  "PulseSequenceDetails": "%CustomerSeq%\\cmrr_mbep2d_bold",
  "ReceiveCoilActiveElements": "HEA;HEP",
  "ReceiveCoilName": "Head_32",
  "ReconMatrixPE": 82,
  "RepetitionTime": 0.46,
  "SAR": 0.0755451,
  "ScanOptions": "FS",
  "ScanningSequence": "EP",
  "SequenceName": "epfid2d1_82",
  "SequenceVariant": "SK\\SS",
  "SeriesDescription": "func_run-01_task-alignvideo_acq-ap-mb8",
  "SeriesNumber": 28,
  "ShimSetting": [4149, -7735, -7305, 563, -45, -126, 22, 69],
  "SliceThickness": 2.7,
  "SliceTiming": [0, 0.2525, 0.0625, 0.315, 0.1275, 0.3775, 0.19, 0, 0.2525, 0.0625, 0.315, 0.1275, 0.3775, 0.19, 0, 0.2525, 0.0625, 0.315, 0.1275, 0.3775, 0.19, 0, 0.2525, 0.0625, 0.315, 0.1275, 0.3775, 0.19, 0, 0.2525, 0.0625, 0.315, 0.1275, 0.3775, 0.19, 0, 0.2525, 0.0625, 0.315, 0.1275, 0.3775, 0.19, 0, 0.2525, 0.0625, 0.315, 0.1275, 0.3775, 0.19, 0, 0.2525, 0.0625, 0.315, 0.1275, 0.3775, 0.19],
  "SoftwareVersions": "syngo MR E11",
  "SpacingBetweenSlices": 2.7,
  "StationName": "AWP66112",
  "TaskName": "alignvideo",
  "TotalReadoutTime": 0.03969,
  "TxRefAmp": 231.748,
  "WipMemBlock": "c81c8330-8b11-4b2c-b681-95c7f482e06d||Sequence: R016 ve11e/master r/434b28f1; Aug  7 2019 18:53:46 by eja",
  "dcmmeta_affine": [
    [-2.682769536972046, 0.004214172717183828, -0.0289401113986969, 113.85118865966797],
    [0.004916197154670954, 2.6821205615997314, -0.06600476801395416, -89.50692749023438],
    [-0.028645450249314308, 0.06563624739646912, 2.699037790298462, -81.82605743408203],
    [0.0, 0.0, 0.0, 1.0]
],
  "dcmmeta_reorient_transform": [
    [0.0, -1.0, 0.0, 81.0],
    [1.0, 0.0, 0.0, 0.0],
    [0.0, 0.0, 1.0, 0.0],
    [0.0, 0.0, 0.0, 1.0]
],
  "dcmmeta_shape": [82, 82, 56, 839],
  "dcmmeta_slice_dim": 2,
  "dcmmeta_version": 0.6,
  "global": {
    "const": {
      "AccessionNumber": "A003999",
      "AcquisitionMatrix": [82, 0, 0, 82],
      "AngioFlag": "N",
      "BitsAllocated": 16,
      "BitsStored": 16,
      "BodyPartExamined": "BRAIN",
      "Columns": 656,
      "EchoNumbers": 1,
      "EchoTime": 27.2,
      "EchoTrainLength": 82,
      "FlipAngle": 44.0,
      "HighBit": 15,
      "ImageOrientationPatient": [0.9999413209077, -0.0018324007826, -0.0106769400459, 0.00157073713408, 0.99969946736425, -0.0244644177633],
      "ImagePositionPatient": [-885.35684335108, -896.1025031052, -49.450673055135],
      "ImageType": [
        "ORIGINAL",
        "PRIMARY",
        "M",
        "MB",
        "ND",
        "NORM",
        "MOSAIC"
],
      "ImagedNucleus": "1H",
      "ImagingFrequency": 123.25224,
      "InPlanePhaseEncodingDirection": "COL",
      "MRAcquisitionType": "2D",
      "MagneticFieldStrength": 3.0,
      "Manufacturer": "SIEMENS",
      "ManufacturerModelName": "Prisma",
      "Modality": "MR",
      "NumberOfAverages": 1.0,
      "NumberOfPhaseEncodingSteps": 82,
      "PercentPhaseFieldOfView": 100.0,
      "PercentSampling": 100.0,
      "PerformedProcedureStepStartTime": "151805.627000",
      "PhotometricInterpretation": "MONOCHROME2",
      "PixelBandwidth": 3050.0,
      "PixelRepresentation": 0,
      "PixelSpacing": [2.6829268932343, 2.6829268932343],
      "ProtocolName": "func_run-01_task-alignvideo_acq-ap-mb8",
      "RepetitionTime": 460.0,
      "Rows": 656,
      "SAR": 0.07554509517997,
      "SamplesPerPixel": 1,
      "ScanOptions": "FS",
      "ScanningSequence": "EP",
      "SequenceName": "epfid2d1_82",
      "SequenceVariant": [
        "SK",
        "SS"
],
      "SeriesDescription": "func_run-01_task-alignvideo_acq-ap-mb8",
      "SeriesNumber": 28,
      "SeriesTime": "164622.547000",
      "SliceLocation": -80.829114708459,
      "SliceThickness": 2.7000000476837,
      "SmallestImagePixelValue": 0,
      "SoftwareVersions": "syngo MR E11",
      "SpacingBetweenSlices": 2.6999999172174,
      "SpecificCharacterSet": "ISO_IR 100",
      "StudyID": "2",
      "StudyTime": "151805.578000",
      "TransmitCoilName": "Body",
      "VariableFlipAngleFlag": "N",
      "WindowCenterWidthExplanation": "Algo1"
    },
    "slices": {}
  },
  "time": {
    "samples": {
      "AcquisitionNumber": [1, 2, 3, 4, 5, 6, 7, 8, 9, 10, 11, 12, 13, 14, 15, 16, 17, 18, 19, 20, 21, 22, 23, 24, 25, 26, 27, 28, 29, 30, 31, 32, 33, 34, 35, 36, 37, 38, 39, 40, 41, 42, 43, 44, 45, 46, 47, 48, 49, 50, 51, 52, 53, 54, 55, 56, 57, 58, 59, 60, 61, 62, 63, 64, 65, 66, 67, 68, 69, 70, 71, 72, 73, 74, 75, 76, 77, 78, 79, 80, 81, 82, 83, 84, 85, 86, 87, 88, 89, 90, 91, 92, 93, 94, 95, 96, 97, 98, 99, 100, 101, 102, 103, 104, 105, 106, 107, 108, 109, 110, 111, 112, 113, 114, 115, 116, 117, 118, 119, 120, 121, 122, 123, 124, 125, 126, 127, 128, 129, 130, 131, 132, 133, 134, 135, 136, 137, 138, 139, 140, 141, 142, 143, 144, 145, 146, 147, 148, 149, 150, 151, 152, 153, 154, 155, 156, 157, 158, 159, 160, 161, 162, 163, 164, 165, 166, 167, 168, 169, 170, 171, 172, 173, 174, 175, 176, 177, 178, 179, 180, 181, 182, 183, 184, 185, 186, 187, 188, 189, 190, 191, 192, 193, 194, 195, 196, 197, 198, 199, 200, 201, 202, 203, 204, 205, 206, 207, 208, 209, 210, 211, 212, 213, 214, 215, 216, 217, 218, 219, 220, 221, 222, 223, 224, 225, 226, 227, 228, 229, 230, 231, 232, 233, 234, 235, 236, 237, 238, 239, 240, 241, 242, 243, 244, 245, 246, 247, 248, 249, 250, 251, 252, 253, 254, 255, 256, 257, 258, 259, 260, 261, 262, 263, 264, 265, 266, 267, 268, 269, 270, 271, 272, 273, 274, 275, 276, 277, 278, 279, 280, 281, 282, 283, 284, 285, 286, 287, 288, 289, 290, 291, 292, 293, 294, 295, 296, 297, 298, 299, 300, 301, 302, 303, 304, 305, 306, 307, 308, 309, 310, 311, 312, 313, 314, 315, 316, 317, 318, 319, 320, 321, 322, 323, 324, 325, 326, 327, 328, 329, 330, 331, 332, 333, 334, 335, 336, 337, 338, 339, 340, 341, 342, 343, 344, 345, 346, 347, 348, 349, 350, 351, 352, 353, 354, 355, 356, 357, 358, 359, 360, 361, 362, 363, 364, 365, 366, 367, 368, 369, 370, 371, 372, 373, 374, 375, 376, 377, 378, 379, 380, 381, 382, 383, 384, 385, 386, 387, 388, 389, 390, 391, 392, 393, 394, 395, 396, 397, 398, 399, 400, 401, 402, 403, 404, 405, 406, 407, 408, 409, 410, 411, 412, 413, 414, 415, 416, 417, 418, 419, 420, 421, 422, 423, 424, 425, 426, 427, 428, 429, 430, 431, 432, 433, 434, 435, 436, 437, 438, 439, 440, 441, 442, 443, 444, 445, 446, 447, 448, 449, 450, 451, 452, 453, 454, 455, 456, 457, 458, 459, 460, 461, 462, 463, 464, 465, 466, 467, 468, 469, 470, 471, 472, 473, 474, 475, 476, 477, 478, 479, 480, 481, 482, 483, 484, 485, 486, 487, 488, 489, 490, 491, 492, 493, 494, 495, 496, 497, 498, 499, 500, 501, 502, 503, 504, 505, 506, 507, 508, 509, 510, 511, 512, 513, 514, 515, 516, 517, 518, 519, 520, 521, 522, 523, 524, 525, 526, 527, 528, 529, 530, 531, 532, 533, 534, 535, 536, 537, 538, 539, 540, 541, 542, 543, 544, 545, 546, 547, 548, 549, 550, 551, 552, 553, 554, 555, 556, 557, 558, 559, 560, 561, 562, 563, 564, 565, 566, 567, 568, 569, 570, 571, 572, 573, 574, 575, 576, 577, 578, 579, 580, 581, 582, 583, 584, 585, 586, 587, 588, 589, 590, 591, 592, 593, 594, 595, 596, 597, 598, 599, 600, 601, 602, 603, 604, 605, 606, 607, 608, 609, 610, 611, 612, 613, 614, 615, 616, 617, 618, 619, 620, 621, 622, 623, 624, 625, 626, 627, 628, 629, 630, 631, 632, 633, 634, 635, 636, 637, 638, 639, 640, 641, 642, 643, 644, 645, 646, 647, 648, 649, 650, 651, 652, 653, 654, 655, 656, 657, 658, 659, 660, 661, 662, 663, 664, 665, 666, 667, 668, 669, 670, 671, 672, 673, 674, 675, 676, 677, 678, 679, 680, 681, 682, 683, 684, 685, 686, 687, 688, 689, 690, 691, 692, 693, 694, 695, 696, 697, 698, 699, 700, 701, 702, 703, 704, 705, 706, 707, 708, 709, 710, 711, 712, 713, 714, 715, 716, 717, 718, 719, 720, 721, 722, 723, 724, 725, 726, 727, 728, 729, 730, 731, 732, 733, 734, 735, 736, 737, 738, 739, 740, 741, 742, 743, 744, 745, 746, 747, 748, 749, 750, 751, 752, 753, 754, 755, 756, 757, 758, 759, 760, 761, 762, 763, 764, 765, 766, 767, 768, 769, 770, 771, 772, 773, 774, 775, 776, 777, 778, 779, 780, 781, 782, 783, 784, 785, 786, 787, 788, 789, 790, 791, 792, 793, 794, 795, 796, 797, 798, 799, 800, 801, 802, 803, 804, 805, 806, 807, 808, 809, 810, 811, 812, 813, 814, 815, 816, 817, 818, 819, 820, 821, 822, 823, 824, 825, 826, 827, 828, 829, 830, 831, 832, 833, 834, 835, 836, 837, 838, 839],
      "AcquisitionTime": ["164606.792500", "164607.252500", "164607.712500", "164608.172500", "164608.632500", "164609.092500", "164609.552500", "164610.012500", "164610.472500", "164610.932500", "164611.392500", "164611.852500", "164612.312500", "164612.772500", "164613.232500", "164613.692500", "164614.152500", "164614.612500", "164615.072500", "164615.532500", "164615.992500", "164616.452500", "164616.912500", "164617.372500", "164617.832500", "164618.292500", "164618.752500", "164619.212500", "164619.672500", "164620.132500", "164620.592500", "164621.052500", "164621.512500", "164621.972500", "164622.432500", "164622.892500", "164623.352500", "164623.812500", "164624.272500", "164624.732500", "164625.192500", "164625.652500", "164626.112500", "164626.572500", "164627.032500", "164627.492500", "164627.952500", "164628.412500", "164628.872500", "164629.332500", "164629.792500", "164630.252500", "164630.712500", "164631.172500", "164631.632500", "164632.092500", "164632.552500", "164633.012500", "164633.472500", "164633.932500", "164634.392500", "164634.852500", "164635.312500", "164635.772500", "164636.232500", "164636.692500", "164637.152500", "164637.612500", "164638.072500", "164638.532500", "164638.992500", "164639.452500", "164639.912500", "164640.372500", "164640.832500", "164641.292500", "164641.752500", "164642.212500", "164642.672500", "164643.132500", "164643.592500", "164644.052500", "164644.512500", "164644.972500", "164645.432500", "164645.892500", "164646.352500", "164646.812500", "164647.272500", "164647.732500", "164648.192500", "164648.652500", "164649.112500", "164649.572500", "164650.032500", "164650.492500", "164650.952500", "164651.412500", "164651.872500", "164652.332500", "164652.792500", "164653.252500", "164653.712500", "164654.172500", "164654.632500", "164655.092500", "164655.552500", "164656.012500", "164656.472500", "164656.932500", "164657.392500", "164657.852500", "164658.312500", "164658.772500", "164659.232500", "164659.692500", "164700.152500", "164700.612500", "164701.072500", "164701.532500", "164701.992500", "164702.452500", "164702.912500", "164703.372500", "164703.832500", "164704.292500", "164704.752500", "164705.212500", "164705.672500", "164706.132500", "164706.592500", "164707.052500", "164707.512500", "164707.972500", "164708.432500", "164708.892500", "164709.352500", "164709.812500", "164710.272500", "164710.732500", "164711.192500", "164711.652500", "164712.112500", "164712.572500", "164713.032500", "164713.492500", "164713.952500", "164714.412500", "164714.872500", "164715.332500", "164715.792500", "164716.252500", "164716.712500", "164717.172500", "164717.632500", "164718.092500", "164718.552500", "164719.012500", "164719.472500", "164719.932500", "164720.392500", "164720.852500", "164721.312500", "164721.772500", "164722.232500", "164722.692500", "164723.152500", "164723.612500", "164724.072500", "164724.532500", "164724.992500", "164725.452500", "164725.912500", "164726.372500", "164726.832500", "164727.292500", "164727.752500", "164728.212500", "164728.672500", "164729.132500", "164729.592500", "164730.052500", "164730.512500", "164730.972500", "164731.432500", "164731.892500", "164732.352500", "164732.812500", "164733.272500", "164733.732500", "164734.192500", "164734.652500", "164735.112500", "164735.572500", "164736.032500", "164736.492500", "164736.952500", "164737.412500", "164737.872500", "164738.332500", "164738.792500", "164739.252500", "164739.712500", "164740.172500", "164740.632500", "164741.092500", "164741.552500", "164742.012500", "164742.472500", "164742.932500", "164743.392500", "164743.852500", "164744.312500", "164744.772500", "164745.232500", "164745.692500", "164746.152500", "164746.612500", "164747.072500", "164747.532500", "164747.992500", "164748.452500", "164748.912500", "164749.372500", "164749.832500", "164750.292500", "164750.752500", "164751.212500", "164751.672500", "164752.132500", "164752.592500", "164753.052500", "164753.512500", "164753.972500", "164754.432500", "164754.892500", "164755.352500", "164755.812500", "164756.272500", "164756.732500", "164757.192500", "164757.652500", "164758.112500", "164758.572500", "164759.032500", "164759.492500", "164759.952500", "164800.412500", "164800.872500", "164801.332500", "164801.792500", "164802.252500", "164802.712500", "164803.172500", "164803.632500", "164804.092500", "164804.552500", "164805.012500", "164805.472500", "164805.932500", "164806.392500", "164806.852500", "164807.312500", "164807.772500", "164808.232500", "164808.692500", "164809.152500", "164809.612500", "164810.072500", "164810.532500", "164810.992500", "164811.452500", "164811.912500", "164812.372500", "164812.832500", "164813.292500", "164813.752500", "164814.212500", "164814.672500", "164815.132500", "164815.592500", "164816.052500", "164816.512500", "164816.972500", "164817.432500", "164817.892500", "164818.352500", "164818.812500", "164819.272500", "164819.732500", "164820.192500", "164820.652500", "164821.112500", "164821.572500", "164822.032500", "164822.492500", "164822.952500", "164823.412500", "164823.872500", "164824.332500", "164824.792500", "164825.252500", "164825.712500", "164826.172500", "164826.632500", "164827.092500", "164827.552500", "164828.012500", "164828.472500", "164828.932500", "164829.392500", "164829.852500", "164830.312500", "164830.772500", "164831.232500", "164831.692500", "164832.152500", "164832.612500", "164833.072500", "164833.532500", "164833.992500", "164834.452500", "164834.912500", "164835.372500", "164835.832500", "164836.292500", "164836.752500", "164837.212500", "164837.672500", "164838.132500", "164838.592500", "164839.052500", "164839.512500", "164839.972500", "164840.432500", "164840.892500", "164841.352500", "164841.812500", "164842.272500", "164842.732500", "164843.192500", "164843.652500", "164844.112500", "164844.572500", "164845.032500", "164845.492500", "164845.952500", "164846.412500", "164846.872500", "164847.332500", "164847.792500", "164848.252500", "164848.712500", "164849.172500", "164849.632500", "164850.092500", "164850.552500", "164851.012500", "164851.472500", "164851.932500", "164852.392500", "164852.852500", "164853.312500", "164853.772500", "164854.232500", "164854.692500", "164855.152500", "164855.612500", "164856.072500", "164856.532500", "164856.992500", "164857.452500", "164857.912500", "164858.372500", "164858.832500", "164859.292500", "164859.752500", "164900.212500", "164900.672500", "164901.132500", "164901.592500", "164902.052500", "164902.512500", "164902.972500", "164903.432500", "164903.892500", "164904.352500", "164904.812500", "164905.272500", "164905.732500", "164906.192500", "164906.652500", "164907.112500", "164907.572500", "164908.032500", "164908.492500", "164908.952500", "164909.412500", "164909.872500", "164910.332500", "164910.792500", "164911.252500", "164911.712500", "164912.172500", "164912.632500", "164913.092500", "164913.552500", "164914.012500", "164914.472500", "164914.932500", "164915.392500", "164915.852500", "164916.312500", "164916.772500", "164917.232500", "164917.692500", "164918.152500", "164918.612500", "164919.072500", "164919.532500", "164919.992500", "164920.452500", "164920.912500", "164921.372500", "164921.832500", "164922.292500", "164922.752500", "164923.212500", "164923.672500", "164924.132500", "164924.592500", "164925.052500", "164925.512500", "164925.972500", "164926.432500", "164926.892500", "164927.352500", "164927.812500", "164928.272500", "164928.732500", "164929.192500", "164929.652500", "164930.112500", "164930.572500", "164931.032500", "164931.492500", "164931.952500", "164932.412500", "164932.872500", "164933.332500", "164933.792500", "164934.252500", "164934.712500", "164935.172500", "164935.632500", "164936.092500", "164936.552500", "164937.012500", "164937.472500", "164937.932500", "164938.392500", "164938.852500", "164939.312500", "164939.772500", "164940.232500", "164940.692500", "164941.152500", "164941.612500", "164942.072500", "164942.532500", "164942.992500", "164943.452500", "164943.912500", "164944.372500", "164944.832500", "164945.292500", "164945.752500", "164946.212500", "164946.672500", "164947.132500", "164947.592500", "164948.052500", "164948.512500", "164948.972500", "164949.432500", "164949.892500", "164950.352500", "164950.812500", "164951.272500", "164951.732500", "164952.192500", "164952.652500", "164953.112500", "164953.572500", "164954.032500", "164954.492500", "164954.952500", "164955.412500", "164955.872500", "164956.332500", "164956.792500", "164957.252500", "164957.712500", "164958.172500", "164958.632500", "164959.092500", "164959.552500", "165000.012500", "165000.472500", "165000.932500", "165001.392500", "165001.852500", "165002.312500", "165002.772500", "165003.232500", "165003.692500", "165004.152500", "165004.612500", "165005.072500", "165005.532500", "165005.992500", "165006.452500", "165006.912500", "165007.372500", "165007.832500", "165008.292500", "165008.752500", "165009.212500", "165009.672500", "165010.132500", "165010.592500", "165011.052500", "165011.512500", "165011.972500", "165012.432500", "165012.892500", "165013.352500", "165013.812500", "165014.272500", "165014.732500", "165015.192500", "165015.652500", "165016.112500", "165016.572500", "165017.032500", "165017.492500", "165017.952500", "165018.412500", "165018.872500", "165019.332500", "165019.792500", "165020.252500", "165020.712500", "165021.172500", "165021.632500", "165022.092500", "165022.552500", "165023.012500", "165023.472500", "165023.932500", "165024.392500", "165024.852500", "165025.312500", "165025.772500", "165026.232500", "165026.692500", "165027.152500", "165027.612500", "165028.072500", "165028.532500", "165028.992500", "165029.452500", "165029.912500", "165030.372500", "165030.832500", "165031.292500", "165031.752500", "165032.212500", "165032.672500", "165033.132500", "165033.592500", "165034.052500", "165034.512500", "165034.972500", "165035.432500", "165035.892500", "165036.352500", "165036.812500", "165037.272500", "165037.732500", "165038.192500", "165038.652500", "165039.112500", "165039.572500", "165040.032500", "165040.492500", "165040.952500", "165041.412500", "165041.872500", "165042.332500", "165042.792500", "165043.252500", "165043.712500", "165044.172500", "165044.632500", "165045.092500", "165045.552500", "165046.012500", "165046.472500", "165046.932500", "165047.392500", "165047.852500", "165048.312500", "165048.772500", "165049.232500", "165049.692500", "165050.152500", "165050.612500", "165051.072500", "165051.532500", "165051.992500", "165052.452500", "165052.912500", "165053.372500", "165053.832500", "165054.292500", "165054.752500", "165055.212500", "165055.672500", "165056.132500", "165056.592500", "165057.052500", "165057.512500", "165057.972500", "165058.432500", "165058.892500", "165059.352500", "165059.812500", "165100.272500", "165100.732500", "165101.192500", "165101.652500", "165102.112500", "165102.572500", "165103.032500", "165103.492500", "165103.952500", "165104.412500", "165104.872500", "165105.332500", "165105.792500", "165106.252500", "165106.712500", "165107.172500", "165107.632500", "165108.092500", "165108.552500", "165109.012500", "165109.472500", "165109.932500", "165110.392500", "165110.852500", "165111.312500", "165111.772500", "165112.232500", "165112.692500", "165113.152500", "165113.612500", "165114.072500", "165114.532500", "165114.992500", "165115.452500", "165115.912500", "165116.372500", "165116.832500", "165117.292500", "165117.752500", "165118.212500", "165118.672500", "165119.132500", "165119.592500", "165120.052500", "165120.512500", "165120.972500", "165121.432500", "165121.892500", "165122.352500", "165122.812500", "165123.272500", "165123.732500", "165124.192500", "165124.652500", "165125.112500", "165125.572500", "165126.032500", "165126.492500", "165126.952500", "165127.412500", "165127.872500", "165128.332500", "165128.792500", "165129.252500", "165129.712500", "165130.172500", "165130.632500", "165131.092500", "165131.552500", "165132.012500", "165132.472500", "165132.932500", "165133.392500", "165133.852500", "165134.312500", "165134.772500", "165135.232500", "165135.692500", "165136.152500", "165136.612500", "165137.072500", "165137.532500", "165137.992500", "165138.452500", "165138.912500", "165139.372500", "165139.832500", "165140.292500", "165140.752500", "165141.212500", "165141.672500", "165142.132500", "165142.592500", "165143.052500", "165143.512500", "165143.972500", "165144.432500", "165144.892500", "165145.352500", "165145.812500", "165146.272500", "165146.732500", "165147.192500", "165147.652500", "165148.112500", "165148.572500", "165149.032500", "165149.492500", "165149.952500", "165150.412500", "165150.872500", "165151.332500", "165151.792500", "165152.252500", "165152.712500", "165153.172500", "165153.632500", "165154.092500", "165154.552500", "165155.012500", "165155.472500", "165155.932500", "165156.392500", "165156.852500", "165157.312500", "165157.772500", "165158.232500", "165158.692500", "165159.152500", "165159.612500", "165200.072500", "165200.532500", "165200.992500", "165201.452500", "165201.912500", "165202.372500", "165202.832500", "165203.292500", "165203.752500", "165204.212500", "165204.672500", "165205.132500", "165205.592500", "165206.052500", "165206.512500", "165206.972500", "165207.432500", "165207.892500", "165208.352500", "165208.812500", "165209.272500", "165209.732500", "165210.192500", "165210.652500", "165211.112500", "165211.572500", "165212.032500", "165212.492500", "165212.952500", "165213.412500", "165213.872500", "165214.332500", "165214.792500", "165215.252500", "165215.712500", "165216.172500", "165216.632500", "165217.092500", "165217.552500", "165218.012500", "165218.472500", "165218.932500", "165219.392500", "165219.852500", "165220.312500", "165220.772500", "165221.232500", "165221.692500", "165222.152500", "165222.612500", "165223.072500", "165223.532500", "165223.992500", "165224.452500", "165224.912500", "165225.372500", "165225.832500", "165226.292500", "165226.752500", "165227.212500", "165227.672500", "165228.132500", "165228.592500", "165229.052500", "165229.512500", "165229.972500", "165230.432500", "165230.892500", "165231.352500", "165231.812500", "165232.272500"],
