{
  "AcquisitionMatrixPE": 82,
  "AcquisitionNumber": 1,
  "AcquisitionTime": "17:16:35.897500",
  "BandwidthPerPixelPhaseEncode": 24.888,
  "BaseResolution": 82,
  "BodyPartExamined": "BRAIN",
  "ConsistencyInfo": "N4_VE11E_LATEST_20181129",
  "ConversionSoftware": "dcm2niix",
  "ConversionSoftwareVersion": "v1.0.20201102",
  "DerivedVendorReportedEchoSpacing": 0.00049,
  "DeviceSerialNumber": "66112",
  "DwellTime": 2e-06,
  "EchoTime": 0.0272,
  "EchoTrainLength": 82,
  "EffectiveEchoSpacing": 0.00049,
  "FlipAngle": 44,
  "ImageComments": "Unaliased MB8/PE3",
  "ImageOrientationPatientDICOM": [0.999941, -0.0018324, -0.0106769, 0.00157074, 0.999699, -0.0244644],
  "ImageType": [
    "ORIGINAL",
    "PRIMARY",
    "M",
    "MB",
    "ND",
    "NORM",
    "MOSAIC"
],
  "ImagingFrequency": 123.252,
  "InPlanePhaseEncodingDirectionDICOM": "COL",
  "InstitutionAddress": "Maynard 3,Hanover,NH,US,03755",
  "InstitutionName": "Dartmouth College - PBS",
  "InstitutionalDepartmentName": "Department",
  "MRAcquisitionType": "2D",
  "MagneticFieldStrength": 3,
  "Manufacturer": "Siemens",
  "ManufacturersModelName": "Prisma",
  "Modality": "MR",
  "MultibandAccelerationFactor": 8,
  "PartialFourier": 1,
  "PatientPosition": "HFS",
  "PercentPhaseFOV": 100,
  "PercentSampling": 100,
  "PhaseEncodingDirection": "j-",
  "PhaseEncodingSteps": 82,
  "PhaseResolution": 1,
  "PixelBandwidth": 3050,
  "ProcedureStepDescription": "Wager_Wager^1076_spacetop",
  "ProtocolName": "func_run-04_task-alignvideo_acq-ap-mb8",
  "PulseSequenceDetails": "%CustomerSeq%\\cmrr_mbep2d_bold",
  "ReceiveCoilActiveElements": "HEA;HEP",
  "ReceiveCoilName": "Head_32",
  "ReconMatrixPE": 82,
  "RepetitionTime": 0.46,
  "SAR": 0.0755851,
  "ScanOptions": "FS",
  "ScanningSequence": "EP",
  "SequenceName": "epfid2d1_82",
  "SequenceVariant": "SK\\SS",
  "SeriesDescription": "func_run-04_task-alignvideo_acq-ap-mb8",
  "SeriesNumber": 34,
  "ShimSetting": [4149, -7735, -7305, 563, -45, -126, 22, 69],
  "SliceThickness": 2.7,
  "SliceTiming": [0, 0.2525, 0.065, 0.315, 0.1275, 0.3775, 0.19, 0, 0.2525, 0.065, 0.315, 0.1275, 0.3775, 0.19, 0, 0.2525, 0.065, 0.315, 0.1275, 0.3775, 0.19, 0, 0.2525, 0.065, 0.315, 0.1275, 0.3775, 0.19, 0, 0.2525, 0.065, 0.315, 0.1275, 0.3775, 0.19, 0, 0.2525, 0.065, 0.315, 0.1275, 0.3775, 0.19, 0, 0.2525, 0.065, 0.315, 0.1275, 0.3775, 0.19, 0, 0.2525, 0.065, 0.315, 0.1275, 0.3775, 0.19],
  "SoftwareVersions": "syngo MR E11",
  "SpacingBetweenSlices": 2.7,
  "StationName": "AWP66112",
  "TaskName": "alignvideo",
  "TotalReadoutTime": 0.03969,
  "TxRefAmp": 231.748,
  "WipMemBlock": "f7bc8fb6-847c-41a1-8c0d-edde1879f5be||Sequence: R016 ve11e/master r/434b28f1; Aug  7 2019 18:53:46 by eja",
  "dcmmeta_affine": [
    [-2.682769536972046, 0.004214172717183828, -0.0289401113986969, 113.85118865966797],
    [0.004916197154670954, 2.6821205615997314, -0.06600476801395416, -89.50692749023438],
    [-0.028645450249314308, 0.06563624739646912, 2.699037790298462, -81.82605743408203],
    [0.0, 0.0, 0.0, 1.0]
],
  "dcmmeta_reorient_transform": [
    [0.0, -1.0, 0.0, 81.0],
    [1.0, 0.0, 0.0, 0.0],
    [0.0, 0.0, 1.0, 0.0],
    [0.0, 0.0, 0.0, 1.0]
],
  "dcmmeta_shape": [82, 82, 56, 914],
  "dcmmeta_slice_dim": 2,
  "dcmmeta_version": 0.6,
  "global": {
    "const": {
      "AccessionNumber": "A003999",
      "AcquisitionMatrix": [82, 0, 0, 82],
      "AngioFlag": "N",
      "BitsAllocated": 16,
      "BitsStored": 16,
      "BodyPartExamined": "BRAIN",
      "Columns": 656,
      "EchoNumbers": 1,
      "EchoTime": 27.2,
      "EchoTrainLength": 82,
      "FlipAngle": 44.0,
      "HighBit": 15,
      "ImageOrientationPatient": [0.9999413209077, -0.0018324007826, -0.0106769400459, 0.00157073713408, 0.99969946736425, -0.0244644177633],
      "ImagePositionPatient": [-885.35684335108, -896.1025031052, -49.450673055135],
      "ImageType": [
        "ORIGINAL",
        "PRIMARY",
        "M",
        "MB",
        "ND",
        "NORM",
        "MOSAIC"
],
      "ImagedNucleus": "1H",
      "ImagingFrequency": 123.252246,
      "InPlanePhaseEncodingDirection": "COL",
      "MRAcquisitionType": "2D",
      "MagneticFieldStrength": 3.0,
      "Manufacturer": "SIEMENS",
      "ManufacturerModelName": "Prisma",
      "Modality": "MR",
      "NumberOfAverages": 1.0,
      "NumberOfPhaseEncodingSteps": 82,
      "PercentPhaseFieldOfView": 100.0,
      "PercentSampling": 100.0,
      "PerformedProcedureStepStartTime": "151805.627000",
      "PhotometricInterpretation": "MONOCHROME2",
      "PixelBandwidth": 3050.0,
      "PixelRepresentation": 0,
      "PixelSpacing": [2.6829268932343, 2.6829268932343],
      "ProtocolName": "func_run-04_task-alignvideo_acq-ap-mb8",
      "RepetitionTime": 460.0,
      "Rows": 656,
      "SAR": 0.07558509187418,
      "SamplesPerPixel": 1,
      "ScanOptions": "FS",
      "ScanningSequence": "EP",
      "SequenceName": "epfid2d1_82",
      "SequenceVariant": [
        "SK",
        "SS"
],
      "SeriesDescription": "func_run-04_task-alignvideo_acq-ap-mb8",
      "SeriesNumber": 34,
      "SeriesTime": "171702.544000",
      "SliceLocation": -80.829114708459,
      "SliceThickness": 2.7000000476837,
      "SmallestImagePixelValue": 0,
      "SoftwareVersions": "syngo MR E11",
      "SpacingBetweenSlices": 2.6999999172174,
      "SpecificCharacterSet": "ISO_IR 100",
      "StudyID": "2",
      "StudyTime": "151805.578000",
      "TransmitCoilName": "Body",
      "VariableFlipAngleFlag": "N",
      "WindowCenterWidthExplanation": "Algo1"
    },
    "slices": {}
  },
  "time": {
    "samples": {
      "AcquisitionNumber": [1, 2, 3, 4, 5, 6, 7, 8, 9, 10, 11, 12, 13, 14, 15, 16, 17, 18, 19, 20, 21, 22, 23, 24, 25, 26, 27, 28, 29, 30, 31, 32, 33, 34, 35, 36, 37, 38, 39, 40, 41, 42, 43, 44, 45, 46, 47, 48, 49, 50, 51, 52, 53, 54, 55, 56, 57, 58, 59, 60, 61, 62, 63, 64, 65, 66, 67, 68, 69, 70, 71, 72, 73, 74, 75, 76, 77, 78, 79, 80, 81, 82, 83, 84, 85, 86, 87, 88, 89, 90, 91, 92, 93, 94, 95, 96, 97, 98, 99, 100, 101, 102, 103, 104, 105, 106, 107, 108, 109, 110, 111, 112, 113, 114, 115, 116, 117, 118, 119, 120, 121, 122, 123, 124, 125, 126, 127, 128, 129, 130, 131, 132, 133, 134, 135, 136, 137, 138, 139, 140, 141, 142, 143, 144, 145, 146, 147, 148, 149, 150, 151, 152, 153, 154, 155, 156, 157, 158, 159, 160, 161, 162, 163, 164, 165, 166, 167, 168, 169, 170, 171, 172, 173, 174, 175, 176, 177, 178, 179, 180, 181, 182, 183, 184, 185, 186, 187, 188, 189, 190, 191, 192, 193, 194, 195, 196, 197, 198, 199, 200, 201, 202, 203, 204, 205, 206, 207, 208, 209, 210, 211, 212, 213, 214, 215, 216, 217, 218, 219, 220, 221, 222, 223, 224, 225, 226, 227, 228, 229, 230, 231, 232, 233, 234, 235, 236, 237, 238, 239, 240, 241, 242, 243, 244, 245, 246, 247, 248, 249, 250, 251, 252, 253, 254, 255, 256, 257, 258, 259, 260, 261, 262, 263, 264, 265, 266, 267, 268, 269, 270, 271, 272, 273, 274, 275, 276, 277, 278, 279, 280, 281, 282, 283, 284, 285, 286, 287, 288, 289, 290, 291, 292, 293, 294, 295, 296, 297, 298, 299, 300, 301, 302, 303, 304, 305, 306, 307, 308, 309, 310, 311, 312, 313, 314, 315, 316, 317, 318, 319, 320, 321, 322, 323, 324, 325, 326, 327, 328, 329, 330, 331, 332, 333, 334, 335, 336, 337, 338, 339, 340, 341, 342, 343, 344, 345, 346, 347, 348, 349, 350, 351, 352, 353, 354, 355, 356, 357, 358, 359, 360, 361, 362, 363, 364, 365, 366, 367, 368, 369, 370, 371, 372, 373, 374, 375, 376, 377, 378, 379, 380, 381, 382, 383, 384, 385, 386, 387, 388, 389, 390, 391, 392, 393, 394, 395, 396, 397, 398, 399, 400, 401, 402, 403, 404, 405, 406, 407, 408, 409, 410, 411, 412, 413, 414, 415, 416, 417, 418, 419, 420, 421, 422, 423, 424, 425, 426, 427, 428, 429, 430, 431, 432, 433, 434, 435, 436, 437, 438, 439, 440, 441, 442, 443, 444, 445, 446, 447, 448, 449, 450, 451, 452, 453, 454, 455, 456, 457, 458, 459, 460, 461, 462, 463, 464, 465, 466, 467, 468, 469, 470, 471, 472, 473, 474, 475, 476, 477, 478, 479, 480, 481, 482, 483, 484, 485, 486, 487, 488, 489, 490, 491, 492, 493, 494, 495, 496, 497, 498, 499, 500, 501, 502, 503, 504, 505, 506, 507, 508, 509, 510, 511, 512, 513, 514, 515, 516, 517, 518, 519, 520, 521, 522, 523, 524, 525, 526, 527, 528, 529, 530, 531, 532, 533, 534, 535, 536, 537, 538, 539, 540, 541, 542, 543, 544, 545, 546, 547, 548, 549, 550, 551, 552, 553, 554, 555, 556, 557, 558, 559, 560, 561, 562, 563, 564, 565, 566, 567, 568, 569, 570, 571, 572, 573, 574, 575, 576, 577, 578, 579, 580, 581, 582, 583, 584, 585, 586, 587, 588, 589, 590, 591, 592, 593, 594, 595, 596, 597, 598, 599, 600, 601, 602, 603, 604, 605, 606, 607, 608, 609, 610, 611, 612, 613, 614, 615, 616, 617, 618, 619, 620, 621, 622, 623, 624, 625, 626, 627, 628, 629, 630, 631, 632, 633, 634, 635, 636, 637, 638, 639, 640, 641, 642, 643, 644, 645, 646, 647, 648, 649, 650, 651, 652, 653, 654, 655, 656, 657, 658, 659, 660, 661, 662, 663, 664, 665, 666, 667, 668, 669, 670, 671, 672, 673, 674, 675, 676, 677, 678, 679, 680, 681, 682, 683, 684, 685, 686, 687, 688, 689, 690, 691, 692, 693, 694, 695, 696, 697, 698, 699, 700, 701, 702, 703, 704, 705, 706, 707, 708, 709, 710, 711, 712, 713, 714, 715, 716, 717, 718, 719, 720, 721, 722, 723, 724, 725, 726, 727, 728, 729, 730, 731, 732, 733, 734, 735, 736, 737, 738, 739, 740, 741, 742, 743, 744, 745, 746, 747, 748, 749, 750, 751, 752, 753, 754, 755, 756, 757, 758, 759, 760, 761, 762, 763, 764, 765, 766, 767, 768, 769, 770, 771, 772, 773, 774, 775, 776, 777, 778, 779, 780, 781, 782, 783, 784, 785, 786, 787, 788, 789, 790, 791, 792, 793, 794, 795, 796, 797, 798, 799, 800, 801, 802, 803, 804, 805, 806, 807, 808, 809, 810, 811, 812, 813, 814, 815, 816, 817, 818, 819, 820, 821, 822, 823, 824, 825, 826, 827, 828, 829, 830, 831, 832, 833, 834, 835, 836, 837, 838, 839, 840, 841, 842, 843, 844, 845, 846, 847, 848, 849, 850, 851, 852, 853, 854, 855, 856, 857, 858, 859, 860, 861, 862, 863, 864, 865, 866, 867, 868, 869, 870, 871, 872, 873, 874, 875, 876, 877, 878, 879, 880, 881, 882, 883, 884, 885, 886, 887, 888, 889, 890, 891, 892, 893, 894, 895, 896, 897, 898, 899, 900, 901, 902, 903, 904, 905, 906, 907, 908, 909, 910, 911, 912, 913, 914],
      "AcquisitionTime": ["171635.897500", "171636.357500", "171636.817500", "171637.277500", "171637.737500", "171638.197500", "171638.657500", "171639.117500", "171639.577500", "171640.037500", "171640.497500", "171640.957500", "171641.417500", "171641.877500", "171642.337500", "171642.797500", "171643.257500", "171643.717500", "171644.177500", "171644.637500", "171645.097500", "171645.557500", "171646.017500", "171646.477500", "171646.937500", "171647.397500", "171647.857500", "171648.317500", "171648.777500", "171649.237500", "171649.697500", "171650.157500", "171650.617500", "171651.077500", "171651.537500", "171651.997500", "171652.457500", "171652.917500", "171653.377500", "171653.837500", "171654.297500", "171654.757500", "171655.217500", "171655.677500", "171656.137500", "171656.597500", "171657.057500", "171657.517500", "171657.977500", "171658.437500", "171658.897500", "171659.357500", "171659.817500", "171700.277500", "171700.737500", "171701.197500", "171701.657500", "171702.117500", "171702.577500", "171703.037500", "171703.497500", "171703.957500", "171704.417500", "171704.877500", "171705.337500", "171705.797500", "171706.257500", "171706.717500", "171707.177500", "171707.637500", "171708.097500", "171708.557500", "171709.017500", "171709.477500", "171709.937500", "171710.397500", "171710.857500", "171711.317500", "171711.777500", "171712.237500", "171712.697500", "171713.157500", "171713.617500", "171714.077500", "171714.537500", "171714.997500", "171715.457500", "171715.917500", "171716.377500", "171716.837500", "171717.297500", "171717.757500", "171718.217500", "171718.677500", "171719.137500", "171719.597500", "171720.057500", "171720.517500", "171720.977500", "171721.437500", "171721.897500", "171722.357500", "171722.817500", "171723.277500", "171723.737500", "171724.197500", "171724.657500", "171725.117500", "171725.577500", "171726.037500", "171726.497500", "171726.957500", "171727.417500", "171727.877500", "171728.337500", "171728.797500", "171729.257500", "171729.717500", "171730.177500", "171730.637500", "171731.097500", "171731.557500", "171732.017500", "171732.477500", "171732.937500", "171733.397500", "171733.857500", "171734.317500", "171734.777500", "171735.237500", "171735.697500", "171736.157500", "171736.617500", "171737.077500", "171737.537500", "171737.997500", "171738.457500", "171738.917500", "171739.377500", "171739.837500", "171740.297500", "171740.757500", "171741.217500", "171741.677500", "171742.137500", "171742.597500", "171743.057500", "171743.517500", "171743.977500", "171744.437500", "171744.897500", "171745.357500", "171745.817500", "171746.277500", "171746.737500", "171747.197500", "171747.657500", "171748.117500", "171748.577500", "171749.037500", "171749.497500", "171749.957500", "171750.417500", "171750.877500", "171751.337500", "171751.797500", "171752.257500", "171752.717500", "171753.177500", "171753.637500", "171754.097500", "171754.557500", "171755.017500", "171755.477500", "171755.937500", "171756.397500", "171756.857500", "171757.317500", "171757.777500", "171758.237500", "171758.697500", "171759.157500", "171759.617500", "171800.077500", "171800.537500", "171800.997500", "171801.457500", "171801.917500", "171802.377500", "171802.837500", "171803.297500", "171803.757500", "171804.217500", "171804.677500", "171805.137500", "171805.597500", "171806.057500", "171806.517500", "171806.977500", "171807.437500", "171807.897500", "171808.357500", "171808.817500", "171809.277500", "171809.737500", "171810.197500", "171810.657500", "171811.117500", "171811.577500", "171812.037500", "171812.497500", "171812.957500", "171813.417500", "171813.877500", "171814.337500", "171814.797500", "171815.257500", "171815.717500", "171816.177500", "171816.637500", "171817.097500", "171817.557500", "171818.017500", "171818.477500", "171818.937500", "171819.397500", "171819.857500", "171820.317500", "171820.777500", "171821.237500", "171821.697500", "171822.157500", "171822.617500", "171823.077500", "171823.537500", "171823.997500", "171824.457500", "171824.917500", "171825.377500", "171825.837500", "171826.297500", "171826.757500", "171827.217500", "171827.677500", "171828.137500", "171828.597500", "171829.057500", "171829.517500", "171829.977500", "171830.437500", "171830.897500", "171831.357500", "171831.817500", "171832.277500", "171832.737500", "171833.197500", "171833.657500", "171834.117500", "171834.577500", "171835.037500", "171835.497500", "171835.957500", "171836.417500", "171836.877500", "171837.337500", "171837.797500", "171838.257500", "171838.717500", "171839.177500", "171839.637500", "171840.097500", "171840.557500", "171841.017500", "171841.477500", "171841.937500", "171842.397500", "171842.857500", "171843.317500", "171843.777500", "171844.237500", "171844.697500", "171845.157500", "171845.617500", "171846.077500", "171846.537500", "171846.997500", "171847.457500", "171847.917500", "171848.377500", "171848.837500", "171849.297500", "171849.757500", "171850.217500", "171850.677500", "171851.137500", "171851.597500", "171852.057500", "171852.517500", "171852.977500", "171853.437500", "171853.897500", "171854.357500", "171854.817500", "171855.277500", "171855.737500", "171856.197500", "171856.657500", "171857.117500", "171857.577500", "171858.037500", "171858.497500", "171858.957500", "171859.417500", "171859.877500", "171900.337500", "171900.797500", "171901.257500", "171901.717500", "171902.177500", "171902.637500", "171903.097500", "171903.557500", "171904.017500", "171904.477500", "171904.937500", "171905.397500", "171905.857500", "171906.317500", "171906.777500", "171907.237500", "171907.697500", "171908.157500", "171908.617500", "171909.077500", "171909.537500", "171909.997500", "171910.457500", "171910.917500", "171911.377500", "171911.837500", "171912.297500", "171912.757500", "171913.217500", "171913.677500", "171914.137500", "171914.597500", "171915.057500", "171915.517500", "171915.977500", "171916.437500", "171916.897500", "171917.357500", "171917.817500", "171918.277500", "171918.737500", "171919.197500", "171919.657500", "171920.117500", "171920.577500", "171921.037500", "171921.497500", "171921.957500", "171922.417500", "171922.877500", "171923.337500", "171923.797500", "171924.257500", "171924.717500", "171925.177500", "171925.637500", "171926.097500", "171926.557500", "171927.017500", "171927.477500", "171927.937500", "171928.397500", "171928.857500", "171929.317500", "171929.777500", "171930.237500", "171930.697500", "171931.157500", "171931.617500", "171932.077500", "171932.537500", "171932.997500", "171933.457500", "171933.917500", "171934.377500", "171934.837500", "171935.297500", "171935.757500", "171936.217500", "171936.677500", "171937.137500", "171937.597500", "171938.057500", "171938.517500", "171938.977500", "171939.437500", "171939.897500", "171940.357500", "171940.817500", "171941.277500", "171941.737500", "171942.197500", "171942.657500", "171943.117500", "171943.577500", "171944.037500", "171944.497500", "171944.957500", "171945.417500", "171945.877500", "171946.337500", "171946.797500", "171947.257500", "171947.717500", "171948.177500", "171948.637500", "171949.097500", "171949.557500", "171950.017500", "171950.477500", "171950.937500", "171951.397500", "171951.857500", "171952.317500", "171952.777500", "171953.237500", "171953.697500", "171954.157500", "171954.617500", "171955.077500", "171955.537500", "171955.997500", "171956.457500", "171956.917500", "171957.377500", "171957.837500", "171958.297500", "171958.757500", "171959.217500", "171959.677500", "172000.137500", "172000.597500", "172001.057500", "172001.517500", "172001.977500", "172002.437500", "172002.897500", "172003.357500", "172003.817500", "172004.277500", "172004.737500", "172005.197500", "172005.657500", "172006.117500", "172006.577500", "172007.037500", "172007.497500", "172007.957500", "172008.417500", "172008.877500", "172009.337500", "172009.797500", "172010.257500", "172010.717500", "172011.177500", "172011.637500", "172012.097500", "172012.557500", "172013.017500", "172013.477500", "172013.937500", "172014.397500", "172014.857500", "172015.317500", "172015.777500", "172016.237500", "172016.697500", "172017.157500", "172017.617500", "172018.077500", "172018.537500", "172018.997500", "172019.457500", "172019.917500", "172020.377500", "172020.837500", "172021.297500", "172021.757500", "172022.217500", "172022.677500", "172023.137500", "172023.597500", "172024.057500", "172024.517500", "172024.977500", "172025.437500", "172025.897500", "172026.357500", "172026.817500", "172027.277500", "172027.737500", "172028.197500", "172028.657500", "172029.117500", "172029.577500", "172030.037500", "172030.497500", "172030.957500", "172031.417500", "172031.877500", "172032.337500", "172032.797500", "172033.257500", "172033.717500", "172034.177500", "172034.637500", "172035.097500", "172035.557500", "172036.017500", "172036.477500", "172036.937500", "172037.397500", "172037.857500", "172038.317500", "172038.777500", "172039.237500", "172039.697500", "172040.157500", "172040.617500", "172041.077500", "172041.537500", "172041.997500", "172042.457500", "172042.917500", "172043.377500", "172043.837500", "172044.297500", "172044.757500", "172045.217500", "172045.677500", "172046.137500", "172046.597500", "172047.057500", "172047.517500", "172047.977500", "172048.437500", "172048.897500", "172049.357500", "172049.817500", "172050.277500", "172050.737500", "172051.197500", "172051.657500", "172052.117500", "172052.577500", "172053.037500", "172053.497500", "172053.957500", "172054.417500", "172054.877500", "172055.337500", "172055.797500", "172056.257500", "172056.717500", "172057.177500", "172057.637500", "172058.097500", "172058.557500", "172059.017500", "172059.477500", "172059.937500", "172100.397500", "172100.857500", "172101.317500", "172101.777500", "172102.237500", "172102.697500", "172103.157500", "172103.617500", "172104.077500", "172104.537500", "172104.997500", "172105.457500", "172105.917500", "172106.377500", "172106.837500", "172107.297500", "172107.757500", "172108.217500", "172108.677500", "172109.137500", "172109.597500", "172110.057500", "172110.517500", "172110.977500", "172111.437500", "172111.897500", "172112.357500", "172112.817500", "172113.277500", "172113.737500", "172114.197500", "172114.657500", "172115.117500", "172115.577500", "172116.037500", "172116.497500", "172116.957500", "172117.417500", "172117.877500", "172118.337500", "172118.797500", "172119.257500", "172119.717500", "172120.177500", "172120.637500", "172121.097500", "172121.557500", "172122.017500", "172122.477500", "172122.937500", "172123.397500", "172123.857500", "172124.317500", "172124.777500", "172125.237500", "172125.697500", "172126.157500", "172126.617500", "172127.077500", "172127.537500", "172127.997500", "172128.457500", "172128.917500", "172129.377500", "172129.837500", "172130.297500", "172130.757500", "172131.217500", "172131.677500", "172132.137500", "172132.597500", "172133.057500", "172133.517500", "172133.977500", "172134.437500", "172134.897500", "172135.357500", "172135.817500", "172136.277500", "172136.737500", "172137.197500", "172137.657500", "172138.117500", "172138.577500", "172139.037500", "172139.497500", "172139.957500", "172140.417500", "172140.877500", "172141.337500", "172141.797500", "172142.257500", "172142.717500", "172143.177500", "172143.637500", "172144.097500", "172144.557500", "172145.017500", "172145.477500", "172145.937500", "172146.397500", "172146.857500", "172147.317500", "172147.777500", "172148.237500", "172148.697500", "172149.157500", "172149.617500", "172150.077500", "172150.537500", "172150.997500", "172151.457500", "172151.917500", "172152.377500", "172152.837500", "172153.297500", "172153.757500", "172154.217500", "172154.677500", "172155.137500", "172155.597500", "172156.057500", "172156.517500", "172156.977500", "172157.437500", "172157.897500", "172158.357500", "172158.817500", "172159.277500", "172159.737500", "172200.197500", "172200.657500", "172201.117500", "172201.577500", "172202.037500", "172202.497500", "172202.957500", "172203.417500", "172203.877500", "172204.337500", "172204.797500", "172205.257500", "172205.717500", "172206.177500", "172206.637500", "172207.097500", "172207.557500", "172208.017500", "172208.477500", "172208.937500", "172209.397500", "172209.857500", "172210.317500", "172210.777500", "172211.237500", "172211.697500", "172212.157500", "172212.617500", "172213.077500", "172213.537500", "172213.997500", "172214.457500", "172214.917500", "172215.377500", "172215.837500", "172216.297500", "172216.757500", "172217.217500", "172217.677500", "172218.137500", "172218.597500", "172219.057500", "172219.517500", "172219.977500", "172220.437500", "172220.897500", "172221.357500", "172221.817500", "172222.277500", "172222.737500", "172223.197500", "172223.657500", "172224.117500", "172224.577500", "172225.037500", "172225.497500", "172225.957500", "172226.417500", "172226.877500", "172227.337500", "172227.797500", "172228.257500", "172228.717500", "172229.177500", "172229.637500", "172230.097500", "172230.557500", "172231.017500", "172231.477500", "172231.937500", "172232.397500", "172232.857500", "172233.317500", "172233.777500", "172234.237500", "172234.697500", "172235.157500", "172235.617500", "172236.077500", "172236.537500", "172236.997500", "172237.457500", "172237.917500", "172238.377500", "172238.837500", "172239.297500", "172239.757500", "172240.217500", "172240.677500", "172241.137500", "172241.597500", "172242.057500", "172242.517500", "172242.977500", "172243.437500", "172243.897500", "172244.357500", "172244.817500", "172245.277500", "172245.737500", "172246.197500", "172246.657500", "172247.117500", "172247.577500", "172248.037500", "172248.497500", "172248.957500", "172249.417500", "172249.877500", "172250.337500", "172250.797500", "172251.257500", "172251.717500", "172252.177500", "172252.637500", "172253.097500", "172253.557500", "172254.017500", "172254.477500", "172254.937500", "172255.397500", "172255.857500", "172256.317500", "172256.777500", "172257.237500", "172257.697500", "172258.157500", "172258.617500", "172259.077500", "172259.537500", "172259.997500", "172300.457500", "172300.917500", "172301.377500", "172301.837500", "172302.297500", "172302.757500", "172303.217500", "172303.677500", "172304.137500", "172304.597500", "172305.057500", "172305.517500", "172305.977500", "172306.437500", "172306.897500", "172307.357500", "172307.817500", "172308.277500", "172308.737500", "172309.197500", "172309.657500", "172310.117500", "172310.577500", "172311.037500", "172311.497500", "172311.957500", "172312.417500", "172312.877500", "172313.337500", "172313.797500", "172314.257500", "172314.717500", "172315.177500", "172315.637500", "172316.097500", "172316.557500", "172317.017500", "172317.477500", "172317.937500", "172318.397500", "172318.857500", "172319.317500", "172319.777500", "172320.237500", "172320.697500", "172321.157500", "172321.617500", "172322.077500", "172322.537500", "172322.997500", "172323.457500", "172323.917500", "172324.377500", "172324.837500", "172325.297500", "172325.757500", "172326.217500", "172326.677500", "172327.137500", "172327.597500", "172328.057500", "172328.517500", "172328.977500", "172329.437500", "172329.897500", "172330.357500", "172330.817500", "172331.277500", "172331.737500", "172332.197500", "172332.657500", "172333.117500", "172333.577500", "172334.037500", "172334.497500", "172334.957500", "172335.417500", "172335.877500"],
