{
  "AcquisitionMatrixPE": 82,
  "AcquisitionNumber": 1,
  "AcquisitionTime": "15:43:39.960000",
  "BandwidthPerPixelPhaseEncode": 24.888,
  "BaseResolution": 82,
  "BodyPartExamined": "BRAIN",
  "ConsistencyInfo": "N4_VE11E_LATEST_20181129",
  "ConversionSoftware": "dcm2niix",
  "ConversionSoftwareVersion": "v1.0.20201102",
  "DerivedVendorReportedEchoSpacing": 0.00049,
  "DeviceSerialNumber": "66112",
  "DwellTime": 2e-06,
  "EchoTime": 0.0272,
  "EchoTrainLength": 82,
  "EffectiveEchoSpacing": 0.00049,
  "FlipAngle": 44,
  "ImageComments": "Unaliased MB8/PE3",
  "ImageOrientationPatientDICOM": [0.99991, -0.0108915, 0.00782439, 0.0111696, 0.999274, -0.0364179],
  "ImageType": [
    "ORIGINAL",
    "PRIMARY",
    "M",
    "MB",
    "ND",
    "NORM",
    "MOSAIC"
],
  "ImagingFrequency": 123.252,
  "InPlanePhaseEncodingDirectionDICOM": "COL",
  "InstitutionAddress": "Maynard 3,Hanover,NH,US,03755",
  "InstitutionName": "Dartmouth College - PBS",
  "InstitutionalDepartmentName": "Department",
  "MRAcquisitionType": "2D",
  "MagneticFieldStrength": 3,
  "Manufacturer": "Siemens",
  "ManufacturersModelName": "Prisma",
  "Modality": "MR",
  "MultibandAccelerationFactor": 8,
  "PartialFourier": 1,
  "PatientPosition": "HFS",
  "PercentPhaseFOV": 100,
  "PercentSampling": 100,
  "PhaseEncodingDirection": "j-",
  "PhaseEncodingSteps": 82,
  "PhaseResolution": 1,
  "PixelBandwidth": 3050,
  "ProcedureStepDescription": "Wager_Wager^1076_spacetop",
  "ProtocolName": "func_run-01_task-narratives_acq-ap-mb8",
  "PulseSequenceDetails": "%CustomerSeq%\\cmrr_mbep2d_bold",
  "ReceiveCoilActiveElements": "HEA;HEP",
  "ReceiveCoilName": "Head_32",
  "ReconMatrixPE": 82,
  "RepetitionTime": 0.46,
  "SAR": 0.0756097,
  "ScanOptions": "FS",
  "ScanningSequence": "EP",
  "SequenceName": "epfid2d1_82",
  "SequenceVariant": "SK\\SS",
  "SeriesDescription": "func_run-01_task-narratives_acq-ap-mb8",
  "SeriesNumber": 8,
  "ShimSetting": [4150, -7735, -7306, 558, -45, -120, 20, 69],
  "SliceThickness": 2.7,
  "SliceTiming": [0, 0.2525, 0.0625, 0.315, 0.125, 0.3775, 0.19, 0, 0.2525, 0.0625, 0.315, 0.125, 0.3775, 0.19, 0, 0.2525, 0.0625, 0.315, 0.125, 0.3775, 0.19, 0, 0.2525, 0.0625, 0.315, 0.125, 0.3775, 0.19, 0, 0.2525, 0.0625, 0.315, 0.125, 0.3775, 0.19, 0, 0.2525, 0.0625, 0.315, 0.125, 0.3775, 0.19, 0, 0.2525, 0.0625, 0.315, 0.125, 0.3775, 0.19, 0, 0.2525, 0.0625, 0.315, 0.125, 0.3775, 0.19],
  "SoftwareVersions": "syngo MR E11",
  "SpacingBetweenSlices": 2.7,
  "StationName": "AWP66112",
  "TaskName": "narratives",
  "TotalReadoutTime": 0.03969,
  "TxRefAmp": 231.748,
  "WipMemBlock": "474e50eb-8e16-4c09-a3f3-8e4c6397b8fe||Sequence: R016 ve11e/master r/434b28f1; Aug  7 2019 18:53:46 by eja",
  "dcmmeta_affine": [
    [-2.682685613632202, 0.02996709570288658, 0.02003958635032177, 111.63948059082031],
    [0.02922111377120018, 2.6809797286987305, -0.09855539351701736, -89.07711029052734],
    [0.020992275327444077, 0.09770650416612625, 2.6981263160705566, -84.03435516357422],
    [0.0, 0.0, 0.0, 1.0]
],
  "dcmmeta_reorient_transform": [
    [0.0, -1.0, 0.0, 81.0],
    [1.0, 0.0, 0.0, 0.0],
    [0.0, 0.0, 1.0, 0.0],
    [0.0, 0.0, 0.0, 1.0]
],
  "dcmmeta_shape": [82, 82, 56, 967],
  "dcmmeta_slice_dim": 2,
  "dcmmeta_version": 0.6,
  "global": {
    "const": {
      "AccessionNumber": "A003999",
      "AcquisitionMatrix": [82, 0, 0, 82],
      "AngioFlag": "N",
      "BitsAllocated": 16,
      "BitsStored": 16,
      "BodyPartExamined": "BRAIN",
      "Columns": 656,
      "EchoNumbers": 1,
      "EchoTime": 27.2,
      "EchoTrainLength": 82,
      "FlipAngle": 44.0,
      "HighBit": 15,
      "ImageOrientationPatient": [0.99991007294053, -0.0108915058268, 0.00782439345197, 0.0111695533047, 0.99927422626772, -0.0364178774233],
      "ImagePositionPatient": [-892.59814791022, -889.13696029395, -54.103144882286],
      "ImageType": [
        "ORIGINAL",
        "PRIMARY",
        "M",
        "MB",
        "ND",
        "NORM",
        "MOSAIC"
],
      "ImagedNucleus": "1H",
      "ImagingFrequency": 123.252209,
      "InPlanePhaseEncodingDirection": "COL",
      "MRAcquisitionType": "2D",
      "MagneticFieldStrength": 3.0,
      "Manufacturer": "SIEMENS",
      "ManufacturerModelName": "Prisma",
      "Modality": "MR",
      "NumberOfAverages": 1.0,
      "NumberOfPhaseEncodingSteps": 82,
      "PercentPhaseFieldOfView": 100.0,
      "PercentSampling": 100.0,
      "PerformedProcedureStepStartTime": "151805.627000",
      "PhotometricInterpretation": "MONOCHROME2",
      "PixelBandwidth": 3050.0,
      "PixelRepresentation": 0,
      "PixelSpacing": [2.6829268932343, 2.6829268932343],
      "ProtocolName": "func_run-01_task-narratives_acq-ap-mb8",
      "RepetitionTime": 460.0,
      "Rows": 656,
      "SAR": 0.07560967044818,
      "SamplesPerPixel": 1,
      "ScanOptions": "FS",
      "ScanningSequence": "EP",
      "SequenceName": "epfid2d1_82",
      "SequenceVariant": [
        "SK",
        "SS"
],
      "SeriesDescription": "func_run-01_task-narratives_acq-ap-mb8",
      "SeriesNumber": 8,
      "SeriesTime": "154402.695000",
      "SliceLocation": -79.89594810529,
      "SliceThickness": 2.7000000476837,
      "SmallestImagePixelValue": 0,
      "SoftwareVersions": "syngo MR E11",
      "SpacingBetweenSlices": 2.699999973407,
      "SpecificCharacterSet": "ISO_IR 100",
      "StudyID": "2",
      "StudyTime": "151805.578000",
      "TransmitCoilName": "Body",
      "VariableFlipAngleFlag": "N",
      "WindowCenterWidthExplanation": "Algo1"
    },
    "slices": {}
  },
  "time": {
    "samples": {
      "AcquisitionNumber": [1, 2, 3, 4, 5, 6, 7, 8, 9, 10, 11, 12, 13, 14, 15, 16, 17, 18, 19, 20, 21, 22, 23, 24, 25, 26, 27, 28, 29, 30, 31, 32, 33, 34, 35, 36, 37, 38, 39, 40, 41, 42, 43, 44, 45, 46, 47, 48, 49, 50, 51, 52, 53, 54, 55, 56, 57, 58, 59, 60, 61, 62, 63, 64, 65, 66, 67, 68, 69, 70, 71, 72, 73, 74, 75, 76, 77, 78, 79, 80, 81, 82, 83, 84, 85, 86, 87, 88, 89, 90, 91, 92, 93, 94, 95, 96, 97, 98, 99, 100, 101, 102, 103, 104, 105, 106, 107, 108, 109, 110, 111, 112, 113, 114, 115, 116, 117, 118, 119, 120, 121, 122, 123, 124, 125, 126, 127, 128, 129, 130, 131, 132, 133, 134, 135, 136, 137, 138, 139, 140, 141, 142, 143, 144, 145, 146, 147, 148, 149, 150, 151, 152, 153, 154, 155, 156, 157, 158, 159, 160, 161, 162, 163, 164, 165, 166, 167, 168, 169, 170, 171, 172, 173, 174, 175, 176, 177, 178, 179, 180, 181, 182, 183, 184, 185, 186, 187, 188, 189, 190, 191, 192, 193, 194, 195, 196, 197, 198, 199, 200, 201, 202, 203, 204, 205, 206, 207, 208, 209, 210, 211, 212, 213, 214, 215, 216, 217, 218, 219, 220, 221, 222, 223, 224, 225, 226, 227, 228, 229, 230, 231, 232, 233, 234, 235, 236, 237, 238, 239, 240, 241, 242, 243, 244, 245, 246, 247, 248, 249, 250, 251, 252, 253, 254, 255, 256, 257, 258, 259, 260, 261, 262, 263, 264, 265, 266, 267, 268, 269, 270, 271, 272, 273, 274, 275, 276, 277, 278, 279, 280, 281, 282, 283, 284, 285, 286, 287, 288, 289, 290, 291, 292, 293, 294, 295, 296, 297, 298, 299, 300, 301, 302, 303, 304, 305, 306, 307, 308, 309, 310, 311, 312, 313, 314, 315, 316, 317, 318, 319, 320, 321, 322, 323, 324, 325, 326, 327, 328, 329, 330, 331, 332, 333, 334, 335, 336, 337, 338, 339, 340, 341, 342, 343, 344, 345, 346, 347, 348, 349, 350, 351, 352, 353, 354, 355, 356, 357, 358, 359, 360, 361, 362, 363, 364, 365, 366, 367, 368, 369, 370, 371, 372, 373, 374, 375, 376, 377, 378, 379, 380, 381, 382, 383, 384, 385, 386, 387, 388, 389, 390, 391, 392, 393, 394, 395, 396, 397, 398, 399, 400, 401, 402, 403, 404, 405, 406, 407, 408, 409, 410, 411, 412, 413, 414, 415, 416, 417, 418, 419, 420, 421, 422, 423, 424, 425, 426, 427, 428, 429, 430, 431, 432, 433, 434, 435, 436, 437, 438, 439, 440, 441, 442, 443, 444, 445, 446, 447, 448, 449, 450, 451, 452, 453, 454, 455, 456, 457, 458, 459, 460, 461, 462, 463, 464, 465, 466, 467, 468, 469, 470, 471, 472, 473, 474, 475, 476, 477, 478, 479, 480, 481, 482, 483, 484, 485, 486, 487, 488, 489, 490, 491, 492, 493, 494, 495, 496, 497, 498, 499, 500, 501, 502, 503, 504, 505, 506, 507, 508, 509, 510, 511, 512, 513, 514, 515, 516, 517, 518, 519, 520, 521, 522, 523, 524, 525, 526, 527, 528, 529, 530, 531, 532, 533, 534, 535, 536, 537, 538, 539, 540, 541, 542, 543, 544, 545, 546, 547, 548, 549, 550, 551, 552, 553, 554, 555, 556, 557, 558, 559, 560, 561, 562, 563, 564, 565, 566, 567, 568, 569, 570, 571, 572, 573, 574, 575, 576, 577, 578, 579, 580, 581, 582, 583, 584, 585, 586, 587, 588, 589, 590, 591, 592, 593, 594, 595, 596, 597, 598, 599, 600, 601, 602, 603, 604, 605, 606, 607, 608, 609, 610, 611, 612, 613, 614, 615, 616, 617, 618, 619, 620, 621, 622, 623, 624, 625, 626, 627, 628, 629, 630, 631, 632, 633, 634, 635, 636, 637, 638, 639, 640, 641, 642, 643, 644, 645, 646, 647, 648, 649, 650, 651, 652, 653, 654, 655, 656, 657, 658, 659, 660, 661, 662, 663, 664, 665, 666, 667, 668, 669, 670, 671, 672, 673, 674, 675, 676, 677, 678, 679, 680, 681, 682, 683, 684, 685, 686, 687, 688, 689, 690, 691, 692, 693, 694, 695, 696, 697, 698, 699, 700, 701, 702, 703, 704, 705, 706, 707, 708, 709, 710, 711, 712, 713, 714, 715, 716, 717, 718, 719, 720, 721, 722, 723, 724, 725, 726, 727, 728, 729, 730, 731, 732, 733, 734, 735, 736, 737, 738, 739, 740, 741, 742, 743, 744, 745, 746, 747, 748, 749, 750, 751, 752, 753, 754, 755, 756, 757, 758, 759, 760, 761, 762, 763, 764, 765, 766, 767, 768, 769, 770, 771, 772, 773, 774, 775, 776, 777, 778, 779, 780, 781, 782, 783, 784, 785, 786, 787, 788, 789, 790, 791, 792, 793, 794, 795, 796, 797, 798, 799, 800, 801, 802, 803, 804, 805, 806, 807, 808, 809, 810, 811, 812, 813, 814, 815, 816, 817, 818, 819, 820, 821, 822, 823, 824, 825, 826, 827, 828, 829, 830, 831, 832, 833, 834, 835, 836, 837, 838, 839, 840, 841, 842, 843, 844, 845, 846, 847, 848, 849, 850, 851, 852, 853, 854, 855, 856, 857, 858, 859, 860, 861, 862, 863, 864, 865, 866, 867, 868, 869, 870, 871, 872, 873, 874, 875, 876, 877, 878, 879, 880, 881, 882, 883, 884, 885, 886, 887, 888, 889, 890, 891, 892, 893, 894, 895, 896, 897, 898, 899, 900, 901, 902, 903, 904, 905, 906, 907, 908, 909, 910, 911, 912, 913, 914, 915, 916, 917, 918, 919, 920, 921, 922, 923, 924, 925, 926, 927, 928, 929, 930, 931, 932, 933, 934, 935, 936, 937, 938, 939, 940, 941, 942, 943, 944, 945, 946, 947, 948, 949, 950, 951, 952, 953, 954, 955, 956, 957, 958, 959, 960, 961, 962, 963, 964, 965, 966, 967],
      "AcquisitionTime": ["154339.960000", "154340.420000", "154340.880000", "154341.340000", "154341.800000", "154342.260000", "154342.720000", "154343.180000", "154343.640000", "154344.100000", "154344.560000", "154345.020000", "154345.480000", "154345.940000", "154346.400000", "154346.860000", "154347.320000", "154347.780000", "154348.240000", "154348.700000", "154349.160000", "154349.620000", "154350.080000", "154350.540000", "154351.000000", "154351.460000", "154351.920000", "154352.380000", "154352.840000", "154353.300000", "154353.760000", "154354.220000", "154354.680000", "154355.140000", "154355.600000", "154356.060000", "154356.520000", "154356.980000", "154357.440000", "154357.900000", "154358.360000", "154358.820000", "154359.280000", "154359.740000", "154400.200000", "154400.660000", "154401.120000", "154401.580000", "154402.040000", "154402.500000", "154402.960000", "154403.420000", "154403.880000", "154404.340000", "154404.800000", "154405.260000", "154405.720000", "154406.180000", "154406.640000", "154407.100000", "154407.560000", "154408.020000", "154408.480000", "154408.940000", "154409.400000", "154409.860000", "154410.320000", "154410.780000", "154411.240000", "154411.700000", "154412.160000", "154412.620000", "154413.080000", "154413.540000", "154414.000000", "154414.460000", "154414.920000", "154415.380000", "154415.840000", "154416.300000", "154416.760000", "154417.220000", "154417.680000", "154418.140000", "154418.600000", "154419.060000", "154419.520000", "154419.980000", "154420.440000", "154420.900000", "154421.360000", "154421.820000", "154422.280000", "154422.740000", "154423.200000", "154423.660000", "154424.120000", "154424.580000", "154425.040000", "154425.500000", "154425.960000", "154426.420000", "154426.880000", "154427.340000", "154427.800000", "154428.260000", "154428.720000", "154429.180000", "154429.640000", "154430.100000", "154430.560000", "154431.020000", "154431.480000", "154431.940000", "154432.400000", "154432.860000", "154433.320000", "154433.780000", "154434.240000", "154434.700000", "154435.160000", "154435.620000", "154436.080000", "154436.540000", "154437.000000", "154437.460000", "154437.920000", "154438.380000", "154438.840000", "154439.300000", "154439.760000", "154440.220000", "154440.680000", "154441.140000", "154441.600000", "154442.060000", "154442.520000", "154442.980000", "154443.440000", "154443.900000", "154444.360000", "154444.820000", "154445.280000", "154445.740000", "154446.200000", "154446.660000", "154447.120000", "154447.580000", "154448.040000", "154448.500000", "154448.960000", "154449.420000", "154449.880000", "154450.340000", "154450.800000", "154451.260000", "154451.720000", "154452.180000", "154452.640000", "154453.100000", "154453.560000", "154454.020000", "154454.480000", "154454.940000", "154455.400000", "154455.860000", "154456.320000", "154456.780000", "154457.240000", "154457.700000", "154458.160000", "154458.620000", "154459.080000", "154459.540000", "154500.000000", "154500.460000", "154500.920000", "154501.380000", "154501.840000", "154502.300000", "154502.760000", "154503.220000", "154503.680000", "154504.140000", "154504.600000", "154505.060000", "154505.520000", "154505.980000", "154506.440000", "154506.900000", "154507.360000", "154507.820000", "154508.280000", "154508.740000", "154509.200000", "154509.660000", "154510.120000", "154510.580000", "154511.040000", "154511.500000", "154511.960000", "154512.420000", "154512.880000", "154513.340000", "154513.800000", "154514.260000", "154514.720000", "154515.180000", "154515.640000", "154516.100000", "154516.560000", "154517.020000", "154517.480000", "154517.940000", "154518.400000", "154518.860000", "154519.320000", "154519.780000", "154520.240000", "154520.700000", "154521.160000", "154521.620000", "154522.080000", "154522.540000", "154523.000000", "154523.460000", "154523.920000", "154524.380000", "154524.840000", "154525.300000", "154525.760000", "154526.220000", "154526.680000", "154527.140000", "154527.600000", "154528.060000", "154528.520000", "154528.980000", "154529.440000", "154529.900000", "154530.360000", "154530.820000", "154531.280000", "154531.740000", "154532.200000", "154532.660000", "154533.120000", "154533.580000", "154534.040000", "154534.500000", "154534.960000", "154535.420000", "154535.880000", "154536.340000", "154536.800000", "154537.260000", "154537.720000", "154538.180000", "154538.640000", "154539.100000", "154539.560000", "154540.020000", "154540.480000", "154540.940000", "154541.400000", "154541.860000", "154542.320000", "154542.780000", "154543.240000", "154543.700000", "154544.160000", "154544.620000", "154545.080000", "154545.540000", "154546.000000", "154546.460000", "154546.920000", "154547.380000", "154547.840000", "154548.300000", "154548.760000", "154549.220000", "154549.680000", "154550.140000", "154550.600000", "154551.060000", "154551.520000", "154551.980000", "154552.440000", "154552.900000", "154553.360000", "154553.820000", "154554.280000", "154554.740000", "154555.200000", "154555.660000", "154556.120000", "154556.580000", "154557.040000", "154557.500000", "154557.960000", "154558.420000", "154558.880000", "154559.340000", "154559.800000", "154600.260000", "154600.720000", "154601.180000", "154601.640000", "154602.100000", "154602.560000", "154603.020000", "154603.480000", "154603.940000", "154604.400000", "154604.860000", "154605.320000", "154605.780000", "154606.240000", "154606.700000", "154607.160000", "154607.620000", "154608.080000", "154608.540000", "154609.000000", "154609.460000", "154609.920000", "154610.380000", "154610.840000", "154611.300000", "154611.760000", "154612.220000", "154612.680000", "154613.140000", "154613.600000", "154614.060000", "154614.520000", "154614.980000", "154615.440000", "154615.900000", "154616.360000", "154616.820000", "154617.280000", "154617.740000", "154618.200000", "154618.660000", "154619.120000", "154619.580000", "154620.040000", "154620.500000", "154620.960000", "154621.420000", "154621.880000", "154622.340000", "154622.800000", "154623.260000", "154623.720000", "154624.180000", "154624.640000", "154625.100000", "154625.560000", "154626.020000", "154626.480000", "154626.940000", "154627.400000", "154627.860000", "154628.320000", "154628.780000", "154629.240000", "154629.700000", "154630.160000", "154630.620000", "154631.080000", "154631.540000", "154632.000000", "154632.460000", "154632.920000", "154633.380000", "154633.840000", "154634.300000", "154634.760000", "154635.220000", "154635.680000", "154636.140000", "154636.600000", "154637.060000", "154637.520000", "154637.980000", "154638.440000", "154638.900000", "154639.360000", "154639.820000", "154640.280000", "154640.740000", "154641.200000", "154641.660000", "154642.120000", "154642.580000", "154643.040000", "154643.500000", "154643.960000", "154644.420000", "154644.880000", "154645.340000", "154645.800000", "154646.260000", "154646.720000", "154647.180000", "154647.640000", "154648.100000", "154648.560000", "154649.020000", "154649.480000", "154649.940000", "154650.400000", "154650.860000", "154651.320000", "154651.780000", "154652.240000", "154652.700000", "154653.160000", "154653.620000", "154654.080000", "154654.540000", "154655.000000", "154655.460000", "154655.920000", "154656.380000", "154656.840000", "154657.300000", "154657.760000", "154658.220000", "154658.680000", "154659.140000", "154659.600000", "154700.060000", "154700.520000", "154700.980000", "154701.440000", "154701.900000", "154702.360000", "154702.820000", "154703.280000", "154703.740000", "154704.200000", "154704.660000", "154705.120000", "154705.580000", "154706.040000", "154706.500000", "154706.960000", "154707.420000", "154707.880000", "154708.340000", "154708.800000", "154709.260000", "154709.720000", "154710.180000", "154710.640000", "154711.100000", "154711.560000", "154712.020000", "154712.480000", "154712.940000", "154713.400000", "154713.860000", "154714.320000", "154714.780000", "154715.240000", "154715.700000", "154716.160000", "154716.620000", "154717.080000", "154717.540000", "154718.000000", "154718.460000", "154718.920000", "154719.380000", "154719.840000", "154720.300000", "154720.760000", "154721.220000", "154721.680000", "154722.140000", "154722.600000", "154723.060000", "154723.520000", "154723.980000", "154724.440000", "154724.900000", "154725.360000", "154725.820000", "154726.280000", "154726.740000", "154727.200000", "154727.660000", "154728.120000", "154728.580000", "154729.040000", "154729.500000", "154729.960000", "154730.420000", "154730.880000", "154731.340000", "154731.800000", "154732.260000", "154732.720000", "154733.180000", "154733.640000", "154734.100000", "154734.560000", "154735.020000", "154735.480000", "154735.940000", "154736.400000", "154736.860000", "154737.320000", "154737.780000", "154738.240000", "154738.700000", "154739.160000", "154739.620000", "154740.080000", "154740.540000", "154741.000000", "154741.460000", "154741.920000", "154742.380000", "154742.840000", "154743.300000", "154743.760000", "154744.220000", "154744.680000", "154745.140000", "154745.600000", "154746.060000", "154746.520000", "154746.980000", "154747.440000", "154747.900000", "154748.360000", "154748.820000", "154749.280000", "154749.740000", "154750.200000", "154750.660000", "154751.120000", "154751.580000", "154752.040000", "154752.500000", "154752.960000", "154753.420000", "154753.880000", "154754.340000", "154754.800000", "154755.260000", "154755.720000", "154756.180000", "154756.640000", "154757.100000", "154757.560000", "154758.020000", "154758.480000", "154758.940000", "154759.400000", "154759.860000", "154800.320000", "154800.780000", "154801.240000", "154801.700000", "154802.160000", "154802.620000", "154803.080000", "154803.540000", "154804.000000", "154804.460000", "154804.920000", "154805.380000", "154805.840000", "154806.300000", "154806.760000", "154807.220000", "154807.680000", "154808.140000", "154808.600000", "154809.060000", "154809.520000", "154809.980000", "154810.440000", "154810.900000", "154811.360000", "154811.820000", "154812.280000", "154812.740000", "154813.200000", "154813.660000", "154814.120000", "154814.580000", "154815.040000", "154815.500000", "154815.960000", "154816.420000", "154816.880000", "154817.340000", "154817.800000", "154818.260000", "154818.720000", "154819.180000", "154819.640000", "154820.100000", "154820.560000", "154821.020000", "154821.480000", "154821.940000", "154822.400000", "154822.860000", "154823.320000", "154823.780000", "154824.240000", "154824.700000", "154825.160000", "154825.620000", "154826.080000", "154826.540000", "154827.000000", "154827.460000", "154827.920000", "154828.380000", "154828.840000", "154829.300000", "154829.760000", "154830.220000", "154830.680000", "154831.140000", "154831.600000", "154832.060000", "154832.520000", "154832.980000", "154833.440000", "154833.900000", "154834.360000", "154834.820000", "154835.280000", "154835.740000", "154836.200000", "154836.660000", "154837.120000", "154837.580000", "154838.040000", "154838.500000", "154838.960000", "154839.420000", "154839.880000", "154840.340000", "154840.800000", "154841.260000", "154841.720000", "154842.180000", "154842.640000", "154843.100000", "154843.560000", "154844.020000", "154844.480000", "154844.940000", "154845.400000", "154845.860000", "154846.320000", "154846.780000", "154847.240000", "154847.700000", "154848.160000", "154848.620000", "154849.080000", "154849.540000", "154850.000000", "154850.460000", "154850.920000", "154851.380000", "154851.840000", "154852.300000", "154852.760000", "154853.220000", "154853.680000", "154854.140000", "154854.600000", "154855.060000", "154855.520000", "154855.980000", "154856.440000", "154856.900000", "154857.360000", "154857.820000", "154858.280000", "154858.740000", "154859.200000", "154859.660000", "154900.120000", "154900.580000", "154901.040000", "154901.500000", "154901.960000", "154902.420000", "154902.880000", "154903.340000", "154903.800000", "154904.260000", "154904.720000", "154905.180000", "154905.640000", "154906.100000", "154906.560000", "154907.020000", "154907.480000", "154907.940000", "154908.400000", "154908.860000", "154909.320000", "154909.780000", "154910.240000", "154910.700000", "154911.160000", "154911.620000", "154912.080000", "154912.540000", "154913.000000", "154913.460000", "154913.920000", "154914.380000", "154914.840000", "154915.300000", "154915.760000", "154916.220000", "154916.680000", "154917.140000", "154917.600000", "154918.060000", "154918.520000", "154918.980000", "154919.440000", "154919.900000", "154920.360000", "154920.820000", "154921.280000", "154921.740000", "154922.200000", "154922.660000", "154923.120000", "154923.580000", "154924.040000", "154924.500000", "154924.960000", "154925.420000", "154925.880000", "154926.340000", "154926.800000", "154927.260000", "154927.720000", "154928.180000", "154928.640000", "154929.100000", "154929.560000", "154930.020000", "154930.480000", "154930.940000", "154931.400000", "154931.860000", "154932.320000", "154932.780000", "154933.240000", "154933.700000", "154934.160000", "154934.620000", "154935.080000", "154935.540000", "154936.000000", "154936.460000", "154936.920000", "154937.380000", "154937.840000", "154938.300000", "154938.760000", "154939.220000", "154939.680000", "154940.140000", "154940.600000", "154941.060000", "154941.520000", "154941.980000", "154942.440000", "154942.900000", "154943.360000", "154943.820000", "154944.280000", "154944.740000", "154945.200000", "154945.660000", "154946.120000", "154946.580000", "154947.040000", "154947.500000", "154947.960000", "154948.420000", "154948.880000", "154949.340000", "154949.800000", "154950.260000", "154950.720000", "154951.180000", "154951.640000", "154952.100000", "154952.560000", "154953.020000", "154953.480000", "154953.940000", "154954.400000", "154954.860000", "154955.320000", "154955.780000", "154956.240000", "154956.700000", "154957.160000", "154957.620000", "154958.080000", "154958.540000", "154959.000000", "154959.460000", "154959.920000", "155000.380000", "155000.840000", "155001.300000", "155001.760000", "155002.220000", "155002.680000", "155003.140000", "155003.600000", "155004.060000", "155004.520000", "155004.980000", "155005.440000", "155005.900000", "155006.360000", "155006.820000", "155007.280000", "155007.740000", "155008.200000", "155008.660000", "155009.120000", "155009.580000", "155010.040000", "155010.500000", "155010.960000", "155011.420000", "155011.880000", "155012.340000", "155012.800000", "155013.260000", "155013.720000", "155014.180000", "155014.640000", "155015.100000", "155015.560000", "155016.020000", "155016.480000", "155016.940000", "155017.400000", "155017.860000", "155018.320000", "155018.780000", "155019.240000", "155019.700000", "155020.160000", "155020.620000", "155021.080000", "155021.540000", "155022.000000", "155022.460000", "155022.920000", "155023.380000", "155023.840000", "155024.300000", "155024.760000", "155025.220000", "155025.680000", "155026.140000", "155026.600000", "155027.060000", "155027.520000", "155027.980000", "155028.440000", "155028.900000", "155029.360000", "155029.820000", "155030.280000", "155030.740000", "155031.200000", "155031.660000", "155032.120000", "155032.580000", "155033.040000", "155033.500000", "155033.960000", "155034.420000", "155034.880000", "155035.340000", "155035.800000", "155036.260000", "155036.720000", "155037.180000", "155037.640000", "155038.100000", "155038.560000", "155039.020000", "155039.480000", "155039.940000", "155040.400000", "155040.860000", "155041.320000", "155041.780000", "155042.240000", "155042.700000", "155043.160000", "155043.620000", "155044.080000", "155044.540000", "155045.000000", "155045.460000", "155045.920000", "155046.380000", "155046.840000", "155047.300000", "155047.760000", "155048.220000", "155048.680000", "155049.140000", "155049.600000", "155050.060000", "155050.520000", "155050.980000", "155051.440000", "155051.900000", "155052.360000", "155052.820000", "155053.280000", "155053.740000", "155054.200000", "155054.660000", "155055.120000", "155055.580000", "155056.040000", "155056.500000", "155056.960000", "155057.420000", "155057.880000", "155058.340000", "155058.800000", "155059.260000", "155059.720000", "155100.180000", "155100.640000", "155101.100000", "155101.560000", "155102.020000", "155102.480000", "155102.940000", "155103.400000", "155103.860000", "155104.320000"],
