{
  "AcquisitionMatrixPE": 82,
  "AcquisitionNumber": 1,
  "AcquisitionTime": "16:00:10.942500",
  "BandwidthPerPixelPhaseEncode": 24.888,
  "BaseResolution": 82,
  "BodyPartExamined": "BRAIN",
  "ConsistencyInfo": "N4_VE11E_LATEST_20181129",
  "ConversionSoftware": "dcm2niix",
  "ConversionSoftwareVersion": "v1.0.20201102",
  "DerivedVendorReportedEchoSpacing": 0.00049,
  "DeviceSerialNumber": "66112",
  "DwellTime": 2e-06,
  "EchoTime": 0.0272,
  "EchoTrainLength": 82,
  "EffectiveEchoSpacing": 0.00049,
  "FlipAngle": 44,
  "ImageComments": "Unaliased MB8/PE3",
  "ImageOrientationPatientDICOM": [0.99991, -0.0108915, 0.00782439, 0.0111696, 0.999274, -0.0364179],
  "ImageType": [
    "ORIGINAL",
    "PRIMARY",
    "M",
    "MB",
    "ND",
    "NORM",
    "MOSAIC"
],
  "ImagingFrequency": 123.252,
  "InPlanePhaseEncodingDirectionDICOM": "COL",
  "InstitutionAddress": "Maynard 3,Hanover,NH,US,03755",
  "InstitutionName": "Dartmouth College - PBS",
  "InstitutionalDepartmentName": "Department",
  "MRAcquisitionType": "2D",
  "MagneticFieldStrength": 3,
  "Manufacturer": "Siemens",
  "ManufacturersModelName": "Prisma",
  "Modality": "MR",
  "MultibandAccelerationFactor": 8,
  "PartialFourier": 1,
  "PatientPosition": "HFS",
  "PercentPhaseFOV": 100,
  "PercentSampling": 100,
  "PhaseEncodingDirection": "j-",
  "PhaseEncodingSteps": 82,
  "PhaseResolution": 1,
  "PixelBandwidth": 3050,
  "ProcedureStepDescription": "Wager_Wager^1076_spacetop",
  "ProtocolName": "func_run-03_task-narratives_acq-ap-mb8",
  "PulseSequenceDetails": "%CustomerSeq%\\cmrr_mbep2d_bold",
  "ReceiveCoilActiveElements": "HEA;HEP",
  "ReceiveCoilName": "Head_32",
  "ReconMatrixPE": 82,
  "RepetitionTime": 0.46,
  "SAR": 0.0757183,
  "ScanOptions": "FS",
  "ScanningSequence": "EP",
  "SequenceName": "epfid2d1_82",
  "SequenceVariant": "SK\\SS",
  "SeriesDescription": "func_run-03_task-narratives_acq-ap-mb8",
  "SeriesNumber": 12,
  "ShimSetting": [4150, -7735, -7306, 558, -45, -120, 20, 69],
  "SliceThickness": 2.7,
  "SliceTiming": [0, 0.25, 0.0625, 0.3125, 0.125, 0.375, 0.1875, 0, 0.25, 0.0625, 0.3125, 0.125, 0.375, 0.1875, 0, 0.25, 0.0625, 0.3125, 0.125, 0.375, 0.1875, 0, 0.25, 0.0625, 0.3125, 0.125, 0.375, 0.1875, 0, 0.25, 0.0625, 0.3125, 0.125, 0.375, 0.1875, 0, 0.25, 0.0625, 0.3125, 0.125, 0.375, 0.1875, 0, 0.25, 0.0625, 0.3125, 0.125, 0.375, 0.1875, 0, 0.25, 0.0625, 0.3125, 0.125, 0.375, 0.1875],
  "SoftwareVersions": "syngo MR E11",
  "SpacingBetweenSlices": 2.7,
  "StationName": "AWP66112",
  "TaskName": "narratives",
  "TotalReadoutTime": 0.03969,
  "TxRefAmp": 231.748,
  "WipMemBlock": "7c5914e7-9103-4866-aa42-60be7a47c7ab||Sequence: R016 ve11e/master r/434b28f1; Aug  7 2019 18:53:46 by eja",
  "dcmmeta_affine": [
    [-2.682685613632202, 0.02996709570288658, 0.02003958635032177, 111.63948059082031],
    [0.02922111377120018, 2.6809797286987305, -0.09855539351701736, -89.07711029052734],
    [0.020992275327444077, 0.09770650416612625, 2.6981263160705566, -84.03435516357422],
    [0.0, 0.0, 0.0, 1.0]
],
  "dcmmeta_reorient_transform": [
    [0.0, -1.0, 0.0, 81.0],
    [1.0, 0.0, 0.0, 0.0],
    [0.0, 0.0, 1.0, 0.0],
    [0.0, 0.0, 0.0, 1.0]
],
  "dcmmeta_shape": [82, 82, 56, 652],
  "dcmmeta_slice_dim": 2,
  "dcmmeta_version": 0.6,
  "global": {
    "const": {
      "AccessionNumber": "A003999",
      "AcquisitionMatrix": [82, 0, 0, 82],
      "AngioFlag": "N",
      "BitsAllocated": 16,
      "BitsStored": 16,
      "BodyPartExamined": "BRAIN",
      "Columns": 656,
      "EchoNumbers": 1,
      "EchoTime": 27.2,
      "EchoTrainLength": 82,
      "FlipAngle": 44.0,
      "HighBit": 15,
      "ImageOrientationPatient": [0.99991007294053, -0.0108915058268, 0.00782439345197, 0.0111695533047, 0.99927422626772, -0.0364178774233],
      "ImagePositionPatient": [-892.59814791022, -889.13696029395, -54.103144882286],
      "ImageType": [
        "ORIGINAL",
        "PRIMARY",
        "M",
        "MB",
        "ND",
        "NORM",
        "MOSAIC"
],
      "ImagedNucleus": "1H",
      "ImagingFrequency": 123.252225,
      "InPlanePhaseEncodingDirection": "COL",
      "MRAcquisitionType": "2D",
      "MagneticFieldStrength": 3.0,
      "Manufacturer": "SIEMENS",
      "ManufacturerModelName": "Prisma",
      "Modality": "MR",
      "NumberOfAverages": 1.0,
      "NumberOfPhaseEncodingSteps": 82,
      "PercentPhaseFieldOfView": 100.0,
      "PercentSampling": 100.0,
      "PerformedProcedureStepStartTime": "151805.627000",
      "PhotometricInterpretation": "MONOCHROME2",
      "PixelBandwidth": 3050.0,
      "PixelRepresentation": 0,
      "PixelSpacing": [2.6829268932343, 2.6829268932343],
      "ProtocolName": "func_run-03_task-narratives_acq-ap-mb8",
      "RepetitionTime": 460.0,
      "Rows": 656,
      "SAR": 0.07571828787887,
      "SamplesPerPixel": 1,
      "ScanOptions": "FS",
      "ScanningSequence": "EP",
      "SequenceName": "epfid2d1_82",
      "SequenceVariant": [
        "SK",
        "SS"
],
      "SeriesDescription": "func_run-03_task-narratives_acq-ap-mb8",
      "SeriesNumber": 12,
      "SeriesTime": "160022.611000",
      "SliceLocation": -79.89594810529,
      "SliceThickness": 2.7000000476837,
      "SmallestImagePixelValue": 0,
      "SoftwareVersions": "syngo MR E11",
      "SpacingBetweenSlices": 2.699999973407,
      "SpecificCharacterSet": "ISO_IR 100",
      "StudyID": "2",
      "StudyTime": "151805.578000",
      "TransmitCoilName": "Body",
      "VariableFlipAngleFlag": "N",
      "WindowCenterWidthExplanation": "Algo1"
    },
    "slices": {}
  },
  "time": {
    "samples": {
      "AcquisitionNumber": [1, 2, 3, 4, 5, 6, 7, 8, 9, 10, 11, 12, 13, 14, 15, 16, 17, 18, 19, 20, 21, 22, 23, 24, 25, 26, 27, 28, 29, 30, 31, 32, 33, 34, 35, 36, 37, 38, 39, 40, 41, 42, 43, 44, 45, 46, 47, 48, 49, 50, 51, 52, 53, 54, 55, 56, 57, 58, 59, 60, 61, 62, 63, 64, 65, 66, 67, 68, 69, 70, 71, 72, 73, 74, 75, 76, 77, 78, 79, 80, 81, 82, 83, 84, 85, 86, 87, 88, 89, 90, 91, 92, 93, 94, 95, 96, 97, 98, 99, 100, 101, 102, 103, 104, 105, 106, 107, 108, 109, 110, 111, 112, 113, 114, 115, 116, 117, 118, 119, 120, 121, 122, 123, 124, 125, 126, 127, 128, 129, 130, 131, 132, 133, 134, 135, 136, 137, 138, 139, 140, 141, 142, 143, 144, 145, 146, 147, 148, 149, 150, 151, 152, 153, 154, 155, 156, 157, 158, 159, 160, 161, 162, 163, 164, 165, 166, 167, 168, 169, 170, 171, 172, 173, 174, 175, 176, 177, 178, 179, 180, 181, 182, 183, 184, 185, 186, 187, 188, 189, 190, 191, 192, 193, 194, 195, 196, 197, 198, 199, 200, 201, 202, 203, 204, 205, 206, 207, 208, 209, 210, 211, 212, 213, 214, 215, 216, 217, 218, 219, 220, 221, 222, 223, 224, 225, 226, 227, 228, 229, 230, 231, 232, 233, 234, 235, 236, 237, 238, 239, 240, 241, 242, 243, 244, 245, 246, 247, 248, 249, 250, 251, 252, 253, 254, 255, 256, 257, 258, 259, 260, 261, 262, 263, 264, 265, 266, 267, 268, 269, 270, 271, 272, 273, 274, 275, 276, 277, 278, 279, 280, 281, 282, 283, 284, 285, 286, 287, 288, 289, 290, 291, 292, 293, 294, 295, 296, 297, 298, 299, 300, 301, 302, 303, 304, 305, 306, 307, 308, 309, 310, 311, 312, 313, 314, 315, 316, 317, 318, 319, 320, 321, 322, 323, 324, 325, 326, 327, 328, 329, 330, 331, 332, 333, 334, 335, 336, 337, 338, 339, 340, 341, 342, 343, 344, 345, 346, 347, 348, 349, 350, 351, 352, 353, 354, 355, 356, 357, 358, 359, 360, 361, 362, 363, 364, 365, 366, 367, 368, 369, 370, 371, 372, 373, 374, 375, 376, 377, 378, 379, 380, 381, 382, 383, 384, 385, 386, 387, 388, 389, 390, 391, 392, 393, 394, 395, 396, 397, 398, 399, 400, 401, 402, 403, 404, 405, 406, 407, 408, 409, 410, 411, 412, 413, 414, 415, 416, 417, 418, 419, 420, 421, 422, 423, 424, 425, 426, 427, 428, 429, 430, 431, 432, 433, 434, 435, 436, 437, 438, 439, 440, 441, 442, 443, 444, 445, 446, 447, 448, 449, 450, 451, 452, 453, 454, 455, 456, 457, 458, 459, 460, 461, 462, 463, 464, 465, 466, 467, 468, 469, 470, 471, 472, 473, 474, 475, 476, 477, 478, 479, 480, 481, 482, 483, 484, 485, 486, 487, 488, 489, 490, 491, 492, 493, 494, 495, 496, 497, 498, 499, 500, 501, 502, 503, 504, 505, 506, 507, 508, 509, 510, 511, 512, 513, 514, 515, 516, 517, 518, 519, 520, 521, 522, 523, 524, 525, 526, 527, 528, 529, 530, 531, 532, 533, 534, 535, 536, 537, 538, 539, 540, 541, 542, 543, 544, 545, 546, 547, 548, 549, 550, 551, 552, 553, 554, 555, 556, 557, 558, 559, 560, 561, 562, 563, 564, 565, 566, 567, 568, 569, 570, 571, 572, 573, 574, 575, 576, 577, 578, 579, 580, 581, 582, 583, 584, 585, 586, 587, 588, 589, 590, 591, 592, 593, 594, 595, 596, 597, 598, 599, 600, 601, 602, 603, 604, 605, 606, 607, 608, 609, 610, 611, 612, 613, 614, 615, 616, 617, 618, 619, 620, 621, 622, 623, 624, 625, 626, 627, 628, 629, 630, 631, 632, 633, 634, 635, 636, 637, 638, 639, 640, 641, 642, 643, 644, 645, 646, 647, 648, 649, 650, 651, 652],
      "AcquisitionTime": ["160010.942500", "160011.402500", "160011.862500", "160012.322500", "160012.782500", "160013.242500", "160013.702500", "160014.162500", "160014.622500", "160015.082500", "160015.542500", "160016.002500", "160016.462500", "160016.922500", "160017.382500", "160017.842500", "160018.302500", "160018.762500", "160019.222500", "160019.682500", "160020.142500", "160020.602500", "160021.062500", "160021.522500", "160021.982500", "160022.442500", "160022.902500", "160023.362500", "160023.822500", "160024.282500", "160024.742500", "160025.202500", "160025.662500", "160026.122500", "160026.582500", "160027.042500", "160027.502500", "160027.962500", "160028.422500", "160028.882500", "160029.342500", "160029.802500", "160030.262500", "160030.722500", "160031.182500", "160031.642500", "160032.102500", "160032.562500", "160033.022500", "160033.482500", "160033.942500", "160034.402500", "160034.862500", "160035.322500", "160035.782500", "160036.242500", "160036.702500", "160037.162500", "160037.622500", "160038.082500", "160038.542500", "160039.002500", "160039.462500", "160039.922500", "160040.382500", "160040.842500", "160041.302500", "160041.762500", "160042.222500", "160042.682500", "160043.142500", "160043.602500", "160044.062500", "160044.522500", "160044.982500", "160045.442500", "160045.902500", "160046.362500", "160046.822500", "160047.282500", "160047.742500", "160048.202500", "160048.662500", "160049.122500", "160049.582500", "160050.042500", "160050.502500", "160050.962500", "160051.422500", "160051.882500", "160052.342500", "160052.802500", "160053.262500", "160053.722500", "160054.182500", "160054.642500", "160055.102500", "160055.562500", "160056.022500", "160056.482500", "160056.942500", "160057.402500", "160057.862500", "160058.322500", "160058.782500", "160059.242500", "160059.702500", "160100.162500", "160100.622500", "160101.082500", "160101.542500", "160102.002500", "160102.462500", "160102.922500", "160103.382500", "160103.842500", "160104.302500", "160104.762500", "160105.222500", "160105.682500", "160106.142500", "160106.602500", "160107.062500", "160107.522500", "160107.982500", "160108.442500", "160108.902500", "160109.362500", "160109.822500", "160110.282500", "160110.742500", "160111.202500", "160111.662500", "160112.122500", "160112.582500", "160113.042500", "160113.502500", "160113.962500", "160114.422500", "160114.882500", "160115.342500", "160115.802500", "160116.262500", "160116.722500", "160117.182500", "160117.642500", "160118.102500", "160118.562500", "160119.022500", "160119.482500", "160119.942500", "160120.402500", "160120.862500", "160121.322500", "160121.782500", "160122.242500", "160122.702500", "160123.162500", "160123.622500", "160124.082500", "160124.542500", "160125.002500", "160125.462500", "160125.922500", "160126.382500", "160126.842500", "160127.302500", "160127.762500", "160128.222500", "160128.682500", "160129.142500", "160129.602500", "160130.062500", "160130.522500", "160130.982500", "160131.442500", "160131.902500", "160132.362500", "160132.822500", "160133.282500", "160133.742500", "160134.202500", "160134.662500", "160135.122500", "160135.582500", "160136.042500", "160136.502500", "160136.962500", "160137.422500", "160137.882500", "160138.342500", "160138.802500", "160139.262500", "160139.722500", "160140.182500", "160140.642500", "160141.102500", "160141.562500", "160142.022500", "160142.482500", "160142.942500", "160143.402500", "160143.862500", "160144.322500", "160144.782500", "160145.242500", "160145.702500", "160146.162500", "160146.622500", "160147.082500", "160147.542500", "160148.002500", "160148.462500", "160148.922500", "160149.382500", "160149.842500", "160150.302500", "160150.762500", "160151.222500", "160151.682500", "160152.142500", "160152.602500", "160153.062500", "160153.522500", "160153.982500", "160154.442500", "160154.902500", "160155.362500", "160155.822500", "160156.282500", "160156.742500", "160157.202500", "160157.662500", "160158.122500", "160158.582500", "160159.042500", "160159.502500", "160159.962500", "160200.422500", "160200.882500", "160201.342500", "160201.802500", "160202.262500", "160202.722500", "160203.182500", "160203.642500", "160204.102500", "160204.562500", "160205.022500", "160205.482500", "160205.942500", "160206.402500", "160206.862500", "160207.322500", "160207.782500", "160208.242500", "160208.702500", "160209.162500", "160209.622500", "160210.082500", "160210.542500", "160211.002500", "160211.462500", "160211.922500", "160212.382500", "160212.842500", "160213.302500", "160213.762500", "160214.222500", "160214.682500", "160215.142500", "160215.602500", "160216.062500", "160216.522500", "160216.982500", "160217.442500", "160217.902500", "160218.362500", "160218.822500", "160219.282500", "160219.742500", "160220.202500", "160220.662500", "160221.122500", "160221.582500", "160222.042500", "160222.502500", "160222.962500", "160223.422500", "160223.882500", "160224.342500", "160224.802500", "160225.262500", "160225.722500", "160226.182500", "160226.642500", "160227.102500", "160227.562500", "160228.022500", "160228.482500", "160228.942500", "160229.402500", "160229.862500", "160230.322500", "160230.782500", "160231.242500", "160231.702500", "160232.162500", "160232.622500", "160233.082500", "160233.542500", "160234.002500", "160234.462500", "160234.922500", "160235.382500", "160235.842500", "160236.302500", "160236.762500", "160237.222500", "160237.682500", "160238.142500", "160238.602500", "160239.062500", "160239.522500", "160239.982500", "160240.442500", "160240.902500", "160241.362500", "160241.822500", "160242.282500", "160242.742500", "160243.202500", "160243.662500", "160244.122500", "160244.582500", "160245.042500", "160245.502500", "160245.962500", "160246.422500", "160246.882500", "160247.342500", "160247.802500", "160248.262500", "160248.722500", "160249.182500", "160249.642500", "160250.102500", "160250.562500", "160251.022500", "160251.482500", "160251.942500", "160252.402500", "160252.862500", "160253.322500", "160253.782500", "160254.242500", "160254.702500", "160255.162500", "160255.622500", "160256.082500", "160256.542500", "160257.002500", "160257.462500", "160257.922500", "160258.382500", "160258.842500", "160259.302500", "160259.762500", "160300.222500", "160300.682500", "160301.142500", "160301.602500", "160302.062500", "160302.522500", "160302.982500", "160303.442500", "160303.902500", "160304.362500", "160304.822500", "160305.282500", "160305.742500", "160306.202500", "160306.662500", "160307.122500", "160307.582500", "160308.042500", "160308.502500", "160308.962500", "160309.422500", "160309.882500", "160310.342500", "160310.802500", "160311.262500", "160311.722500", "160312.182500", "160312.642500", "160313.102500", "160313.562500", "160314.022500", "160314.482500", "160314.942500", "160315.402500", "160315.862500", "160316.322500", "160316.782500", "160317.242500", "160317.702500", "160318.162500", "160318.622500", "160319.082500", "160319.542500", "160320.002500", "160320.462500", "160320.922500", "160321.382500", "160321.842500", "160322.302500", "160322.762500", "160323.222500", "160323.682500", "160324.142500", "160324.602500", "160325.062500", "160325.522500", "160325.982500", "160326.442500", "160326.902500", "160327.362500", "160327.822500", "160328.282500", "160328.742500", "160329.202500", "160329.662500", "160330.122500", "160330.582500", "160331.042500", "160331.502500", "160331.962500", "160332.422500", "160332.882500", "160333.342500", "160333.802500", "160334.262500", "160334.722500", "160335.182500", "160335.642500", "160336.102500", "160336.562500", "160337.022500", "160337.482500", "160337.942500", "160338.402500", "160338.862500", "160339.322500", "160339.782500", "160340.242500", "160340.702500", "160341.162500", "160341.622500", "160342.082500", "160342.542500", "160343.002500", "160343.462500", "160343.922500", "160344.382500", "160344.842500", "160345.302500", "160345.762500", "160346.222500", "160346.682500", "160347.142500", "160347.602500", "160348.062500", "160348.522500", "160348.982500", "160349.442500", "160349.902500", "160350.362500", "160350.822500", "160351.282500", "160351.742500", "160352.202500", "160352.662500", "160353.122500", "160353.582500", "160354.042500", "160354.502500", "160354.962500", "160355.422500", "160355.882500", "160356.342500", "160356.802500", "160357.262500", "160357.722500", "160358.182500", "160358.642500", "160359.102500", "160359.562500", "160400.022500", "160400.482500", "160400.942500", "160401.402500", "160401.862500", "160402.322500", "160402.782500", "160403.242500", "160403.702500", "160404.162500", "160404.622500", "160405.082500", "160405.542500", "160406.002500", "160406.462500", "160406.922500", "160407.382500", "160407.842500", "160408.302500", "160408.762500", "160409.222500", "160409.682500", "160410.142500", "160410.602500", "160411.062500", "160411.522500", "160411.982500", "160412.442500", "160412.902500", "160413.362500", "160413.822500", "160414.282500", "160414.742500", "160415.202500", "160415.662500", "160416.122500", "160416.582500", "160417.042500", "160417.502500", "160417.962500", "160418.422500", "160418.882500", "160419.342500", "160419.802500", "160420.262500", "160420.722500", "160421.182500", "160421.642500", "160422.102500", "160422.562500", "160423.022500", "160423.482500", "160423.942500", "160424.402500", "160424.862500", "160425.322500", "160425.782500", "160426.242500", "160426.702500", "160427.162500", "160427.622500", "160428.082500", "160428.542500", "160429.002500", "160429.462500", "160429.922500", "160430.382500", "160430.842500", "160431.302500", "160431.762500", "160432.222500", "160432.682500", "160433.142500", "160433.602500", "160434.062500", "160434.522500", "160434.982500", "160435.442500", "160435.902500", "160436.362500", "160436.822500", "160437.282500", "160437.742500", "160438.202500", "160438.662500", "160439.122500", "160439.582500", "160440.042500", "160440.502500", "160440.962500", "160441.422500", "160441.882500", "160442.342500", "160442.802500", "160443.262500", "160443.722500", "160444.182500", "160444.642500", "160445.102500", "160445.562500", "160446.022500", "160446.482500", "160446.942500", "160447.402500", "160447.862500", "160448.322500", "160448.782500", "160449.242500", "160449.702500", "160450.162500", "160450.622500", "160451.082500", "160451.542500", "160452.002500", "160452.462500", "160452.922500", "160453.382500", "160453.842500", "160454.302500", "160454.762500", "160455.222500", "160455.682500", "160456.142500", "160456.602500", "160457.062500", "160457.522500", "160457.982500", "160458.442500", "160458.902500", "160459.362500", "160459.822500", "160500.282500", "160500.742500", "160501.202500", "160501.662500", "160502.122500", "160502.582500", "160503.042500", "160503.502500", "160503.962500", "160504.422500", "160504.882500", "160505.342500", "160505.802500", "160506.262500", "160506.722500", "160507.182500", "160507.642500", "160508.102500", "160508.562500", "160509.022500", "160509.482500", "160509.942500", "160510.402500"],
