{
  "AcquisitionMatrixPE": 140,
  "AcquisitionNumber": 1,
  "AcquisitionTime": "17:04:4.087500",
  "BandwidthPerPixelPhaseEncode": 10.352,
  "BaseResolution": 140,
  "BodyPartExamined": "BRAIN",
  "ConsistencyInfo": "N4_VE11C_LATEST_20160120",
  "ConversionSoftware": "dcm2niix",
  "ConversionSoftwareVersion": "v1.0.20201102",
  "DerivedVendorReportedEchoSpacing": 0.000689998,
  "DeviceSerialNumber": "66112",
  "DiffusionScheme": "Monopolar",
  "DwellTime": 2.1e-06,
  "EchoTime": 0.0884,
  "EchoTrainLength": 105,
  "EffectiveEchoSpacing": 0.000689998,
  "FlipAngle": 90,
  "ImageComments": "Unaliased MB3/PE3 SENSE1",
  "ImageOrientationPatientDICOM": [0.981383, 0.189486, 0.0313536, -0.188274, 0.981384, -0.0379292],
  "ImageType": [
    "ORIGINAL",
    "PRIMARY",
    "DIFFUSION",
    "NONE",
    "MB",
    "ND",
    "MOSAIC"
],
  "ImagingFrequency": 123.252,
  "InPlanePhaseEncodingDirectionDICOM": "COL",
  "InstitutionAddress": "Maynard 3,Hanover,NH,US,03755",
  "InstitutionName": "Dartmouth College - PBS",
  "InstitutionalDepartmentName": "Department",
  "MRAcquisitionType": "2D",
  "MagneticFieldStrength": 3,
  "Manufacturer": "Siemens",
  "ManufacturersModelName": "Prisma",
  "Modality": "MR",
  "MultibandAccelerationFactor": 3,
  "PartialFourier": 0.75,
  "PatientPosition": "HFS",
  "PercentPhaseFOV": 100,
  "PercentSampling": 100,
  "PhaseEncodingDirection": "j-",
  "PhaseEncodingSteps": 105,
  "PhaseResolution": 1,
  "PixelBandwidth": 1700,
  "ProcedureStepDescription": "Wager_Wager^1076_spacetop",
  "ProtocolName": "dwi_acq-96dir-6b0-mb",
  "PulseSequenceDetails": "%CustomerSeq%\\cmrr_mbep2d_diff",
  "ReceiveCoilActiveElements": "HEA;HEP",
  "ReceiveCoilName": "Head_32",
  "ReconMatrixPE": 140,
  "RepetitionTime": 4.11,
  "SAR": 0.231946,
  "ScanOptions": "PFP\\FS",
  "ScanningSequence": "EP",
  "SequenceName": "ep_b5#1",
  "SequenceVariant": "SK\\SS",
  "SeriesDescription": "dwi_acq-96dir-6b0-mb",
  "SeriesNumber": 8,
  "ShimSetting": [4143, -7767, -7275, 617, -128, -307, -10, 95],
  "SliceThickness": 1.7,
  "SliceTiming": [0, 2.12, 0.15, 2.2725, 0.3025, 2.4225, 0.455, 2.575, 0.605, 2.725, 0.7575, 2.8775, 0.9075, 3.03, 1.06, 3.18, 1.2125, 3.3325, 1.3625, 3.4825, 1.515, 3.635, 1.665, 3.7875, 1.8175, 3.9375, 1.9675, 0, 2.12, 0.15, 2.2725, 0.3025, 2.4225, 0.455, 2.575, 0.605, 2.725, 0.7575, 2.8775, 0.9075, 3.03, 1.06, 3.18, 1.2125, 3.3325, 1.3625, 3.4825, 1.515, 3.635, 1.665, 3.7875, 1.8175, 3.9375, 1.9675, 0, 2.12, 0.15, 2.2725, 0.3025, 2.4225, 0.455, 2.575, 0.605, 2.725, 0.7575, 2.8775, 0.9075, 3.03, 1.06, 3.18, 1.2125, 3.3325, 1.3625, 3.4825, 1.515, 3.635, 1.665, 3.7875, 1.8175, 3.9375, 1.9675],
  "SoftwareVersions": "syngo MR E11",
  "SpacingBetweenSlices": 1.7,
  "StationName": "AWP66112",
  "TotalReadoutTime": 0.0959097,
  "TxRefAmp": 236.381,
  "WipMemBlock": "54904f10-f1bf-4961-be28-7d28290c7e53||Sequence: R016 ve11c/master r/e634e98; Dec 19 2017 11:11:25 by eja",
  "dcmmeta_affine": [
    [-1.6823704242706299, -0.3227556049823761, 0.06452676653862, 135.97119140625],
    [-0.32483258843421936, 1.6823723316192627, -0.05324402078986168, -83.58245086669922],
    [0.0537489615380764, 0.06502150744199753, 1.6979403495788574, -77.44505310058594],
    [0.0, 0.0, 0.0, 1.0]
],
  "dcmmeta_reorient_transform": [
    [0.0, -1.0, 0.0, 139.0],
    [1.0, 0.0, 0.0, 0.0],
    [0.0, 0.0, 1.0, 0.0],
    [0.0, 0.0, 0.0, 1.0]
],
  "dcmmeta_shape": [140, 140, 81, 103],
  "dcmmeta_slice_dim": 2,
  "dcmmeta_version": 0.6,
  "global": {
    "const": {
      "AccessionNumber": "A003811",
      "AcquisitionMatrix": [140, 0, 0, 140],
      "AngioFlag": "N",
      "BitsAllocated": 16,
      "BitsStored": 16,
      "BodyPartExamined": "BRAIN",
      "Columns": 1260,
      "EchoNumbers": 1,
      "EchoTime": 88.4,
      "EchoTrainLength": 105,
      "FlipAngle": 90.0,
      "HighBit": 15,
      "ImageOrientationPatient": [0.98138276564131, 0.18948567624742, 0.03135356118977, -0.1882741073193, 0.98138383694114, -0.0379292117479],
      "ImagePositionPatient": [-852.49248341734, -1274.3020424713, -62.094441430694],
      "ImageType": [
        "ORIGINAL",
        "PRIMARY",
        "DIFFUSION",
        "NONE",
        "MB",
        "ND",
        "MOSAIC"
],
      "ImagedNucleus": "1H",
      "ImagingFrequency": 123.252218,
      "InPlanePhaseEncodingDirection": "COL",
      "MRAcquisitionType": "2D",
      "MagneticFieldStrength": 3.0,
      "Manufacturer": "SIEMENS",
      "ManufacturerModelName": "Prisma",
      "Modality": "MR",
      "NumberOfAverages": 1.0,
      "NumberOfPhaseEncodingSteps": 105,
      "PercentPhaseFieldOfView": 100.0,
      "PercentSampling": 100.0,
      "PerformedProcedureStepStartTime": "163646.553000",
      "PhotometricInterpretation": "MONOCHROME2",
      "PixelBandwidth": 1700.0,
      "PixelRepresentation": 0,
      "PixelSpacing": [1.7142857313156, 1.7142857313156],
      "ProtocolName": "dwi_acq-96dir-6b0-mb",
      "RepetitionTime": 4110.0,
      "Rows": 1260,
      "SAR": 0.23194603395446,
      "SamplesPerPixel": 1,
      "ScanOptions": [
        "PFP",
        "FS"
],
      "ScanningSequence": "EP",
      "SequenceVariant": [
        "SK",
        "SS"
],
      "SeriesDescription": "dwi_acq-96dir-6b0-mb",
      "SeriesNumber": 8,
      "SeriesTime": "170540.348000",
      "SliceLocation": -69.572374230001,
      "SliceThickness": 1.7000000476837,
      "SmallestImagePixelValue": 0,
      "SoftwareVersions": "syngo MR E11",
      "SpacingBetweenSlices": 1.7000000174868,
      "SpecificCharacterSet": "ISO_IR 100",
      "StudyID": "1",
      "StudyTime": "163646.512000",
      "TransmitCoilName": "Body",
      "VariableFlipAngleFlag": "N",
      "WindowCenterWidthExplanation": "Algo1",
      "dBdt": 0.0},
    "slices": {}
  },
  "time": {
    "samples": {
      "AcquisitionNumber": [1, 2, 3, 4, 5, 6, 7, 8, 9, 10, 11, 12, 13, 14, 15, 16, 17, 18, 19, 20, 21, 22, 23, 24, 25, 26, 27, 28, 29, 30, 31, 32, 33, 34, 35, 36, 37, 38, 39, 40, 41, 42, 43, 44, 45, 46, 47, 48, 49, 50, 51, 52, 53, 54, 55, 56, 57, 58, 59, 60, 61, 62, 63, 64, 65, 66, 67, 68, 69, 70, 71, 72, 73, 74, 75, 76, 77, 78, 79, 80, 81, 82, 83, 84, 85, 86, 87, 88, 89, 90, 91, 92, 93, 94, 95, 96, 97, 98, 99, 100, 101, 102, 103],
      "AcquisitionTime": ["170404.087500", "170408.197500", "170412.307500", "170416.417500", "170420.527500", "170424.637500", "170428.747500", "170432.857500", "170436.967500", "170441.077500", "170445.187500", "170449.297500", "170453.407500", "170457.517500", "170501.627500", "170505.737500", "170509.847500", "170513.957500", "170518.067500", "170522.177500", "170526.287500", "170530.397500", "170534.507500", "170538.617500", "170542.727500", "170546.837500", "170550.947500", "170555.057500", "170559.167500", "170603.277500", "170607.387500", "170611.497500", "170615.607500", "170619.717500", "170623.827500", "170627.937500", "170632.047500", "170636.157500", "170640.267500", "170644.377500", "170648.487500", "170652.597500", "170656.707500", "170700.817500", "170704.927500", "170709.037500", "170713.147500", "170717.257500", "170721.367500", "170725.477500", "170729.587500", "170733.697500", "170737.807500", "170741.917500", "170746.027500", "170750.137500", "170754.247500", "170758.357500", "170802.467500", "170806.577500", "170810.687500", "170814.797500", "170818.907500", "170823.017500", "170827.127500", "170831.237500", "170835.347500", "170839.457500", "170843.567500", "170847.677500", "170851.787500", "170855.897500", "170900.007500", "170904.117500", "170908.227500", "170912.337500", "170916.447500", "170920.557500", "170924.667500", "170928.777500", "170932.887500", "170936.997500", "170941.107500", "170945.217500", "170949.327500", "170953.437500", "170957.547500", "171001.657500", "171005.767500", "171009.877500", "171013.987500", "171018.097500", "171022.207500", "171026.317500", "171030.427500", "171034.537500", "171038.647500", "171042.757500", "171046.867500", "171050.977500", "171055.087500", "171059.197500", "171103.307500"],
      "ContentTime": ["170540.352000", "170540.356000", "170540.360000", "170540.363000", "170540.366000", "170540.370000", "170540.373000", "170540.376000", "170540.380000", "170540.383000", "170540.386000", "170540.390000", "170540.393000", "170540.397000", "170540.400000", "170540.403000", "170540.407000", "170540.410000", "170540.413000", "170540.417000", "170540.420000", "170540.423000", "170540.427000", "170720.347000", "170720.351000", "170720.354000", "170720.358000", "170720.361000", "170720.364000", "170720.368000", "170720.371000", "170720.374000", "170720.378000", "170720.381000", "170720.385000", "170720.388000", "170720.391000", "170720.395000", "170720.398000", "170720.401000", "170720.405000", "170720.408000", "170720.411000", "170720.415000", "170720.418000", "170720.421000", "170720.425000", "170900.347000", "170900.351000", "170900.354000", "170900.358000", "170900.361000", "170900.364000", "170900.377000", "170900.380000", "170900.384000", "170900.387000", "170900.390000", "170900.394000", "170900.397000", "170900.400000", "170900.404000", "170900.407000", "170900.428000", "170900.431000", "170900.435000", "170900.438000", "170900.441000", "170900.445000", "170900.448000", "170900.451000", "171020.347000", "171020.351000", "171020.355000", "171020.358000", "171020.362000", "171020.365000", "171020.368000", "171020.372000", "171020.375000", "171020.378000", "171020.382000", "171020.385000", "171020.388000", "171020.392000", "171020.395000", "171020.399000", "171020.402000", "171020.405000", "171020.409000", "171020.412000", "171040.348000", "171040.352000", "171040.355000", "171040.359000", "171040.362000", "171108.377000", "171108.383000", "171108.389000", "171108.394000", "171108.399000", "171108.403000", "171108.407000"],
      "InstanceCreationTime": ["170540.352000", "170540.356000", "170540.360000", "170540.363000", "170540.366000", "170540.370000", "170540.373000", "170540.376000", "170540.380000", "170540.383000", "170540.386000", "170540.390000", "170540.393000", "170540.397000", "170540.400000", "170540.403000", "170540.407000", "170540.410000", "170540.413000", "170540.417000", "170540.420000", "170540.423000", "170540.427000", "170720.347000", "170720.351000", "170720.354000", "170720.358000", "170720.361000", "170720.364000", "170720.368000", "170720.371000", "170720.374000", "170720.378000", "170720.381000", "170720.385000", "170720.388000", "170720.391000", "170720.395000", "170720.398000", "170720.401000", "170720.405000", "170720.408000", "170720.411000", "170720.415000", "170720.418000", "170720.421000", "170720.425000", "170900.347000", "170900.351000", "170900.354000", "170900.358000", "170900.361000", "170900.364000", "170900.377000", "170900.380000", "170900.384000", "170900.387000", "170900.390000", "170900.394000", "170900.397000", "170900.400000", "170900.404000", "170900.407000", "170900.428000", "170900.431000", "170900.435000", "170900.438000", "170900.441000", "170900.445000", "170900.448000", "170900.451000", "171020.347000", "171020.351000", "171020.355000", "171020.358000", "171020.362000", "171020.365000", "171020.368000", "171020.372000", "171020.375000", "171020.378000", "171020.382000", "171020.385000", "171020.388000", "171020.392000", "171020.395000", "171020.399000", "171020.402000", "171020.405000", "171020.409000", "171020.412000", "171040.348000", "171040.352000", "171040.355000", "171040.359000", "171040.362000", "171108.377000", "171108.383000", "171108.389000", "171108.394000", "171108.399000", "171108.403000", "171108.407000"],
      "InstanceNumber": [1, 2, 3, 4, 5, 6, 7, 8, 9, 10, 11, 12, 13, 14, 15, 16, 17, 18, 19, 20, 21, 22, 23, 24, 25, 26, 27, 28, 29, 30, 31, 32, 33, 34, 35, 36, 37, 38, 39, 40, 41, 42, 43, 44, 45, 46, 47, 48, 49, 50, 51, 52, 53, 54, 55, 56, 57, 58, 59, 60, 61, 62, 63, 64, 65, 66, 67, 68, 69, 70, 71, 72, 73, 74, 75, 76, 77, 78, 79, 80, 81, 82, 83, 84, 85, 86, 87, 88, 89, 90, 91, 92, 93, 94, 95, 96, 97, 98, 99, 100, 101, 102, 103],
      "LargestImagePixelValue": [65535, 65535, 58820, 59584, 56654, 61275, 58595, 58192, 65535, 41457, 45930, 42590, 42218, 42823, 40963, 41337, 41221, 46048, 41946, 42577, 42676, 40601, 43301, 42249, 65535, 21627, 23471, 22327, 22524, 22700, 24542, 20617, 26542, 22508, 23291, 23025, 20203, 19374, 21342, 20804, 65535, 12401, 14410, 14630, 14308, 14241, 12495, 15281, 13802, 11024, 13749, 14292, 11546, 12036, 13057, 10972, 13329, 11432, 12952, 13203, 11215, 16016, 12237, 12099, 11026, 13453, 14726, 12777, 15656, 15409, 12115, 11924, 13848, 65535, 13631, 12987, 13912, 11291, 12450, 14087, 12642, 14974, 12446, 13590, 13416, 11624, 14762, 15197, 13883, 18157, 13669, 12643, 14739, 14652, 14668, 13856, 12538, 12041, 15082, 11399, 12950, 12373, 65535],
      "SequenceName": [
 "ep_b5#1",
 "ep_b5#1",
 "ep_b500#2",
 "ep_b495#3",
 "ep_b500#4",
 "ep_b505#5",
 "ep_b495#6",
 "ep_b500#7",
 "ep_b5#8",
 "ep_b1000#9",
 "ep_b1005#10",
 "ep_b995#11",
 "ep_b1005#12",
 "ep_b995#13",
 "ep_b995#14",
 "ep_b1005#15",
 "ep_b1000#16",
 "ep_b1005#17",
 "ep_b1000#18",
 "ep_b1000#19",
 "ep_b995#20",
 "ep_b1000#21",
 "ep_b1005#22",
 "ep_b1000#23",
 "ep_b5#24",
 "ep_b2000#25",
 "ep_b1995#26",
 "ep_b1990#27",
 "ep_b2000#28",
 "ep_b2005#29",
 "ep_b2010#30",
 "ep_b2000#31",
 "ep_b2010#32",
 "ep_b2000#33",
 "ep_b1995#34",
 "ep_b1995#35",
 "ep_b2005#36",
 "ep_b1995#37",
 "ep_b2005#38",
 "ep_b1995#39",
 "ep_b5#40",
 "ep_b3000#41",
 "ep_b3005#42",
 "ep_b3010#43",
 "ep_b3010#44",
 "ep_b3000#45",
 "ep_b3000#46",
 "ep_b2990#47",
 "ep_b3005#48",
 "ep_b3005#49",
 "ep_b2990#50",
 "ep_b2990#51",
 "ep_b2995#52",
 "ep_b2995#53",
 "ep_b3005#54",
 "ep_b3000#55",
 "ep_b2995#56",
 "ep_b2995#57",
 "ep_b2990#58",
 "ep_b2990#59",
 "ep_b3000#60",
 "ep_b2990#61",
 "ep_b2990#62",
 "ep_b3000#63",
 "ep_b3000#64",
 "ep_b3010#65",
 "ep_b3000#66",
 "ep_b3005#67",
 "ep_b3010#68",
 "ep_b3005#69",
 "ep_b3005#70",
 "ep_b3005#71",
 "ep_b2990#72",
 "ep_b5#73",
 "ep_b3010#74",
 "ep_b3005#75",
 "ep_b3005#76",
 "ep_b3000#77",
 "ep_b2990#78",
 "ep_b3005#79",
 "ep_b2995#80",
 "ep_b3010#81",
 "ep_b3005#82",
 "ep_b3005#83",
 "ep_b3000#84",
 "ep_b3000#85",
 "ep_b3010#86",
 "ep_b3010#87",
 "ep_b2990#88",
 "ep_b3010#89",
 "ep_b2995#90",
 "ep_b2995#91",
 "ep_b2990#92",
 "ep_b2995#93",
 "ep_b3005#94",
 "ep_b3005#95",
 "ep_b2995#96",
 "ep_b3000#97",
 "ep_b2990#98",
 "ep_b2995#99",
 "ep_b2995#100",
 "ep_b2995#101",
 "ep_b5#102"
],
      "WindowCenter": [10809.0, 10826.0, 7411.0, 7429.0, 7400.0, 7354.0, 7498.0, 7445.0, 10832.0, 5606.0, 5614.0, 5624.0, 5570.0, 5595.0, 5604.0, 5588.0, 5663.0, 5640.0, 5656.0, 5631.0, 5674.0, 5591.0, 5606.0, 5651.0, 10814.0, 3628.0, 3652.0, 3595.0, 3744.0, 3614.0, 3623.0, 3639.0, 3644.0, 3685.0, 3738.0, 3666.0, 3578.0, 3602.0, 3655.0, 3600.0, 10827.0, 2567.0, 2577.0, 2624.0, 2609.0, 2627.0, 2613.0, 2676.0, 2566.0, 2505.0, 2557.0, 2597.0, 2589.0, 2602.0, 2618.0, 2516.0, 2597.0, 2523.0, 2631.0, 2576.0, 2552.0, 2647.0, 2664.0, 2646.0, 2556.0, 2655.0, 2586.0, 2590.0, 2638.0, 2611.0, 2530.0, 2628.0, 2669.0, 10811.0, 2599.0, 2580.0, 2539.0, 2568.0, 2518.0, 2582.0, 2532.0, 2594.0, 2597.0, 2547.0, 2578.0, 2547.0, 2536.0, 2562.0, 2584.0, 2633.0, 2604.0, 2529.0, 2594.0, 2654.0, 2598.0, 2592.0, 2647.0, 2537.0, 2637.0, 2521.0, 2568.0, 2647.0, 10784.0],
      "WindowWidth": [24591.0, 24641.0, 15779.0, 15808.0, 15752.0, 15678.0, 15950.0, 15846.0, 24655.0, 12092.0, 12100.0, 12134.0, 12036.0, 12107.0, 12117.0, 12069.0, 12195.0, 12146.0, 12180.0, 12122.0, 12205.0, 12058.0, 12100.0, 12147.0, 24593.0, 8214.0, 8260.0, 8167.0, 8412.0, 8189.0, 8198.0, 8227.0, 8239.0, 8314.0, 8410.0, 8285.0, 8125.0, 8166.0, 8264.0, 8157.0, 24635.0, 6147.0, 6134.0, 6232.0, 6191.0, 6257.0, 6224.0, 6328.0, 6111.0, 6044.0, 6097.0, 6171.0, 6212.0, 6237.0, 6241.0, 6060.0, 6219.0, 6053.0, 6256.0, 6147.0, 6108.0, 6266.0, 6343.0, 6299.0, 6132.0, 6302.0, 6172.0, 6185.0, 6261.0, 6215.0, 6085.0, 6278.0, 6321.0, 24577.0, 6179.0, 6143.0, 6057.0, 6146.0, 6027.0, 6160.0, 6058.0, 6168.0, 6215.0, 6092.0, 6166.0, 6126.0, 6053.0, 6093.0, 6152.0, 6208.0, 6212.0, 6044.0, 6170.0, 6307.0, 6196.0, 6197.0, 6304.0, 6086.0, 6253.0, 6039.0, 6157.0, 6306.0, 24493.0]
    },
    "slices": {}
  }
}