{
  "AcquisitionMatrixPE": 82,
  "AcquisitionNumber": 1,
  "AcquisitionTime": "13:41:11.850000",
  "BandwidthPerPixelPhaseEncode": 24.888,
  "BaseResolution": 82,
  "BodyPartExamined": "BRAIN",
  "ConsistencyInfo": "N4_VE11C_LATEST_20160120",
  "ConversionSoftware": "dcm2niix",
  "ConversionSoftwareVersion": "v1.0.20201102",
  "DerivedVendorReportedEchoSpacing": 0.00049,
  "DeviceSerialNumber": "66112",
  "DwellTime": 2e-06,
  "EchoTime": 0.0272,
  "EchoTrainLength": 82,
  "EffectiveEchoSpacing": 0.00049,
  "FlipAngle": 44,
  "ImageComments": "Unaliased MB8/PE3",
  "ImageOrientationPatientDICOM": [0.999291, -0.0017273, 0.0376102, -0.00174414, 0.995751, 0.0920724],
  "ImageType": [
    "ORIGINAL",
    "PRIMARY",
    "M",
    "MB",
    "ND",
    "NORM",
    "MOSAIC"
],
  "ImagingFrequency": 123.252,
  "InPlanePhaseEncodingDirectionDICOM": "COL",
  "InstitutionAddress": "Maynard 3,Hanover,NH,US,03755",
  "InstitutionName": "Dartmouth College - PBS",
  "InstitutionalDepartmentName": "Department",
  "MRAcquisitionType": "2D",
  "MagneticFieldStrength": 3,
  "Manufacturer": "Siemens",
  "ManufacturersModelName": "Prisma",
  "Modality": "MR",
  "MultibandAccelerationFactor": 8,
  "PartialFourier": 1,
  "PatientPosition": "HFS",
  "PercentPhaseFOV": 100,
  "PercentSampling": 100,
  "PhaseEncodingDirection": "j-",
  "PhaseEncodingSteps": 82,
  "PhaseResolution": 1,
  "PixelBandwidth": 3050,
  "ProcedureStepDescription": "Wager_Wager^1076_spacetop",
  "ProtocolName": "func_run-06_task-social_acq-ap-mb8",
  "PulseSequenceDetails": "%CustomerSeq%\\cmrr_mbep2d_bold",
  "ReceiveCoilActiveElements": "HEA;HEP",
  "ReceiveCoilName": "Head_32",
  "ReconMatrixPE": 82,
  "RepetitionTime": 0.46,
  "SAR": 0.0990316,
  "ScanOptions": "FS",
  "ScanningSequence": "EP",
  "SequenceName": "epfid2d1_82",
  "SequenceVariant": "SK\\SS",
  "SeriesDescription": "func_run-06_task-social_acq-ap-mb8",
  "SeriesNumber": 22,
  "ShimSetting": [4150, -7762, -7152, 561, -100, -91, -88, 54],
  "SliceThickness": 2.7,
  "SliceTiming": [0, 0.2525, 0.0625, 0.315, 0.125, 0.3775, 0.19, 0, 0.2525, 0.0625, 0.315, 0.125, 0.3775, 0.19, 0, 0.2525, 0.0625, 0.315, 0.125, 0.3775, 0.19, 0, 0.2525, 0.0625, 0.315, 0.125, 0.3775, 0.19, 0, 0.2525, 0.0625, 0.315, 0.125, 0.3775, 0.19, 0, 0.2525, 0.0625, 0.315, 0.125, 0.3775, 0.19, 0, 0.2525, 0.0625, 0.315, 0.125, 0.3775, 0.19, 0, 0.2525, 0.0625, 0.315, 0.125, 0.3775, 0.19],
  "SoftwareVersions": "syngo MR E11",
  "SpacingBetweenSlices": 2.7,
  "StationName": "AWP66112",
  "TaskName": "social",
  "TotalReadoutTime": 0.03969,
  "TxRefAmp": 256.254,
  "WipMemBlock": "99b2778b-fe01-4388-9d60-93ecb32cc9e9||Sequence: R016 ve11c/master r/e634e98; Dec 19 2017 11:00:25 by eja",
  "dcmmeta_affine": [
    [-2.6810247898101807, -0.004679391160607338, 0.10154540836811066, 109.68830108642578],
    [0.0046342164278030396, 2.6715266704559326, 0.24859626591205597, -98.03394317626953],
    [0.10090538114309311, -0.24702343344688416, 2.686612844467163, -24.633638381958008],
    [0.0, 0.0, 0.0, 1.0]
],
  "dcmmeta_reorient_transform": [
    [0.0, -1.0, 0.0, 81.0],
    [1.0, 0.0, 0.0, 0.0],
    [0.0, 0.0, 1.0, 0.0],
    [0.0, 0.0, 0.0, 1.0]
],
  "dcmmeta_shape": [82, 82, 56, 872],
  "dcmmeta_slice_dim": 2,
  "dcmmeta_version": 0.6,
  "global": {
    "const": {
      "AccessionNumber": "A003802",
      "AcquisitionMatrix": [82, 0, 0, 82],
      "AngioFlag": "N",
      "BitsAllocated": 16,
      "BitsStored": 16,
      "BodyPartExamined": "BRAIN",
      "Columns": 656,
      "EchoNumbers": 1,
      "EchoTime": 27.2,
      "EchoTrainLength": 82,
      "FlipAngle": 44.0,
      "HighBit": 15,
      "ImageOrientationPatient": [0.9992909937986, -0.0017272987489, 0.03761018681211, -0.0017441365779, 0.99575079036368, 0.09207237087042],
      "ImagePositionPatient": [-877.420365906, -883.75781479144, -144.49810823916],
      "ImageType": [
        "ORIGINAL",
        "PRIMARY",
        "M",
        "MB",
        "ND",
        "NORM",
        "MOSAIC"
],
      "ImagedNucleus": "1H",
      "ImagingFrequency": 123.252138,
      "InPlanePhaseEncodingDirection": "COL",
      "MRAcquisitionType": "2D",
      "MagneticFieldStrength": 3.0,
      "Manufacturer": "SIEMENS",
      "ManufacturerModelName": "Prisma",
      "Modality": "MR",
      "NumberOfAverages": 1.0,
      "NumberOfPhaseEncodingSteps": 82,
      "PercentPhaseFieldOfView": 100.0,
      "PercentSampling": 100.0,
      "PerformedProcedureStepStartTime": "123643.179000",
      "PhotometricInterpretation": "MONOCHROME2",
      "PixelBandwidth": 3050.0,
      "PixelRepresentation": 0,
      "PixelSpacing": [2.6829268932343, 2.6829268932343],
      "ProtocolName": "func_run-06_task-social_acq-ap-mb8",
      "RepetitionTime": 460.0,
      "Rows": 656,
      "SAR": 0.0990316207884,
      "SamplesPerPixel": 1,
      "ScanOptions": "FS",
      "ScanningSequence": "EP",
      "SequenceName": "epfid2d1_82",
      "SequenceVariant": [
        "SK",
        "SS"
],
      "SeriesDescription": "func_run-06_task-social_acq-ap-mb8",
      "SeriesNumber": 22,
      "SeriesTime": "134135.222000",
      "SliceLocation": -29.412435583496,
      "SliceThickness": 2.7000000476837,
      "SmallestImagePixelValue": 0,
      "SoftwareVersions": "syngo MR E11",
      "SpacingBetweenSlices": 2.7000000562562,
      "SpecificCharacterSet": "ISO_IR 100",
      "StudyID": "1",
      "StudyTime": "123643.061000",
      "TransmitCoilName": "Body",
      "VariableFlipAngleFlag": "N",
      "WindowCenterWidthExplanation": "Algo1",
      "dBdt": 0.0},
    "slices": {}
  },
  "time": {
    "samples": {
      "AcquisitionNumber": [1, 2, 3, 4, 5, 6, 7, 8, 9, 10, 11, 12, 13, 14, 15, 16, 17, 18, 19, 20, 21, 22, 23, 24, 25, 26, 27, 28, 29, 30, 31, 32, 33, 34, 35, 36, 37, 38, 39, 40, 41, 42, 43, 44, 45, 46, 47, 48, 49, 50, 51, 52, 53, 54, 55, 56, 57, 58, 59, 60, 61, 62, 63, 64, 65, 66, 67, 68, 69, 70, 71, 72, 73, 74, 75, 76, 77, 78, 79, 80, 81, 82, 83, 84, 85, 86, 87, 88, 89, 90, 91, 92, 93, 94, 95, 96, 97, 98, 99, 100, 101, 102, 103, 104, 105, 106, 107, 108, 109, 110, 111, 112, 113, 114, 115, 116, 117, 118, 119, 120, 121, 122, 123, 124, 125, 126, 127, 128, 129, 130, 131, 132, 133, 134, 135, 136, 137, 138, 139, 140, 141, 142, 143, 144, 145, 146, 147, 148, 149, 150, 151, 152, 153, 154, 155, 156, 157, 158, 159, 160, 161, 162, 163, 164, 165, 166, 167, 168, 169, 170, 171, 172, 173, 174, 175, 176, 177, 178, 179, 180, 181, 182, 183, 184, 185, 186, 187, 188, 189, 190, 191, 192, 193, 194, 195, 196, 197, 198, 199, 200, 201, 202, 203, 204, 205, 206, 207, 208, 209, 210, 211, 212, 213, 214, 215, 216, 217, 218, 219, 220, 221, 222, 223, 224, 225, 226, 227, 228, 229, 230, 231, 232, 233, 234, 235, 236, 237, 238, 239, 240, 241, 242, 243, 244, 245, 246, 247, 248, 249, 250, 251, 252, 253, 254, 255, 256, 257, 258, 259, 260, 261, 262, 263, 264, 265, 266, 267, 268, 269, 270, 271, 272, 273, 274, 275, 276, 277, 278, 279, 280, 281, 282, 283, 284, 285, 286, 287, 288, 289, 290, 291, 292, 293, 294, 295, 296, 297, 298, 299, 300, 301, 302, 303, 304, 305, 306, 307, 308, 309, 310, 311, 312, 313, 314, 315, 316, 317, 318, 319, 320, 321, 322, 323, 324, 325, 326, 327, 328, 329, 330, 331, 332, 333, 334, 335, 336, 337, 338, 339, 340, 341, 342, 343, 344, 345, 346, 347, 348, 349, 350, 351, 352, 353, 354, 355, 356, 357, 358, 359, 360, 361, 362, 363, 364, 365, 366, 367, 368, 369, 370, 371, 372, 373, 374, 375, 376, 377, 378, 379, 380, 381, 382, 383, 384, 385, 386, 387, 388, 389, 390, 391, 392, 393, 394, 395, 396, 397, 398, 399, 400, 401, 402, 403, 404, 405, 406, 407, 408, 409, 410, 411, 412, 413, 414, 415, 416, 417, 418, 419, 420, 421, 422, 423, 424, 425, 426, 427, 428, 429, 430, 431, 432, 433, 434, 435, 436, 437, 438, 439, 440, 441, 442, 443, 444, 445, 446, 447, 448, 449, 450, 451, 452, 453, 454, 455, 456, 457, 458, 459, 460, 461, 462, 463, 464, 465, 466, 467, 468, 469, 470, 471, 472, 473, 474, 475, 476, 477, 478, 479, 480, 481, 482, 483, 484, 485, 486, 487, 488, 489, 490, 491, 492, 493, 494, 495, 496, 497, 498, 499, 500, 501, 502, 503, 504, 505, 506, 507, 508, 509, 510, 511, 512, 513, 514, 515, 516, 517, 518, 519, 520, 521, 522, 523, 524, 525, 526, 527, 528, 529, 530, 531, 532, 533, 534, 535, 536, 537, 538, 539, 540, 541, 542, 543, 544, 545, 546, 547, 548, 549, 550, 551, 552, 553, 554, 555, 556, 557, 558, 559, 560, 561, 562, 563, 564, 565, 566, 567, 568, 569, 570, 571, 572, 573, 574, 575, 576, 577, 578, 579, 580, 581, 582, 583, 584, 585, 586, 587, 588, 589, 590, 591, 592, 593, 594, 595, 596, 597, 598, 599, 600, 601, 602, 603, 604, 605, 606, 607, 608, 609, 610, 611, 612, 613, 614, 615, 616, 617, 618, 619, 620, 621, 622, 623, 624, 625, 626, 627, 628, 629, 630, 631, 632, 633, 634, 635, 636, 637, 638, 639, 640, 641, 642, 643, 644, 645, 646, 647, 648, 649, 650, 651, 652, 653, 654, 655, 656, 657, 658, 659, 660, 661, 662, 663, 664, 665, 666, 667, 668, 669, 670, 671, 672, 673, 674, 675, 676, 677, 678, 679, 680, 681, 682, 683, 684, 685, 686, 687, 688, 689, 690, 691, 692, 693, 694, 695, 696, 697, 698, 699, 700, 701, 702, 703, 704, 705, 706, 707, 708, 709, 710, 711, 712, 713, 714, 715, 716, 717, 718, 719, 720, 721, 722, 723, 724, 725, 726, 727, 728, 729, 730, 731, 732, 733, 734, 735, 736, 737, 738, 739, 740, 741, 742, 743, 744, 745, 746, 747, 748, 749, 750, 751, 752, 753, 754, 755, 756, 757, 758, 759, 760, 761, 762, 763, 764, 765, 766, 767, 768, 769, 770, 771, 772, 773, 774, 775, 776, 777, 778, 779, 780, 781, 782, 783, 784, 785, 786, 787, 788, 789, 790, 791, 792, 793, 794, 795, 796, 797, 798, 799, 800, 801, 802, 803, 804, 805, 806, 807, 808, 809, 810, 811, 812, 813, 814, 815, 816, 817, 818, 819, 820, 821, 822, 823, 824, 825, 826, 827, 828, 829, 830, 831, 832, 833, 834, 835, 836, 837, 838, 839, 840, 841, 842, 843, 844, 845, 846, 847, 848, 849, 850, 851, 852, 853, 854, 855, 856, 857, 858, 859, 860, 861, 862, 863, 864, 865, 866, 867, 868, 869, 870, 871, 872],
      "AcquisitionTime": ["134111.850000", "134112.310000", "134112.770000", "134113.230000", "134113.690000", "134114.150000", "134114.610000", "134115.070000", "134115.530000", "134115.990000", "134116.450000", "134116.910000", "134117.370000", "134117.830000", "134118.290000", "134118.750000", "134119.210000", "134119.670000", "134120.130000", "134120.590000", "134121.050000", "134121.510000", "134121.970000", "134122.430000", "134122.890000", "134123.350000", "134123.810000", "134124.270000", "134124.730000", "134125.190000", "134125.650000", "134126.110000", "134126.570000", "134127.030000", "134127.490000", "134127.950000", "134128.410000", "134128.870000", "134129.330000", "134129.790000", "134130.250000", "134130.710000", "134131.170000", "134131.630000", "134132.090000", "134132.550000", "134133.010000", "134133.470000", "134133.930000", "134134.390000", "134134.850000", "134135.310000", "134135.770000", "134136.230000", "134136.690000", "134137.150000", "134137.610000", "134138.070000", "134138.530000", "134138.990000", "134139.450000", "134139.910000", "134140.370000", "134140.830000", "134141.290000", "134141.750000", "134142.210000", "134142.670000", "134143.130000", "134143.590000", "134144.050000", "134144.510000", "134144.970000", "134145.430000", "134145.890000", "134146.350000", "134146.810000", "134147.270000", "134147.730000", "134148.190000", "134148.650000", "134149.110000", "134149.570000", "134150.030000", "134150.490000", "134150.950000", "134151.410000", "134151.870000", "134152.330000", "134152.790000", "134153.250000", "134153.710000", "134154.170000", "134154.630000", "134155.090000", "134155.550000", "134156.010000", "134156.470000", "134156.930000", "134157.390000", "134157.850000", "134158.310000", "134158.770000", "134159.230000", "134159.690000", "134200.150000", "134200.610000", "134201.070000", "134201.530000", "134201.990000", "134202.450000", "134202.910000", "134203.370000", "134203.830000", "134204.290000", "134204.750000", "134205.210000", "134205.670000", "134206.130000", "134206.590000", "134207.050000", "134207.510000", "134207.970000", "134208.430000", "134208.890000", "134209.350000", "134209.810000", "134210.270000", "134210.730000", "134211.190000", "134211.650000", "134212.110000", "134212.570000", "134213.030000", "134213.490000", "134213.950000", "134214.410000", "134214.870000", "134215.330000", "134215.790000", "134216.250000", "134216.710000", "134217.170000", "134217.630000", "134218.090000", "134218.550000", "134219.010000", "134219.470000", "134219.930000", "134220.390000", "134220.850000", "134221.310000", "134221.770000", "134222.230000", "134222.690000", "134223.150000", "134223.610000", "134224.070000", "134224.530000", "134224.990000", "134225.450000", "134225.910000", "134226.370000", "134226.830000", "134227.290000", "134227.750000", "134228.210000", "134228.670000", "134229.130000", "134229.590000", "134230.050000", "134230.510000", "134230.970000", "134231.430000", "134231.890000", "134232.350000", "134232.810000", "134233.270000", "134233.730000", "134234.190000", "134234.650000", "134235.110000", "134235.570000", "134236.030000", "134236.490000", "134236.950000", "134237.410000", "134237.870000", "134238.330000", "134238.790000", "134239.250000", "134239.710000", "134240.170000", "134240.630000", "134241.090000", "134241.550000", "134242.010000", "134242.470000", "134242.930000", "134243.390000", "134243.850000", "134244.310000", "134244.770000", "134245.230000", "134245.690000", "134246.150000", "134246.610000", "134247.070000", "134247.530000", "134247.990000", "134248.450000", "134248.910000", "134249.370000", "134249.830000", "134250.290000", "134250.750000", "134251.210000", "134251.670000", "134252.130000", "134252.590000", "134253.050000", "134253.510000", "134253.970000", "134254.430000", "134254.890000", "134255.350000", "134255.810000", "134256.270000", "134256.730000", "134257.190000", "134257.650000", "134258.110000", "134258.570000", "134259.030000", "134259.490000", "134259.950000", "134300.410000", "134300.870000", "134301.330000", "134301.790000", "134302.250000", "134302.710000", "134303.170000", "134303.630000", "134304.090000", "134304.550000", "134305.010000", "134305.470000", "134305.930000", "134306.390000", "134306.850000", "134307.310000", "134307.770000", "134308.230000", "134308.690000", "134309.150000", "134309.610000", "134310.070000", "134310.530000", "134310.990000", "134311.450000", "134311.910000", "134312.370000", "134312.830000", "134313.290000", "134313.750000", "134314.210000", "134314.670000", "134315.130000", "134315.590000", "134316.050000", "134316.510000", "134316.970000", "134317.430000", "134317.890000", "134318.350000", "134318.810000", "134319.270000", "134319.730000", "134320.190000", "134320.650000", "134321.110000", "134321.570000", "134322.030000", "134322.490000", "134322.950000", "134323.410000", "134323.870000", "134324.330000", "134324.790000", "134325.250000", "134325.710000", "134326.170000", "134326.630000", "134327.090000", "134327.550000", "134328.010000", "134328.470000", "134328.930000", "134329.390000", "134329.850000", "134330.310000", "134330.770000", "134331.230000", "134331.690000", "134332.150000", "134332.610000", "134333.070000", "134333.530000", "134333.990000", "134334.450000", "134334.910000", "134335.370000", "134335.830000", "134336.290000", "134336.750000", "134337.210000", "134337.670000", "134338.130000", "134338.590000", "134339.050000", "134339.510000", "134339.970000", "134340.430000", "134340.890000", "134341.350000", "134341.810000", "134342.270000", "134342.730000", "134343.190000", "134343.650000", "134344.110000", "134344.570000", "134345.030000", "134345.490000", "134345.950000", "134346.410000", "134346.870000", "134347.330000", "134347.790000", "134348.250000", "134348.710000", "134349.170000", "134349.630000", "134350.090000", "134350.550000", "134351.010000", "134351.470000", "134351.930000", "134352.390000", "134352.850000", "134353.310000", "134353.770000", "134354.230000", "134354.690000", "134355.150000", "134355.610000", "134356.070000", "134356.530000", "134356.990000", "134357.450000", "134357.910000", "134358.370000", "134358.830000", "134359.290000", "134359.750000", "134400.210000", "134400.670000", "134401.130000", "134401.590000", "134402.050000", "134402.510000", "134402.970000", "134403.430000", "134403.890000", "134404.350000", "134404.810000", "134405.270000", "134405.730000", "134406.190000", "134406.650000", "134407.110000", "134407.570000", "134408.030000", "134408.490000", "134408.950000", "134409.410000", "134409.870000", "134410.330000", "134410.790000", "134411.250000", "134411.710000", "134412.170000", "134412.630000", "134413.090000", "134413.550000", "134414.010000", "134414.470000", "134414.930000", "134415.390000", "134415.850000", "134416.310000", "134416.770000", "134417.230000", "134417.690000", "134418.150000", "134418.610000", "134419.070000", "134419.530000", "134419.990000", "134420.450000", "134420.910000", "134421.370000", "134421.830000", "134422.290000", "134422.750000", "134423.210000", "134423.670000", "134424.130000", "134424.590000", "134425.050000", "134425.510000", "134425.970000", "134426.430000", "134426.890000", "134427.350000", "134427.810000", "134428.270000", "134428.730000", "134429.190000", "134429.650000", "134430.110000", "134430.570000", "134431.030000", "134431.490000", "134431.950000", "134432.410000", "134432.870000", "134433.330000", "134433.790000", "134434.250000", "134434.710000", "134435.170000", "134435.630000", "134436.090000", "134436.550000", "134437.010000", "134437.470000", "134437.930000", "134438.390000", "134438.850000", "134439.310000", "134439.770000", "134440.230000", "134440.690000", "134441.150000", "134441.610000", "134442.070000", "134442.530000", "134442.990000", "134443.450000", "134443.910000", "134444.370000", "134444.830000", "134445.290000", "134445.750000", "134446.210000", "134446.670000", "134447.130000", "134447.590000", "134448.050000", "134448.510000", "134448.970000", "134449.430000", "134449.890000", "134450.350000", "134450.810000", "134451.270000", "134451.730000", "134452.190000", "134452.650000", "134453.110000", "134453.570000", "134454.030000", "134454.490000", "134454.950000", "134455.410000", "134455.870000", "134456.330000", "134456.790000", "134457.250000", "134457.710000", "134458.170000", "134458.630000", "134459.090000", "134459.550000", "134500.010000", "134500.470000", "134500.930000", "134501.390000", "134501.850000", "134502.310000", "134502.770000", "134503.230000", "134503.690000", "134504.150000", "134504.610000", "134505.070000", "134505.530000", "134505.990000", "134506.450000", "134506.910000", "134507.370000", "134507.830000", "134508.290000", "134508.750000", "134509.210000", "134509.670000", "134510.130000", "134510.590000", "134511.050000", "134511.510000", "134511.970000", "134512.430000", "134512.890000", "134513.350000", "134513.810000", "134514.270000", "134514.730000", "134515.190000", "134515.650000", "134516.110000", "134516.570000", "134517.030000", "134517.490000", "134517.950000", "134518.410000", "134518.870000", "134519.330000", "134519.790000", "134520.250000", "134520.710000", "134521.170000", "134521.630000", "134522.090000", "134522.550000", "134523.010000", "134523.470000", "134523.930000", "134524.390000", "134524.850000", "134525.310000", "134525.770000", "134526.230000", "134526.690000", "134527.150000", "134527.610000", "134528.070000", "134528.530000", "134528.990000", "134529.450000", "134529.910000", "134530.370000", "134530.830000", "134531.290000", "134531.750000", "134532.210000", "134532.670000", "134533.130000", "134533.590000", "134534.050000", "134534.510000", "134534.970000", "134535.430000", "134535.890000", "134536.350000", "134536.810000", "134537.270000", "134537.730000", "134538.190000", "134538.650000", "134539.110000", "134539.570000", "134540.030000", "134540.490000", "134540.950000", "134541.410000", "134541.870000", "134542.330000", "134542.790000", "134543.250000", "134543.710000", "134544.170000", "134544.630000", "134545.090000", "134545.550000", "134546.010000", "134546.470000", "134546.930000", "134547.390000", "134547.850000", "134548.310000", "134548.770000", "134549.230000", "134549.690000", "134550.150000", "134550.610000", "134551.070000", "134551.530000", "134551.990000", "134552.450000", "134552.910000", "134553.370000", "134553.830000", "134554.290000", "134554.750000", "134555.210000", "134555.670000", "134556.130000", "134556.590000", "134557.050000", "134557.510000", "134557.970000", "134558.430000", "134558.890000", "134559.350000", "134559.810000", "134600.270000", "134600.730000", "134601.190000", "134601.650000", "134602.110000", "134602.570000", "134603.030000", "134603.490000", "134603.950000", "134604.410000", "134604.870000", "134605.330000", "134605.790000", "134606.250000", "134606.710000", "134607.170000", "134607.630000", "134608.090000", "134608.550000", "134609.010000", "134609.470000", "134609.930000", "134610.390000", "134610.850000", "134611.310000", "134611.770000", "134612.230000", "134612.690000", "134613.150000", "134613.610000", "134614.070000", "134614.530000", "134614.990000", "134615.450000", "134615.910000", "134616.370000", "134616.830000", "134617.290000", "134617.750000", "134618.210000", "134618.670000", "134619.130000", "134619.590000", "134620.050000", "134620.510000", "134620.970000", "134621.430000", "134621.890000", "134622.350000", "134622.810000", "134623.270000", "134623.730000", "134624.190000", "134624.650000", "134625.110000", "134625.570000", "134626.030000", "134626.490000", "134626.950000", "134627.410000", "134627.870000", "134628.330000", "134628.790000", "134629.250000", "134629.710000", "134630.170000", "134630.630000", "134631.090000", "134631.550000", "134632.010000", "134632.470000", "134632.930000", "134633.390000", "134633.850000", "134634.310000", "134634.770000", "134635.230000", "134635.690000", "134636.150000", "134636.610000", "134637.070000", "134637.530000", "134637.990000", "134638.450000", "134638.910000", "134639.370000", "134639.830000", "134640.290000", "134640.750000", "134641.210000", "134641.670000", "134642.130000", "134642.590000", "134643.050000", "134643.510000", "134643.970000", "134644.430000", "134644.890000", "134645.350000", "134645.810000", "134646.270000", "134646.730000", "134647.190000", "134647.650000", "134648.110000", "134648.570000", "134649.030000", "134649.490000", "134649.950000", "134650.410000", "134650.870000", "134651.330000", "134651.790000", "134652.250000", "134652.710000", "134653.170000", "134653.630000", "134654.090000", "134654.550000", "134655.010000", "134655.470000", "134655.930000", "134656.390000", "134656.850000", "134657.310000", "134657.770000", "134658.230000", "134658.690000", "134659.150000", "134659.610000", "134700.070000", "134700.530000", "134700.990000", "134701.450000", "134701.910000", "134702.370000", "134702.830000", "134703.290000", "134703.750000", "134704.210000", "134704.670000", "134705.130000", "134705.590000", "134706.050000", "134706.510000", "134706.970000", "134707.430000", "134707.890000", "134708.350000", "134708.810000", "134709.270000", "134709.730000", "134710.190000", "134710.650000", "134711.110000", "134711.570000", "134712.030000", "134712.490000", "134712.950000", "134713.410000", "134713.870000", "134714.330000", "134714.790000", "134715.250000", "134715.710000", "134716.170000", "134716.630000", "134717.090000", "134717.550000", "134718.010000", "134718.470000", "134718.930000", "134719.390000", "134719.850000", "134720.310000", "134720.770000", "134721.230000", "134721.690000", "134722.150000", "134722.610000", "134723.070000", "134723.530000", "134723.990000", "134724.450000", "134724.910000", "134725.370000", "134725.830000", "134726.290000", "134726.750000", "134727.210000", "134727.670000", "134728.130000", "134728.590000", "134729.050000", "134729.510000", "134729.970000", "134730.430000", "134730.890000", "134731.350000", "134731.810000", "134732.270000", "134732.730000", "134733.190000", "134733.650000", "134734.110000", "134734.570000", "134735.030000", "134735.490000", "134735.950000", "134736.410000", "134736.870000", "134737.330000", "134737.790000", "134738.250000", "134738.710000", "134739.170000", "134739.630000", "134740.090000", "134740.550000", "134741.010000", "134741.470000", "134741.930000", "134742.390000", "134742.850000", "134743.310000", "134743.770000", "134744.230000", "134744.690000", "134745.150000", "134745.610000", "134746.070000", "134746.530000", "134746.990000", "134747.450000", "134747.910000", "134748.370000", "134748.830000", "134749.290000", "134749.750000", "134750.210000", "134750.670000", "134751.130000", "134751.590000", "134752.050000", "134752.510000"],
