{
  "AcquisitionMatrixPE": 82,
  "AcquisitionNumber": 1,
  "AcquisitionTime": "14:10:6.127500",
  "BandwidthPerPixelPhaseEncode": 24.888,
  "BaseResolution": 82,
  "BodyPartExamined": "BRAIN",
  "ConsistencyInfo": "N4_VE11C_LATEST_20160120",
  "ConversionSoftware": "dcm2niix",
  "ConversionSoftwareVersion": "v1.0.20201102",
  "DerivedVendorReportedEchoSpacing": 0.00049,
  "DeviceSerialNumber": "66112",
  "DwellTime": 2e-06,
  "EchoTime": 0.0272,
  "EchoTrainLength": 82,
  "EffectiveEchoSpacing": 0.00049,
  "FlipAngle": 44,
  "ImageComments": "Unaliased MB8/PE3",
  "ImageOrientationPatientDICOM": [0.998292, 0.0056223, 0.0581442, -0.00993167, 0.997202, 0.0740941],
  "ImageType": [
    "ORIGINAL",
    "PRIMARY",
    "M",
    "MB",
    "ND",
    "NORM",
    "MOSAIC"
],
  "ImagingFrequency": 123.252,
  "InPlanePhaseEncodingDirectionDICOM": "COL",
  "InstitutionAddress": "Maynard 3,Hanover,NH,US,03755",
  "InstitutionName": "Dartmouth College - PBS",
  "InstitutionalDepartmentName": "Department",
  "MRAcquisitionType": "2D",
  "MagneticFieldStrength": 3,
  "Manufacturer": "Siemens",
  "ManufacturersModelName": "Prisma",
  "Modality": "MR",
  "MultibandAccelerationFactor": 8,
  "PartialFourier": 1,
  "PatientPosition": "HFS",
  "PercentPhaseFOV": 100,
  "PercentSampling": 100,
  "PhaseEncodingDirection": "j-",
  "PhaseEncodingSteps": 82,
  "PhaseResolution": 1,
  "PixelBandwidth": 3050,
  "ProcedureStepDescription": "Wager_Wager^1076_spacetop",
  "ProtocolName": "func_run-03_task-alignvideo_acq-ap-mb8",
  "PulseSequenceDetails": "%CustomerSeq%\\cmrr_mbep2d_bold",
  "ReceiveCoilActiveElements": "HEA;HEP",
  "ReceiveCoilName": "Head_32",
  "ReconMatrixPE": 82,
  "RepetitionTime": 0.46,
  "SAR": 0.0991189,
  "ScanOptions": "FS",
  "ScanningSequence": "EP",
  "SequenceName": "epfid2d1_82",
  "SequenceVariant": "SK\\SS",
  "SeriesDescription": "func_run-03_task-alignvideo_acq-ap-mb8",
  "SeriesNumber": 34,
  "ShimSetting": [4149, -7757, -7150, 563, -102, -76, -90, 57],
  "SliceThickness": 2.7,
  "SliceTiming": [0, 0.25, 0.0625, 0.3125, 0.125, 0.3775, 0.1875, 0, 0.25, 0.0625, 0.3125, 0.125, 0.3775, 0.1875, 0, 0.25, 0.0625, 0.3125, 0.125, 0.3775, 0.1875, 0, 0.25, 0.0625, 0.3125, 0.125, 0.3775, 0.1875, 0, 0.25, 0.0625, 0.3125, 0.125, 0.3775, 0.1875, 0, 0.25, 0.0625, 0.3125, 0.125, 0.3775, 0.1875, 0, 0.25, 0.0625, 0.3125, 0.125, 0.3775, 0.1875, 0, 0.25, 0.0625, 0.3125, 0.125, 0.3775, 0.1875],
  "SoftwareVersions": "syngo MR E11",
  "SpacingBetweenSlices": 2.7,
  "StationName": "AWP66112",
  "TaskName": "alignvideo",
  "TotalReadoutTime": 0.03969,
  "TxRefAmp": 256.254,
  "WipMemBlock": "52e04c7a-9553-44c7-8c50-376e0c6619a3||Sequence: R016 ve11c/master r/e634e98; Dec 19 2017 11:00:25 by eja",
  "dcmmeta_affine": [
    [-2.6783454418182373, -0.026645949110388756, 0.1554252654314041, 108.57020568847656],
    [-0.015084225684404373, 2.675419569015503, 0.201271653175354, -94.95915222167969],
    [0.15599662065505981, -0.1987890899181366, 2.687997817993164, -26.424989700317383],
    [0.0, 0.0, 0.0, 1.0]
],
  "dcmmeta_reorient_transform": [
    [0.0, -1.0, 0.0, 81.0],
    [1.0, 0.0, 0.0, 0.0],
    [0.0, 0.0, 1.0, 0.0],
    [0.0, 0.0, 0.0, 1.0]
],
  "dcmmeta_shape": [82, 82, 56, 1016],
  "dcmmeta_slice_dim": 2,
  "dcmmeta_version": 0.6,
  "global": {
    "const": {
      "AccessionNumber": "A003802",
      "AcquisitionMatrix": [82, 0, 0, 82],
      "AngioFlag": "N",
      "BitsAllocated": 16,
      "BitsStored": 16,
      "BodyPartExamined": "BRAIN",
      "Columns": 656,
      "EchoNumbers": 1,
      "EchoTime": 27.2,
      "EchoTrainLength": 82,
      "FlipAngle": 44.0,
      "HighBit": 15,
      "ImageOrientationPatient": [0.99829236324364, 0.00562230200624, 0.05814419325765, -0.0099316719121, 0.9972017970144, 0.07409411531477],
      "ImagePositionPatient": [-867.44963692164, -893.92440378403, -144.35040622799],
      "ImageType": [
        "ORIGINAL",
        "PRIMARY",
        "M",
        "MB",
        "ND",
        "NORM",
        "MOSAIC"
],
      "ImagedNucleus": "1H",
      "ImagingFrequency": 123.252137,
      "InPlanePhaseEncodingDirection": "COL",
      "MRAcquisitionType": "2D",
      "MagneticFieldStrength": 3.0,
      "Manufacturer": "SIEMENS",
      "ManufacturerModelName": "Prisma",
      "Modality": "MR",
      "NumberOfAverages": 1.0,
      "NumberOfPhaseEncodingSteps": 82,
      "PercentPhaseFieldOfView": 100.0,
      "PercentSampling": 100.0,
      "PerformedProcedureStepStartTime": "123643.179000",
      "PhotometricInterpretation": "MONOCHROME2",
      "PixelBandwidth": 3050.0,
      "PixelRepresentation": 0,
      "PixelSpacing": [2.6829268932343, 2.6829268932343],
      "ProtocolName": "func_run-03_task-alignvideo_acq-ap-mb8",
      "RepetitionTime": 460.0,
      "Rows": 656,
      "SAR": 0.0991189380661,
      "SamplesPerPixel": 1,
      "ScanOptions": "FS",
      "ScanningSequence": "EP",
      "SequenceName": "epfid2d1_82",
      "SequenceVariant": [
        "SK",
        "SS"
],
      "SeriesDescription": "func_run-03_task-alignvideo_acq-ap-mb8",
      "SeriesNumber": 34,
      "SeriesTime": "141035.242000",
      "SliceLocation": -27.136425351478,
      "SliceThickness": 2.7000000476837,
      "SmallestImagePixelValue": 0,
      "SoftwareVersions": "syngo MR E11",
      "SpacingBetweenSlices": 2.6999999883977,
      "SpecificCharacterSet": "ISO_IR 100",
      "StudyID": "1",
      "StudyTime": "123643.061000",
      "TransmitCoilName": "Body",
      "VariableFlipAngleFlag": "N",
      "WindowCenterWidthExplanation": "Algo1",
      "dBdt": 0.0},
    "slices": {}
  },
  "time": {
    "samples": {
      "AcquisitionNumber": [1, 2, 3, 4, 5, 6, 7, 8, 9, 10, 11, 12, 13, 14, 15, 16, 17, 18, 19, 20, 21, 22, 23, 24, 25, 26, 27, 28, 29, 30, 31, 32, 33, 34, 35, 36, 37, 38, 39, 40, 41, 42, 43, 44, 45, 46, 47, 48, 49, 50, 51, 52, 53, 54, 55, 56, 57, 58, 59, 60, 61, 62, 63, 64, 65, 66, 67, 68, 69, 70, 71, 72, 73, 74, 75, 76, 77, 78, 79, 80, 81, 82, 83, 84, 85, 86, 87, 88, 89, 90, 91, 92, 93, 94, 95, 96, 97, 98, 99, 100, 101, 102, 103, 104, 105, 106, 107, 108, 109, 110, 111, 112, 113, 114, 115, 116, 117, 118, 119, 120, 121, 122, 123, 124, 125, 126, 127, 128, 129, 130, 131, 132, 133, 134, 135, 136, 137, 138, 139, 140, 141, 142, 143, 144, 145, 146, 147, 148, 149, 150, 151, 152, 153, 154, 155, 156, 157, 158, 159, 160, 161, 162, 163, 164, 165, 166, 167, 168, 169, 170, 171, 172, 173, 174, 175, 176, 177, 178, 179, 180, 181, 182, 183, 184, 185, 186, 187, 188, 189, 190, 191, 192, 193, 194, 195, 196, 197, 198, 199, 200, 201, 202, 203, 204, 205, 206, 207, 208, 209, 210, 211, 212, 213, 214, 215, 216, 217, 218, 219, 220, 221, 222, 223, 224, 225, 226, 227, 228, 229, 230, 231, 232, 233, 234, 235, 236, 237, 238, 239, 240, 241, 242, 243, 244, 245, 246, 247, 248, 249, 250, 251, 252, 253, 254, 255, 256, 257, 258, 259, 260, 261, 262, 263, 264, 265, 266, 267, 268, 269, 270, 271, 272, 273, 274, 275, 276, 277, 278, 279, 280, 281, 282, 283, 284, 285, 286, 287, 288, 289, 290, 291, 292, 293, 294, 295, 296, 297, 298, 299, 300, 301, 302, 303, 304, 305, 306, 307, 308, 309, 310, 311, 312, 313, 314, 315, 316, 317, 318, 319, 320, 321, 322, 323, 324, 325, 326, 327, 328, 329, 330, 331, 332, 333, 334, 335, 336, 337, 338, 339, 340, 341, 342, 343, 344, 345, 346, 347, 348, 349, 350, 351, 352, 353, 354, 355, 356, 357, 358, 359, 360, 361, 362, 363, 364, 365, 366, 367, 368, 369, 370, 371, 372, 373, 374, 375, 376, 377, 378, 379, 380, 381, 382, 383, 384, 385, 386, 387, 388, 389, 390, 391, 392, 393, 394, 395, 396, 397, 398, 399, 400, 401, 402, 403, 404, 405, 406, 407, 408, 409, 410, 411, 412, 413, 414, 415, 416, 417, 418, 419, 420, 421, 422, 423, 424, 425, 426, 427, 428, 429, 430, 431, 432, 433, 434, 435, 436, 437, 438, 439, 440, 441, 442, 443, 444, 445, 446, 447, 448, 449, 450, 451, 452, 453, 454, 455, 456, 457, 458, 459, 460, 461, 462, 463, 464, 465, 466, 467, 468, 469, 470, 471, 472, 473, 474, 475, 476, 477, 478, 479, 480, 481, 482, 483, 484, 485, 486, 487, 488, 489, 490, 491, 492, 493, 494, 495, 496, 497, 498, 499, 500, 501, 502, 503, 504, 505, 506, 507, 508, 509, 510, 511, 512, 513, 514, 515, 516, 517, 518, 519, 520, 521, 522, 523, 524, 525, 526, 527, 528, 529, 530, 531, 532, 533, 534, 535, 536, 537, 538, 539, 540, 541, 542, 543, 544, 545, 546, 547, 548, 549, 550, 551, 552, 553, 554, 555, 556, 557, 558, 559, 560, 561, 562, 563, 564, 565, 566, 567, 568, 569, 570, 571, 572, 573, 574, 575, 576, 577, 578, 579, 580, 581, 582, 583, 584, 585, 586, 587, 588, 589, 590, 591, 592, 593, 594, 595, 596, 597, 598, 599, 600, 601, 602, 603, 604, 605, 606, 607, 608, 609, 610, 611, 612, 613, 614, 615, 616, 617, 618, 619, 620, 621, 622, 623, 624, 625, 626, 627, 628, 629, 630, 631, 632, 633, 634, 635, 636, 637, 638, 639, 640, 641, 642, 643, 644, 645, 646, 647, 648, 649, 650, 651, 652, 653, 654, 655, 656, 657, 658, 659, 660, 661, 662, 663, 664, 665, 666, 667, 668, 669, 670, 671, 672, 673, 674, 675, 676, 677, 678, 679, 680, 681, 682, 683, 684, 685, 686, 687, 688, 689, 690, 691, 692, 693, 694, 695, 696, 697, 698, 699, 700, 701, 702, 703, 704, 705, 706, 707, 708, 709, 710, 711, 712, 713, 714, 715, 716, 717, 718, 719, 720, 721, 722, 723, 724, 725, 726, 727, 728, 729, 730, 731, 732, 733, 734, 735, 736, 737, 738, 739, 740, 741, 742, 743, 744, 745, 746, 747, 748, 749, 750, 751, 752, 753, 754, 755, 756, 757, 758, 759, 760, 761, 762, 763, 764, 765, 766, 767, 768, 769, 770, 771, 772, 773, 774, 775, 776, 777, 778, 779, 780, 781, 782, 783, 784, 785, 786, 787, 788, 789, 790, 791, 792, 793, 794, 795, 796, 797, 798, 799, 800, 801, 802, 803, 804, 805, 806, 807, 808, 809, 810, 811, 812, 813, 814, 815, 816, 817, 818, 819, 820, 821, 822, 823, 824, 825, 826, 827, 828, 829, 830, 831, 832, 833, 834, 835, 836, 837, 838, 839, 840, 841, 842, 843, 844, 845, 846, 847, 848, 849, 850, 851, 852, 853, 854, 855, 856, 857, 858, 859, 860, 861, 862, 863, 864, 865, 866, 867, 868, 869, 870, 871, 872, 873, 874, 875, 876, 877, 878, 879, 880, 881, 882, 883, 884, 885, 886, 887, 888, 889, 890, 891, 892, 893, 894, 895, 896, 897, 898, 899, 900, 901, 902, 903, 904, 905, 906, 907, 908, 909, 910, 911, 912, 913, 914, 915, 916, 917, 918, 919, 920, 921, 922, 923, 924, 925, 926, 927, 928, 929, 930, 931, 932, 933, 934, 935, 936, 937, 938, 939, 940, 941, 942, 943, 944, 945, 946, 947, 948, 949, 950, 951, 952, 953, 954, 955, 956, 957, 958, 959, 960, 961, 962, 963, 964, 965, 966, 967, 968, 969, 970, 971, 972, 973, 974, 975, 976, 977, 978, 979, 980, 981, 982, 983, 984, 985, 986, 987, 988, 989, 990, 991, 992, 993, 994, 995, 996, 997, 998, 999, 1000, 1001, 1002, 1003, 1004, 1005, 1006, 1007, 1008, 1009, 1010, 1011, 1012, 1013, 1014, 1015, 1016],
      "AcquisitionTime": ["141006.127500", "141006.587500", "141007.047500", "141007.507500", "141007.967500", "141008.427500", "141008.887500", "141009.347500", "141009.807500", "141010.267500", "141010.727500", "141011.187500", "141011.647500", "141012.107500", "141012.567500", "141013.027500", "141013.487500", "141013.947500", "141014.407500", "141014.867500", "141015.327500", "141015.787500", "141016.247500", "141016.707500", "141017.167500", "141017.627500", "141018.087500", "141018.547500", "141019.007500", "141019.467500", "141019.927500", "141020.387500", "141020.847500", "141021.307500", "141021.767500", "141022.227500", "141022.687500", "141023.147500", "141023.607500", "141024.067500", "141024.527500", "141024.987500", "141025.447500", "141025.907500", "141026.367500", "141026.827500", "141027.287500", "141027.747500", "141028.207500", "141028.667500", "141029.127500", "141029.587500", "141030.047500", "141030.507500", "141030.967500", "141031.427500", "141031.887500", "141032.347500", "141032.807500", "141033.267500", "141033.727500", "141034.187500", "141034.647500", "141035.107500", "141035.567500", "141036.027500", "141036.487500", "141036.947500", "141037.407500", "141037.867500", "141038.327500", "141038.787500", "141039.247500", "141039.707500", "141040.167500", "141040.627500", "141041.087500", "141041.547500", "141042.007500", "141042.467500", "141042.927500", "141043.387500", "141043.847500", "141044.307500", "141044.767500", "141045.227500", "141045.687500", "141046.147500", "141046.607500", "141047.067500", "141047.527500", "141047.987500", "141048.447500", "141048.907500", "141049.367500", "141049.827500", "141050.287500", "141050.747500", "141051.207500", "141051.667500", "141052.127500", "141052.587500", "141053.047500", "141053.507500", "141053.967500", "141054.427500", "141054.887500", "141055.347500", "141055.807500", "141056.267500", "141056.727500", "141057.187500", "141057.647500", "141058.107500", "141058.567500", "141059.027500", "141059.487500", "141059.947500", "141100.407500", "141100.867500", "141101.327500", "141101.787500", "141102.247500", "141102.707500", "141103.167500", "141103.627500", "141104.087500", "141104.547500", "141105.007500", "141105.467500", "141105.927500", "141106.387500", "141106.847500", "141107.307500", "141107.767500", "141108.227500", "141108.687500", "141109.147500", "141109.607500", "141110.067500", "141110.527500", "141110.987500", "141111.447500", "141111.907500", "141112.367500", "141112.827500", "141113.287500", "141113.747500", "141114.207500", "141114.667500", "141115.127500", "141115.587500", "141116.047500", "141116.507500", "141116.967500", "141117.427500", "141117.887500", "141118.347500", "141118.807500", "141119.267500", "141119.727500", "141120.187500", "141120.647500", "141121.107500", "141121.567500", "141122.027500", "141122.487500", "141122.947500", "141123.407500", "141123.867500", "141124.327500", "141124.787500", "141125.247500", "141125.707500", "141126.167500", "141126.627500", "141127.087500", "141127.547500", "141128.007500", "141128.467500", "141128.927500", "141129.387500", "141129.847500", "141130.307500", "141130.767500", "141131.227500", "141131.687500", "141132.147500", "141132.607500", "141133.067500", "141133.527500", "141133.987500", "141134.447500", "141134.907500", "141135.367500", "141135.827500", "141136.287500", "141136.747500", "141137.207500", "141137.667500", "141138.127500", "141138.587500", "141139.047500", "141139.507500", "141139.967500", "141140.427500", "141140.887500", "141141.347500", "141141.807500", "141142.267500", "141142.727500", "141143.187500", "141143.647500", "141144.107500", "141144.567500", "141145.027500", "141145.487500", "141145.947500", "141146.407500", "141146.867500", "141147.327500", "141147.787500", "141148.247500", "141148.707500", "141149.167500", "141149.627500", "141150.087500", "141150.547500", "141151.007500", "141151.467500", "141151.927500", "141152.387500", "141152.847500", "141153.307500", "141153.767500", "141154.227500", "141154.687500", "141155.147500", "141155.607500", "141156.067500", "141156.527500", "141156.987500", "141157.447500", "141157.907500", "141158.367500", "141158.827500", "141159.287500", "141159.747500", "141200.207500", "141200.667500", "141201.127500", "141201.587500", "141202.047500", "141202.507500", "141202.967500", "141203.427500", "141203.887500", "141204.347500", "141204.807500", "141205.267500", "141205.727500", "141206.187500", "141206.647500", "141207.107500", "141207.567500", "141208.027500", "141208.487500", "141208.947500", "141209.407500", "141209.867500", "141210.327500", "141210.787500", "141211.247500", "141211.707500", "141212.167500", "141212.627500", "141213.087500", "141213.547500", "141214.007500", "141214.467500", "141214.927500", "141215.387500", "141215.847500", "141216.307500", "141216.767500", "141217.227500", "141217.687500", "141218.147500", "141218.607500", "141219.067500", "141219.527500", "141219.987500", "141220.447500", "141220.907500", "141221.367500", "141221.827500", "141222.287500", "141222.747500", "141223.207500", "141223.667500", "141224.127500", "141224.587500", "141225.047500", "141225.507500", "141225.967500", "141226.427500", "141226.887500", "141227.347500", "141227.807500", "141228.267500", "141228.727500", "141229.187500", "141229.647500", "141230.107500", "141230.567500", "141231.027500", "141231.487500", "141231.947500", "141232.407500", "141232.867500", "141233.327500", "141233.787500", "141234.247500", "141234.707500", "141235.167500", "141235.627500", "141236.087500", "141236.547500", "141237.007500", "141237.467500", "141237.927500", "141238.387500", "141238.847500", "141239.307500", "141239.767500", "141240.227500", "141240.687500", "141241.147500", "141241.607500", "141242.067500", "141242.527500", "141242.987500", "141243.447500", "141243.907500", "141244.367500", "141244.827500", "141245.287500", "141245.747500", "141246.207500", "141246.667500", "141247.127500", "141247.587500", "141248.047500", "141248.507500", "141248.967500", "141249.427500", "141249.887500", "141250.347500", "141250.807500", "141251.267500", "141251.727500", "141252.187500", "141252.647500", "141253.107500", "141253.567500", "141254.027500", "141254.487500", "141254.947500", "141255.407500", "141255.867500", "141256.327500", "141256.787500", "141257.247500", "141257.707500", "141258.167500", "141258.627500", "141259.087500", "141259.547500", "141300.007500", "141300.467500", "141300.927500", "141301.387500", "141301.847500", "141302.307500", "141302.767500", "141303.227500", "141303.687500", "141304.147500", "141304.607500", "141305.067500", "141305.527500", "141305.987500", "141306.447500", "141306.907500", "141307.367500", "141307.827500", "141308.287500", "141308.747500", "141309.207500", "141309.667500", "141310.127500", "141310.587500", "141311.047500", "141311.507500", "141311.967500", "141312.427500", "141312.887500", "141313.347500", "141313.807500", "141314.267500", "141314.727500", "141315.187500", "141315.647500", "141316.107500", "141316.567500", "141317.027500", "141317.487500", "141317.947500", "141318.407500", "141318.867500", "141319.327500", "141319.787500", "141320.247500", "141320.707500", "141321.167500", "141321.627500", "141322.087500", "141322.547500", "141323.007500", "141323.467500", "141323.927500", "141324.387500", "141324.847500", "141325.307500", "141325.767500", "141326.227500", "141326.687500", "141327.147500", "141327.607500", "141328.067500", "141328.527500", "141328.987500", "141329.447500", "141329.907500", "141330.367500", "141330.827500", "141331.287500", "141331.747500", "141332.207500", "141332.667500", "141333.127500", "141333.587500", "141334.047500", "141334.507500", "141334.967500", "141335.427500", "141335.887500", "141336.347500", "141336.807500", "141337.267500", "141337.727500", "141338.187500", "141338.647500", "141339.107500", "141339.567500", "141340.027500", "141340.487500", "141340.947500", "141341.407500", "141341.867500", "141342.327500", "141342.787500", "141343.247500", "141343.707500", "141344.167500", "141344.627500", "141345.087500", "141345.547500", "141346.007500", "141346.467500", "141346.927500", "141347.387500", "141347.847500", "141348.307500", "141348.767500", "141349.227500", "141349.687500", "141350.147500", "141350.607500", "141351.067500", "141351.527500", "141351.987500", "141352.447500", "141352.907500", "141353.367500", "141353.827500", "141354.287500", "141354.747500", "141355.207500", "141355.667500", "141356.127500", "141356.587500", "141357.047500", "141357.507500", "141357.967500", "141358.427500", "141358.887500", "141359.347500", "141359.807500", "141400.267500", "141400.727500", "141401.187500", "141401.647500", "141402.107500", "141402.567500", "141403.027500", "141403.487500", "141403.947500", "141404.407500", "141404.867500", "141405.327500", "141405.787500", "141406.247500", "141406.707500", "141407.167500", "141407.627500", "141408.087500", "141408.547500", "141409.007500", "141409.467500", "141409.927500", "141410.387500", "141410.847500", "141411.307500", "141411.767500", "141412.227500", "141412.687500", "141413.147500", "141413.607500", "141414.067500", "141414.527500", "141414.987500", "141415.447500", "141415.907500", "141416.367500", "141416.827500", "141417.287500", "141417.747500", "141418.207500", "141418.667500", "141419.127500", "141419.587500", "141420.047500", "141420.507500", "141420.967500", "141421.427500", "141421.887500", "141422.347500", "141422.807500", "141423.267500", "141423.727500", "141424.187500", "141424.647500", "141425.107500", "141425.567500", "141426.027500", "141426.487500", "141426.947500", "141427.407500", "141427.867500", "141428.327500", "141428.787500", "141429.247500", "141429.707500", "141430.167500", "141430.627500", "141431.087500", "141431.547500", "141432.007500", "141432.467500", "141432.927500", "141433.387500", "141433.847500", "141434.307500", "141434.767500", "141435.227500", "141435.687500", "141436.147500", "141436.607500", "141437.067500", "141437.527500", "141437.987500", "141438.447500", "141438.907500", "141439.367500", "141439.827500", "141440.287500", "141440.747500", "141441.207500", "141441.667500", "141442.127500", "141442.587500", "141443.047500", "141443.507500", "141443.967500", "141444.427500", "141444.887500", "141445.347500", "141445.807500", "141446.267500", "141446.727500", "141447.187500", "141447.647500", "141448.107500", "141448.567500", "141449.027500", "141449.487500", "141449.947500", "141450.407500", "141450.867500", "141451.327500", "141451.787500", "141452.247500", "141452.707500", "141453.167500", "141453.627500", "141454.087500", "141454.547500", "141455.007500", "141455.467500", "141455.927500", "141456.387500", "141456.847500", "141457.307500", "141457.767500", "141458.227500", "141458.687500", "141459.147500", "141459.607500", "141500.067500", "141500.527500", "141500.987500", "141501.447500", "141501.907500", "141502.367500", "141502.827500", "141503.287500", "141503.747500", "141504.207500", "141504.667500", "141505.127500", "141505.587500", "141506.047500", "141506.507500", "141506.967500", "141507.427500", "141507.887500", "141508.347500", "141508.807500", "141509.267500", "141509.727500", "141510.187500", "141510.647500", "141511.107500", "141511.567500", "141512.027500", "141512.487500", "141512.947500", "141513.407500", "141513.867500", "141514.327500", "141514.787500", "141515.247500", "141515.707500", "141516.167500", "141516.627500", "141517.087500", "141517.547500", "141518.007500", "141518.467500", "141518.927500", "141519.387500", "141519.847500", "141520.307500", "141520.767500", "141521.227500", "141521.687500", "141522.147500", "141522.607500", "141523.067500", "141523.527500", "141523.987500", "141524.447500", "141524.907500", "141525.367500", "141525.827500", "141526.287500", "141526.747500", "141527.207500", "141527.667500", "141528.127500", "141528.587500", "141529.047500", "141529.507500", "141529.967500", "141530.427500", "141530.887500", "141531.347500", "141531.807500", "141532.267500", "141532.727500", "141533.187500", "141533.647500", "141534.107500", "141534.567500", "141535.027500", "141535.487500", "141535.947500", "141536.407500", "141536.867500", "141537.327500", "141537.787500", "141538.247500", "141538.707500", "141539.167500", "141539.627500", "141540.087500", "141540.547500", "141541.007500", "141541.467500", "141541.927500", "141542.387500", "141542.847500", "141543.307500", "141543.767500", "141544.227500", "141544.687500", "141545.147500", "141545.607500", "141546.067500", "141546.527500", "141546.987500", "141547.447500", "141547.907500", "141548.367500", "141548.827500", "141549.287500", "141549.747500", "141550.207500", "141550.667500", "141551.127500", "141551.587500", "141552.047500", "141552.507500", "141552.967500", "141553.427500", "141553.887500", "141554.347500", "141554.807500", "141555.267500", "141555.727500", "141556.187500", "141556.647500", "141557.107500", "141557.567500", "141558.027500", "141558.487500", "141558.947500", "141559.407500", "141559.867500", "141600.327500", "141600.787500", "141601.247500", "141601.707500", "141602.167500", "141602.627500", "141603.087500", "141603.547500", "141604.007500", "141604.467500", "141604.927500", "141605.387500", "141605.847500", "141606.307500", "141606.767500", "141607.227500", "141607.687500", "141608.147500", "141608.607500", "141609.067500", "141609.527500", "141609.987500", "141610.447500", "141610.907500", "141611.367500", "141611.827500", "141612.287500", "141612.747500", "141613.207500", "141613.667500", "141614.127500", "141614.587500", "141615.047500", "141615.507500", "141615.967500", "141616.427500", "141616.887500", "141617.347500", "141617.807500", "141618.267500", "141618.727500", "141619.187500", "141619.647500", "141620.107500", "141620.567500", "141621.027500", "141621.487500", "141621.947500", "141622.407500", "141622.867500", "141623.327500", "141623.787500", "141624.247500", "141624.707500", "141625.167500", "141625.627500", "141626.087500", "141626.547500", "141627.007500", "141627.467500", "141627.927500", "141628.387500", "141628.847500", "141629.307500", "141629.767500", "141630.227500", "141630.687500", "141631.147500", "141631.607500", "141632.067500", "141632.527500", "141632.987500", "141633.447500", "141633.907500", "141634.367500", "141634.827500", "141635.287500", "141635.747500", "141636.207500", "141636.667500", "141637.127500", "141637.587500", "141638.047500", "141638.507500", "141638.967500", "141639.427500", "141639.887500", "141640.347500", "141640.807500", "141641.267500", "141641.727500", "141642.187500", "141642.647500", "141643.107500", "141643.567500", "141644.027500", "141644.487500", "141644.947500", "141645.407500", "141645.867500", "141646.327500", "141646.787500", "141647.247500", "141647.707500", "141648.167500", "141648.627500", "141649.087500", "141649.547500", "141650.007500", "141650.467500", "141650.927500", "141651.387500", "141651.847500", "141652.307500", "141652.767500", "141653.227500", "141653.687500", "141654.147500", "141654.607500", "141655.067500", "141655.527500", "141655.987500", "141656.447500", "141656.907500", "141657.367500", "141657.827500", "141658.287500", "141658.747500", "141659.207500", "141659.667500", "141700.127500", "141700.587500", "141701.047500", "141701.507500", "141701.967500", "141702.427500", "141702.887500", "141703.347500", "141703.807500", "141704.267500", "141704.727500", "141705.187500", "141705.647500", "141706.107500", "141706.567500", "141707.027500", "141707.487500", "141707.947500", "141708.407500", "141708.867500", "141709.327500", "141709.787500", "141710.247500", "141710.707500", "141711.167500", "141711.627500", "141712.087500", "141712.547500", "141713.007500", "141713.467500", "141713.927500", "141714.387500", "141714.847500", "141715.307500", "141715.767500", "141716.227500", "141716.687500", "141717.147500", "141717.607500", "141718.067500", "141718.527500", "141718.987500", "141719.447500", "141719.907500", "141720.367500", "141720.827500", "141721.287500", "141721.747500", "141722.207500", "141722.667500", "141723.127500", "141723.587500", "141724.047500", "141724.507500", "141724.967500", "141725.427500", "141725.887500", "141726.347500", "141726.807500", "141727.267500", "141727.727500", "141728.187500", "141728.647500", "141729.107500", "141729.567500", "141730.027500", "141730.487500", "141730.947500", "141731.407500", "141731.867500", "141732.327500", "141732.787500", "141733.247500", "141733.707500", "141734.167500", "141734.627500", "141735.087500", "141735.547500", "141736.007500", "141736.467500", "141736.927500", "141737.387500", "141737.847500", "141738.307500", "141738.767500", "141739.227500", "141739.687500", "141740.147500", "141740.607500", "141741.067500", "141741.527500", "141741.987500", "141742.447500", "141742.907500", "141743.367500", "141743.827500", "141744.287500", "141744.747500", "141745.207500", "141745.667500", "141746.127500", "141746.587500", "141747.047500", "141747.507500", "141747.967500", "141748.427500", "141748.887500", "141749.347500", "141749.807500", "141750.267500", "141750.727500", "141751.187500", "141751.647500", "141752.107500", "141752.567500", "141753.027500"],
