{
  "AcquisitionMatrixPE": 82,
  "AcquisitionNumber": 1,
  "AcquisitionTime": "13:19:5.877500",
  "BandwidthPerPixelPhaseEncode": 24.888,
  "BaseResolution": 82,
  "BodyPartExamined": "BRAIN",
  "ConsistencyInfo": "N4_VE11C_LATEST_20160120",
  "ConversionSoftware": "dcm2niix",
  "ConversionSoftwareVersion": "v1.0.20201102",
  "DerivedVendorReportedEchoSpacing": 0.00049,
  "DeviceSerialNumber": "66112",
  "DwellTime": 2e-06,
  "EchoTime": 0.0272,
  "EchoTrainLength": 82,
  "EffectiveEchoSpacing": 0.00049,
  "FlipAngle": 44,
  "ImageComments": "Unaliased MB8/PE3",
  "ImageOrientationPatientDICOM": [0.999291, -0.0017273, 0.0376102, -0.00174414, 0.995751, 0.0920724],
  "ImageType": [
    "ORIGINAL",
    "PRIMARY",
    "M",
    "MB",
    "ND",
    "NORM",
    "MOSAIC"
],
  "ImagingFrequency": 123.252,
  "InPlanePhaseEncodingDirectionDICOM": "COL",
  "InstitutionAddress": "Maynard 3,Hanover,NH,US,03755",
  "InstitutionName": "Dartmouth College - PBS",
  "InstitutionalDepartmentName": "Department",
  "MRAcquisitionType": "2D",
  "MagneticFieldStrength": 3,
  "Manufacturer": "Siemens",
  "ManufacturersModelName": "Prisma",
  "Modality": "MR",
  "MultibandAccelerationFactor": 8,
  "PartialFourier": 1,
  "PatientPosition": "HFS",
  "PercentPhaseFOV": 100,
  "PercentSampling": 100,
  "PhaseEncodingDirection": "j-",
  "PhaseEncodingSteps": 82,
  "PhaseResolution": 1,
  "PixelBandwidth": 3050,
  "ProcedureStepDescription": "Wager_Wager^1076_spacetop",
  "ProtocolName": "func_run-03_task-social_acq-ap-mb8",
  "PulseSequenceDetails": "%CustomerSeq%\\cmrr_mbep2d_bold",
  "ReceiveCoilActiveElements": "HEA;HEP",
  "ReceiveCoilName": "Head_32",
  "ReconMatrixPE": 82,
  "RepetitionTime": 0.46,
  "SAR": 0.0990316,
  "ScanOptions": "FS",
  "ScanningSequence": "EP",
  "SequenceName": "epfid2d1_82",
  "SequenceVariant": "SK\\SS",
  "SeriesDescription": "func_run-03_task-social_acq-ap-mb8",
  "SeriesNumber": 16,
  "ShimSetting": [4150, -7762, -7152, 561, -100, -91, -88, 54],
  "SliceThickness": 2.7,
  "SliceTiming": [0, 0.2525, 0.0625, 0.315, 0.1275, 0.3775, 0.19, 0, 0.2525, 0.0625, 0.315, 0.1275, 0.3775, 0.19, 0, 0.2525, 0.0625, 0.315, 0.1275, 0.3775, 0.19, 0, 0.2525, 0.0625, 0.315, 0.1275, 0.3775, 0.19, 0, 0.2525, 0.0625, 0.315, 0.1275, 0.3775, 0.19, 0, 0.2525, 0.0625, 0.315, 0.1275, 0.3775, 0.19, 0, 0.2525, 0.0625, 0.315, 0.1275, 0.3775, 0.19, 0, 0.2525, 0.0625, 0.315, 0.1275, 0.3775, 0.19],
  "SoftwareVersions": "syngo MR E11",
  "SpacingBetweenSlices": 2.7,
  "StationName": "AWP66112",
  "TaskName": "social",
  "TotalReadoutTime": 0.03969,
  "TxRefAmp": 256.254,
  "WipMemBlock": "617e45e6-185a-43b0-bfd7-d41ff04dcebb||Sequence: R016 ve11c/master r/e634e98; Dec 19 2017 11:00:25 by eja",
  "dcmmeta_affine": [
    [-2.6810247898101807, -0.004679391160607338, 0.10154540836811066, 109.68830108642578],
    [0.0046342164278030396, 2.6715266704559326, 0.24859626591205597, -98.03394317626953],
    [0.10090538114309311, -0.24702343344688416, 2.686612844467163, -24.633638381958008],
    [0.0, 0.0, 0.0, 1.0]
],
  "dcmmeta_reorient_transform": [
    [0.0, -1.0, 0.0, 81.0],
    [1.0, 0.0, 0.0, 0.0],
    [0.0, 0.0, 1.0, 0.0],
    [0.0, 0.0, 0.0, 1.0]
],
  "dcmmeta_shape": [82, 82, 56, 872],
  "dcmmeta_slice_dim": 2,
  "dcmmeta_version": 0.6,
  "global": {
    "const": {
      "AccessionNumber": "A003802",
      "AcquisitionMatrix": [82, 0, 0, 82],
      "AngioFlag": "N",
      "BitsAllocated": 16,
      "BitsStored": 16,
      "BodyPartExamined": "BRAIN",
      "Columns": 656,
      "EchoNumbers": 1,
      "EchoTime": 27.2,
      "EchoTrainLength": 82,
      "FlipAngle": 44.0,
      "HighBit": 15,
      "ImageOrientationPatient": [0.9992909937986, -0.0017272987489, 0.03761018681211, -0.0017441365779, 0.99575079036368, 0.09207237087042],
      "ImagePositionPatient": [-877.420365906, -883.75781479144, -144.49810823916],
      "ImageType": [
        "ORIGINAL",
        "PRIMARY",
        "M",
        "MB",
        "ND",
        "NORM",
        "MOSAIC"
],
      "ImagedNucleus": "1H",
      "ImagingFrequency": 123.252137,
      "InPlanePhaseEncodingDirection": "COL",
      "MRAcquisitionType": "2D",
      "MagneticFieldStrength": 3.0,
      "Manufacturer": "SIEMENS",
      "ManufacturerModelName": "Prisma",
      "Modality": "MR",
      "NumberOfAverages": 1.0,
      "NumberOfPhaseEncodingSteps": 82,
      "PercentPhaseFieldOfView": 100.0,
      "PercentSampling": 100.0,
      "PerformedProcedureStepStartTime": "123643.179000",
      "PhotometricInterpretation": "MONOCHROME2",
      "PixelBandwidth": 3050.0,
      "PixelRepresentation": 0,
      "PixelSpacing": [2.6829268932343, 2.6829268932343],
      "ProtocolName": "func_run-03_task-social_acq-ap-mb8",
      "RepetitionTime": 460.0,
      "Rows": 656,
      "SAR": 0.0990316207884,
      "SamplesPerPixel": 1,
      "ScanOptions": "FS",
      "ScanningSequence": "EP",
      "SequenceName": "epfid2d1_82",
      "SequenceVariant": [
        "SK",
        "SS"
],
      "SeriesDescription": "func_run-03_task-social_acq-ap-mb8",
      "SeriesNumber": 16,
      "SeriesTime": "131935.222000",
      "SliceLocation": -29.412435583496,
      "SliceThickness": 2.7000000476837,
      "SmallestImagePixelValue": 0,
      "SoftwareVersions": "syngo MR E11",
      "SpacingBetweenSlices": 2.7000000562562,
      "SpecificCharacterSet": "ISO_IR 100",
      "StudyID": "1",
      "StudyTime": "123643.061000",
      "TransmitCoilName": "Body",
      "VariableFlipAngleFlag": "N",
      "WindowCenterWidthExplanation": "Algo1",
      "dBdt": 0.0},
    "slices": {}
  },
  "time": {
    "samples": {
      "AcquisitionNumber": [1, 2, 3, 4, 5, 6, 7, 8, 9, 10, 11, 12, 13, 14, 15, 16, 17, 18, 19, 20, 21, 22, 23, 24, 25, 26, 27, 28, 29, 30, 31, 32, 33, 34, 35, 36, 37, 38, 39, 40, 41, 42, 43, 44, 45, 46, 47, 48, 49, 50, 51, 52, 53, 54, 55, 56, 57, 58, 59, 60, 61, 62, 63, 64, 65, 66, 67, 68, 69, 70, 71, 72, 73, 74, 75, 76, 77, 78, 79, 80, 81, 82, 83, 84, 85, 86, 87, 88, 89, 90, 91, 92, 93, 94, 95, 96, 97, 98, 99, 100, 101, 102, 103, 104, 105, 106, 107, 108, 109, 110, 111, 112, 113, 114, 115, 116, 117, 118, 119, 120, 121, 122, 123, 124, 125, 126, 127, 128, 129, 130, 131, 132, 133, 134, 135, 136, 137, 138, 139, 140, 141, 142, 143, 144, 145, 146, 147, 148, 149, 150, 151, 152, 153, 154, 155, 156, 157, 158, 159, 160, 161, 162, 163, 164, 165, 166, 167, 168, 169, 170, 171, 172, 173, 174, 175, 176, 177, 178, 179, 180, 181, 182, 183, 184, 185, 186, 187, 188, 189, 190, 191, 192, 193, 194, 195, 196, 197, 198, 199, 200, 201, 202, 203, 204, 205, 206, 207, 208, 209, 210, 211, 212, 213, 214, 215, 216, 217, 218, 219, 220, 221, 222, 223, 224, 225, 226, 227, 228, 229, 230, 231, 232, 233, 234, 235, 236, 237, 238, 239, 240, 241, 242, 243, 244, 245, 246, 247, 248, 249, 250, 251, 252, 253, 254, 255, 256, 257, 258, 259, 260, 261, 262, 263, 264, 265, 266, 267, 268, 269, 270, 271, 272, 273, 274, 275, 276, 277, 278, 279, 280, 281, 282, 283, 284, 285, 286, 287, 288, 289, 290, 291, 292, 293, 294, 295, 296, 297, 298, 299, 300, 301, 302, 303, 304, 305, 306, 307, 308, 309, 310, 311, 312, 313, 314, 315, 316, 317, 318, 319, 320, 321, 322, 323, 324, 325, 326, 327, 328, 329, 330, 331, 332, 333, 334, 335, 336, 337, 338, 339, 340, 341, 342, 343, 344, 345, 346, 347, 348, 349, 350, 351, 352, 353, 354, 355, 356, 357, 358, 359, 360, 361, 362, 363, 364, 365, 366, 367, 368, 369, 370, 371, 372, 373, 374, 375, 376, 377, 378, 379, 380, 381, 382, 383, 384, 385, 386, 387, 388, 389, 390, 391, 392, 393, 394, 395, 396, 397, 398, 399, 400, 401, 402, 403, 404, 405, 406, 407, 408, 409, 410, 411, 412, 413, 414, 415, 416, 417, 418, 419, 420, 421, 422, 423, 424, 425, 426, 427, 428, 429, 430, 431, 432, 433, 434, 435, 436, 437, 438, 439, 440, 441, 442, 443, 444, 445, 446, 447, 448, 449, 450, 451, 452, 453, 454, 455, 456, 457, 458, 459, 460, 461, 462, 463, 464, 465, 466, 467, 468, 469, 470, 471, 472, 473, 474, 475, 476, 477, 478, 479, 480, 481, 482, 483, 484, 485, 486, 487, 488, 489, 490, 491, 492, 493, 494, 495, 496, 497, 498, 499, 500, 501, 502, 503, 504, 505, 506, 507, 508, 509, 510, 511, 512, 513, 514, 515, 516, 517, 518, 519, 520, 521, 522, 523, 524, 525, 526, 527, 528, 529, 530, 531, 532, 533, 534, 535, 536, 537, 538, 539, 540, 541, 542, 543, 544, 545, 546, 547, 548, 549, 550, 551, 552, 553, 554, 555, 556, 557, 558, 559, 560, 561, 562, 563, 564, 565, 566, 567, 568, 569, 570, 571, 572, 573, 574, 575, 576, 577, 578, 579, 580, 581, 582, 583, 584, 585, 586, 587, 588, 589, 590, 591, 592, 593, 594, 595, 596, 597, 598, 599, 600, 601, 602, 603, 604, 605, 606, 607, 608, 609, 610, 611, 612, 613, 614, 615, 616, 617, 618, 619, 620, 621, 622, 623, 624, 625, 626, 627, 628, 629, 630, 631, 632, 633, 634, 635, 636, 637, 638, 639, 640, 641, 642, 643, 644, 645, 646, 647, 648, 649, 650, 651, 652, 653, 654, 655, 656, 657, 658, 659, 660, 661, 662, 663, 664, 665, 666, 667, 668, 669, 670, 671, 672, 673, 674, 675, 676, 677, 678, 679, 680, 681, 682, 683, 684, 685, 686, 687, 688, 689, 690, 691, 692, 693, 694, 695, 696, 697, 698, 699, 700, 701, 702, 703, 704, 705, 706, 707, 708, 709, 710, 711, 712, 713, 714, 715, 716, 717, 718, 719, 720, 721, 722, 723, 724, 725, 726, 727, 728, 729, 730, 731, 732, 733, 734, 735, 736, 737, 738, 739, 740, 741, 742, 743, 744, 745, 746, 747, 748, 749, 750, 751, 752, 753, 754, 755, 756, 757, 758, 759, 760, 761, 762, 763, 764, 765, 766, 767, 768, 769, 770, 771, 772, 773, 774, 775, 776, 777, 778, 779, 780, 781, 782, 783, 784, 785, 786, 787, 788, 789, 790, 791, 792, 793, 794, 795, 796, 797, 798, 799, 800, 801, 802, 803, 804, 805, 806, 807, 808, 809, 810, 811, 812, 813, 814, 815, 816, 817, 818, 819, 820, 821, 822, 823, 824, 825, 826, 827, 828, 829, 830, 831, 832, 833, 834, 835, 836, 837, 838, 839, 840, 841, 842, 843, 844, 845, 846, 847, 848, 849, 850, 851, 852, 853, 854, 855, 856, 857, 858, 859, 860, 861, 862, 863, 864, 865, 866, 867, 868, 869, 870, 871, 872],
      "AcquisitionTime": ["131905.877500", "131906.337500", "131906.797500", "131907.257500", "131907.717500", "131908.177500", "131908.637500", "131909.097500", "131909.557500", "131910.017500", "131910.477500", "131910.937500", "131911.397500", "131911.857500", "131912.317500", "131912.777500", "131913.237500", "131913.697500", "131914.157500", "131914.617500", "131915.077500", "131915.537500", "131915.997500", "131916.457500", "131916.917500", "131917.377500", "131917.837500", "131918.297500", "131918.757500", "131919.217500", "131919.677500", "131920.137500", "131920.597500", "131921.057500", "131921.517500", "131921.977500", "131922.437500", "131922.897500", "131923.357500", "131923.817500", "131924.277500", "131924.737500", "131925.197500", "131925.657500", "131926.117500", "131926.577500", "131927.037500", "131927.497500", "131927.957500", "131928.417500", "131928.877500", "131929.337500", "131929.797500", "131930.257500", "131930.717500", "131931.177500", "131931.637500", "131932.097500", "131932.557500", "131933.017500", "131933.477500", "131933.937500", "131934.397500", "131934.857500", "131935.317500", "131935.777500", "131936.237500", "131936.697500", "131937.157500", "131937.617500", "131938.077500", "131938.537500", "131938.997500", "131939.457500", "131939.917500", "131940.377500", "131940.837500", "131941.297500", "131941.757500", "131942.217500", "131942.677500", "131943.137500", "131943.597500", "131944.057500", "131944.517500", "131944.977500", "131945.437500", "131945.897500", "131946.357500", "131946.817500", "131947.277500", "131947.737500", "131948.197500", "131948.657500", "131949.117500", "131949.577500", "131950.037500", "131950.497500", "131950.957500", "131951.417500", "131951.877500", "131952.337500", "131952.797500", "131953.257500", "131953.717500", "131954.177500", "131954.637500", "131955.097500", "131955.557500", "131956.017500", "131956.477500", "131956.937500", "131957.397500", "131957.857500", "131958.317500", "131958.777500", "131959.237500", "131959.697500", "132000.157500", "132000.617500", "132001.077500", "132001.537500", "132001.997500", "132002.457500", "132002.917500", "132003.377500", "132003.837500", "132004.297500", "132004.757500", "132005.217500", "132005.677500", "132006.137500", "132006.597500", "132007.057500", "132007.517500", "132007.977500", "132008.437500", "132008.897500", "132009.357500", "132009.817500", "132010.277500", "132010.737500", "132011.197500", "132011.657500", "132012.117500", "132012.577500", "132013.037500", "132013.497500", "132013.957500", "132014.417500", "132014.877500", "132015.337500", "132015.797500", "132016.257500", "132016.717500", "132017.177500", "132017.637500", "132018.097500", "132018.557500", "132019.017500", "132019.477500", "132019.937500", "132020.397500", "132020.857500", "132021.317500", "132021.777500", "132022.237500", "132022.697500", "132023.157500", "132023.617500", "132024.077500", "132024.537500", "132024.997500", "132025.457500", "132025.917500", "132026.377500", "132026.837500", "132027.297500", "132027.757500", "132028.217500", "132028.677500", "132029.137500", "132029.597500", "132030.057500", "132030.517500", "132030.977500", "132031.437500", "132031.897500", "132032.357500", "132032.817500", "132033.277500", "132033.737500", "132034.197500", "132034.657500", "132035.117500", "132035.577500", "132036.037500", "132036.497500", "132036.957500", "132037.417500", "132037.877500", "132038.337500", "132038.797500", "132039.257500", "132039.717500", "132040.177500", "132040.637500", "132041.097500", "132041.557500", "132042.017500", "132042.477500", "132042.937500", "132043.397500", "132043.857500", "132044.317500", "132044.777500", "132045.237500", "132045.697500", "132046.157500", "132046.617500", "132047.077500", "132047.537500", "132047.997500", "132048.457500", "132048.917500", "132049.377500", "132049.837500", "132050.297500", "132050.757500", "132051.217500", "132051.677500", "132052.137500", "132052.597500", "132053.057500", "132053.517500", "132053.977500", "132054.437500", "132054.897500", "132055.357500", "132055.817500", "132056.277500", "132056.737500", "132057.197500", "132057.657500", "132058.117500", "132058.577500", "132059.037500", "132059.497500", "132059.957500", "132100.417500", "132100.877500", "132101.337500", "132101.797500", "132102.257500", "132102.717500", "132103.177500", "132103.637500", "132104.097500", "132104.557500", "132105.017500", "132105.477500", "132105.937500", "132106.397500", "132106.857500", "132107.317500", "132107.777500", "132108.237500", "132108.697500", "132109.157500", "132109.617500", "132110.077500", "132110.537500", "132110.997500", "132111.457500", "132111.917500", "132112.377500", "132112.837500", "132113.297500", "132113.757500", "132114.217500", "132114.677500", "132115.137500", "132115.597500", "132116.057500", "132116.517500", "132116.977500", "132117.437500", "132117.897500", "132118.357500", "132118.817500", "132119.277500", "132119.737500", "132120.197500", "132120.657500", "132121.117500", "132121.577500", "132122.037500", "132122.497500", "132122.957500", "132123.417500", "132123.877500", "132124.337500", "132124.797500", "132125.257500", "132125.717500", "132126.177500", "132126.637500", "132127.097500", "132127.557500", "132128.017500", "132128.477500", "132128.937500", "132129.397500", "132129.857500", "132130.317500", "132130.777500", "132131.237500", "132131.697500", "132132.157500", "132132.617500", "132133.077500", "132133.537500", "132133.997500", "132134.457500", "132134.917500", "132135.377500", "132135.837500", "132136.297500", "132136.757500", "132137.217500", "132137.677500", "132138.137500", "132138.597500", "132139.057500", "132139.517500", "132139.977500", "132140.437500", "132140.897500", "132141.357500", "132141.817500", "132142.277500", "132142.737500", "132143.197500", "132143.657500", "132144.117500", "132144.577500", "132145.037500", "132145.497500", "132145.957500", "132146.417500", "132146.877500", "132147.337500", "132147.797500", "132148.257500", "132148.717500", "132149.177500", "132149.637500", "132150.097500", "132150.557500", "132151.017500", "132151.477500", "132151.937500", "132152.397500", "132152.857500", "132153.317500", "132153.777500", "132154.237500", "132154.697500", "132155.157500", "132155.617500", "132156.077500", "132156.537500", "132156.997500", "132157.457500", "132157.917500", "132158.377500", "132158.837500", "132159.297500", "132159.757500", "132200.217500", "132200.677500", "132201.137500", "132201.597500", "132202.057500", "132202.517500", "132202.977500", "132203.437500", "132203.897500", "132204.357500", "132204.817500", "132205.277500", "132205.737500", "132206.197500", "132206.657500", "132207.117500", "132207.577500", "132208.037500", "132208.497500", "132208.957500", "132209.417500", "132209.877500", "132210.337500", "132210.797500", "132211.257500", "132211.717500", "132212.177500", "132212.637500", "132213.097500", "132213.557500", "132214.017500", "132214.477500", "132214.937500", "132215.397500", "132215.857500", "132216.317500", "132216.777500", "132217.237500", "132217.697500", "132218.157500", "132218.617500", "132219.077500", "132219.537500", "132219.997500", "132220.457500", "132220.917500", "132221.377500", "132221.837500", "132222.297500", "132222.757500", "132223.217500", "132223.677500", "132224.137500", "132224.597500", "132225.057500", "132225.517500", "132225.977500", "132226.437500", "132226.897500", "132227.357500", "132227.817500", "132228.277500", "132228.737500", "132229.197500", "132229.657500", "132230.117500", "132230.577500", "132231.037500", "132231.497500", "132231.957500", "132232.417500", "132232.877500", "132233.337500", "132233.797500", "132234.257500", "132234.717500", "132235.177500", "132235.637500", "132236.097500", "132236.557500", "132237.017500", "132237.477500", "132237.937500", "132238.397500", "132238.857500", "132239.317500", "132239.777500", "132240.237500", "132240.697500", "132241.157500", "132241.617500", "132242.077500", "132242.537500", "132242.997500", "132243.457500", "132243.917500", "132244.377500", "132244.837500", "132245.297500", "132245.757500", "132246.217500", "132246.677500", "132247.137500", "132247.597500", "132248.057500", "132248.517500", "132248.977500", "132249.437500", "132249.897500", "132250.357500", "132250.817500", "132251.277500", "132251.737500", "132252.197500", "132252.657500", "132253.117500", "132253.577500", "132254.037500", "132254.497500", "132254.957500", "132255.417500", "132255.877500", "132256.337500", "132256.797500", "132257.257500", "132257.717500", "132258.177500", "132258.637500", "132259.097500", "132259.557500", "132300.017500", "132300.477500", "132300.937500", "132301.397500", "132301.857500", "132302.317500", "132302.777500", "132303.237500", "132303.697500", "132304.157500", "132304.617500", "132305.077500", "132305.537500", "132305.997500", "132306.457500", "132306.917500", "132307.377500", "132307.837500", "132308.297500", "132308.757500", "132309.217500", "132309.677500", "132310.137500", "132310.597500", "132311.057500", "132311.517500", "132311.977500", "132312.437500", "132312.897500", "132313.357500", "132313.817500", "132314.277500", "132314.737500", "132315.197500", "132315.657500", "132316.117500", "132316.577500", "132317.037500", "132317.497500", "132317.957500", "132318.417500", "132318.877500", "132319.337500", "132319.797500", "132320.257500", "132320.717500", "132321.177500", "132321.637500", "132322.097500", "132322.557500", "132323.017500", "132323.477500", "132323.937500", "132324.397500", "132324.857500", "132325.317500", "132325.777500", "132326.237500", "132326.697500", "132327.157500", "132327.617500", "132328.077500", "132328.537500", "132328.997500", "132329.457500", "132329.917500", "132330.377500", "132330.837500", "132331.297500", "132331.757500", "132332.217500", "132332.677500", "132333.137500", "132333.597500", "132334.057500", "132334.517500", "132334.977500", "132335.437500", "132335.897500", "132336.357500", "132336.817500", "132337.277500", "132337.737500", "132338.197500", "132338.657500", "132339.117500", "132339.577500", "132340.037500", "132340.497500", "132340.957500", "132341.417500", "132341.877500", "132342.337500", "132342.797500", "132343.257500", "132343.717500", "132344.177500", "132344.637500", "132345.097500", "132345.557500", "132346.017500", "132346.477500", "132346.937500", "132347.397500", "132347.857500", "132348.317500", "132348.777500", "132349.237500", "132349.697500", "132350.157500", "132350.617500", "132351.077500", "132351.537500", "132351.997500", "132352.457500", "132352.917500", "132353.377500", "132353.837500", "132354.297500", "132354.757500", "132355.217500", "132355.677500", "132356.137500", "132356.597500", "132357.057500", "132357.517500", "132357.977500", "132358.437500", "132358.897500", "132359.357500", "132359.817500", "132400.277500", "132400.737500", "132401.197500", "132401.657500", "132402.117500", "132402.577500", "132403.037500", "132403.497500", "132403.957500", "132404.417500", "132404.877500", "132405.337500", "132405.797500", "132406.257500", "132406.717500", "132407.177500", "132407.637500", "132408.097500", "132408.557500", "132409.017500", "132409.477500", "132409.937500", "132410.397500", "132410.857500", "132411.317500", "132411.777500", "132412.237500", "132412.697500", "132413.157500", "132413.617500", "132414.077500", "132414.537500", "132414.997500", "132415.457500", "132415.917500", "132416.377500", "132416.837500", "132417.297500", "132417.757500", "132418.217500", "132418.677500", "132419.137500", "132419.597500", "132420.057500", "132420.517500", "132420.977500", "132421.437500", "132421.897500", "132422.357500", "132422.817500", "132423.277500", "132423.737500", "132424.197500", "132424.657500", "132425.117500", "132425.577500", "132426.037500", "132426.497500", "132426.957500", "132427.417500", "132427.877500", "132428.337500", "132428.797500", "132429.257500", "132429.717500", "132430.177500", "132430.637500", "132431.097500", "132431.557500", "132432.017500", "132432.477500", "132432.937500", "132433.397500", "132433.857500", "132434.317500", "132434.777500", "132435.237500", "132435.697500", "132436.157500", "132436.617500", "132437.077500", "132437.537500", "132437.997500", "132438.457500", "132438.917500", "132439.377500", "132439.837500", "132440.297500", "132440.757500", "132441.217500", "132441.677500", "132442.137500", "132442.597500", "132443.057500", "132443.517500", "132443.977500", "132444.437500", "132444.897500", "132445.357500", "132445.817500", "132446.277500", "132446.737500", "132447.197500", "132447.657500", "132448.117500", "132448.577500", "132449.037500", "132449.497500", "132449.957500", "132450.417500", "132450.877500", "132451.337500", "132451.797500", "132452.257500", "132452.717500", "132453.177500", "132453.637500", "132454.097500", "132454.557500", "132455.017500", "132455.477500", "132455.937500", "132456.397500", "132456.857500", "132457.317500", "132457.777500", "132458.237500", "132458.697500", "132459.157500", "132459.617500", "132500.077500", "132500.537500", "132500.997500", "132501.457500", "132501.917500", "132502.377500", "132502.837500", "132503.297500", "132503.757500", "132504.217500", "132504.677500", "132505.137500", "132505.597500", "132506.057500", "132506.517500", "132506.977500", "132507.437500", "132507.897500", "132508.357500", "132508.817500", "132509.277500", "132509.737500", "132510.197500", "132510.657500", "132511.117500", "132511.577500", "132512.037500", "132512.497500", "132512.957500", "132513.417500", "132513.877500", "132514.337500", "132514.797500", "132515.257500", "132515.717500", "132516.177500", "132516.637500", "132517.097500", "132517.557500", "132518.017500", "132518.477500", "132518.937500", "132519.397500", "132519.857500", "132520.317500", "132520.777500", "132521.237500", "132521.697500", "132522.157500", "132522.617500", "132523.077500", "132523.537500", "132523.997500", "132524.457500", "132524.917500", "132525.377500", "132525.837500", "132526.297500", "132526.757500", "132527.217500", "132527.677500", "132528.137500", "132528.597500", "132529.057500", "132529.517500", "132529.977500", "132530.437500", "132530.897500", "132531.357500", "132531.817500", "132532.277500", "132532.737500", "132533.197500", "132533.657500", "132534.117500", "132534.577500", "132535.037500", "132535.497500", "132535.957500", "132536.417500", "132536.877500", "132537.337500", "132537.797500", "132538.257500", "132538.717500", "132539.177500", "132539.637500", "132540.097500", "132540.557500", "132541.017500", "132541.477500", "132541.937500", "132542.397500", "132542.857500", "132543.317500", "132543.777500", "132544.237500", "132544.697500", "132545.157500", "132545.617500", "132546.077500", "132546.537500"],
