{
  "AcquisitionMatrixPE": 82,
  "AcquisitionNumber": 1,
  "AcquisitionTime": "13:04:48.975000",
  "BandwidthPerPixelPhaseEncode": 24.888,
  "BaseResolution": 82,
  "BodyPartExamined": "BRAIN",
  "ConsistencyInfo": "N4_VE11C_LATEST_20160120",
  "ConversionSoftware": "dcm2niix",
  "ConversionSoftwareVersion": "v1.0.20201102",
  "DerivedVendorReportedEchoSpacing": 0.00049,
  "DeviceSerialNumber": "66112",
  "DwellTime": 2e-06,
  "EchoTime": 0.0272,
  "EchoTrainLength": 82,
  "EffectiveEchoSpacing": 0.00049,
  "FlipAngle": 44,
  "ImageComments": "Unaliased MB8/PE3",
  "ImageOrientationPatientDICOM": [0.999291, -0.0017273, 0.0376102, -0.00174414, 0.995751, 0.0920724],
  "ImageType": [
    "ORIGINAL",
    "PRIMARY",
    "M",
    "MB",
    "ND",
    "NORM",
    "MOSAIC"
],
  "ImagingFrequency": 123.252,
  "InPlanePhaseEncodingDirectionDICOM": "COL",
  "InstitutionAddress": "Maynard 3,Hanover,NH,US,03755",
  "InstitutionName": "Dartmouth College - PBS",
  "InstitutionalDepartmentName": "Department",
  "MRAcquisitionType": "2D",
  "MagneticFieldStrength": 3,
  "Manufacturer": "Siemens",
  "ManufacturersModelName": "Prisma",
  "Modality": "MR",
  "MultibandAccelerationFactor": 8,
  "PartialFourier": 1,
  "PatientPosition": "HFS",
  "PercentPhaseFOV": 100,
  "PercentSampling": 100,
  "PhaseEncodingDirection": "j-",
  "PhaseEncodingSteps": 82,
  "PhaseResolution": 1,
  "PixelBandwidth": 3050,
  "ProcedureStepDescription": "Wager_Wager^1076_spacetop",
  "ProtocolName": "func_run-01_task-social_acq-ap-mb8",
  "PulseSequenceDetails": "%CustomerSeq%\\cmrr_mbep2d_bold",
  "ReceiveCoilActiveElements": "HEA;HEP",
  "ReceiveCoilName": "Head_32",
  "ReconMatrixPE": 82,
  "RepetitionTime": 0.46,
  "SAR": 0.0990316,
  "ScanOptions": "FS",
  "ScanningSequence": "EP",
  "SequenceName": "epfid2d1_82",
  "SequenceVariant": "SK\\SS",
  "SeriesDescription": "func_run-01_task-social_acq-ap-mb8",
  "SeriesNumber": 12,
  "ShimSetting": [4150, -7762, -7152, 561, -100, -91, -88, 54],
  "SliceThickness": 2.7,
  "SliceTiming": [0, 0.25, 0.0625, 0.3125, 0.125, 0.375, 0.1875, 0, 0.25, 0.0625, 0.3125, 0.125, 0.375, 0.1875, 0, 0.25, 0.0625, 0.3125, 0.125, 0.375, 0.1875, 0, 0.25, 0.0625, 0.3125, 0.125, 0.375, 0.1875, 0, 0.25, 0.0625, 0.3125, 0.125, 0.375, 0.1875, 0, 0.25, 0.0625, 0.3125, 0.125, 0.375, 0.1875, 0, 0.25, 0.0625, 0.3125, 0.125, 0.375, 0.1875, 0, 0.25, 0.0625, 0.3125, 0.125, 0.375, 0.1875],
  "SoftwareVersions": "syngo MR E11",
  "SpacingBetweenSlices": 2.7,
  "StationName": "AWP66112",
  "TaskName": "social",
  "TotalReadoutTime": 0.03969,
  "TxRefAmp": 256.254,
  "WipMemBlock": "fe7398a4-68bd-4537-bff7-f84002e91e6e||Sequence: R016 ve11c/master r/e634e98; Dec 19 2017 11:00:25 by eja",
  "dcmmeta_affine": [
    [-2.6810247898101807, -0.004679391160607338, 0.10154540836811066, 109.68830108642578],
    [0.0046342164278030396, 2.6715266704559326, 0.24859626591205597, -98.03394317626953],
    [0.10090538114309311, -0.24702343344688416, 2.686612844467163, -24.633638381958008],
    [0.0, 0.0, 0.0, 1.0]
],
  "dcmmeta_reorient_transform": [
    [0.0, -1.0, 0.0, 81.0],
    [1.0, 0.0, 0.0, 0.0],
    [0.0, 0.0, 1.0, 0.0],
    [0.0, 0.0, 0.0, 1.0]
],
  "dcmmeta_shape": [82, 82, 56, 872],
  "dcmmeta_slice_dim": 2,
  "dcmmeta_version": 0.6,
  "global": {
    "const": {
      "AccessionNumber": "A003802",
      "AcquisitionMatrix": [82, 0, 0, 82],
      "AngioFlag": "N",
      "BitsAllocated": 16,
      "BitsStored": 16,
      "BodyPartExamined": "BRAIN",
      "Columns": 656,
      "EchoNumbers": 1,
      "EchoTime": 27.2,
      "EchoTrainLength": 82,
      "FlipAngle": 44.0,
      "HighBit": 15,
      "ImageOrientationPatient": [0.9992909937986, -0.0017272987489, 0.03761018681211, -0.0017441365779, 0.99575079036368, 0.09207237087042],
      "ImagePositionPatient": [-877.420365906, -883.75781479144, -144.49810823916],
      "ImageType": [
        "ORIGINAL",
        "PRIMARY",
        "M",
        "MB",
        "ND",
        "NORM",
        "MOSAIC"
],
      "ImagedNucleus": "1H",
      "ImagingFrequency": 123.252132,
      "InPlanePhaseEncodingDirection": "COL",
      "MRAcquisitionType": "2D",
      "MagneticFieldStrength": 3.0,
      "Manufacturer": "SIEMENS",
      "ManufacturerModelName": "Prisma",
      "Modality": "MR",
      "NumberOfAverages": 1.0,
      "NumberOfPhaseEncodingSteps": 82,
      "PercentPhaseFieldOfView": 100.0,
      "PercentSampling": 100.0,
      "PerformedProcedureStepStartTime": "123643.179000",
      "PhotometricInterpretation": "MONOCHROME2",
      "PixelBandwidth": 3050.0,
      "PixelRepresentation": 0,
      "PixelSpacing": [2.6829268932343, 2.6829268932343],
      "ProtocolName": "func_run-01_task-social_acq-ap-mb8",
      "RepetitionTime": 460.0,
      "Rows": 656,
      "SAR": 0.0990316207884,
      "SamplesPerPixel": 1,
      "ScanOptions": "FS",
      "ScanningSequence": "EP",
      "SequenceName": "epfid2d1_82",
      "SequenceVariant": [
        "SK",
        "SS"
],
      "SeriesDescription": "func_run-01_task-social_acq-ap-mb8",
      "SeriesNumber": 12,
      "SeriesTime": "130515.080000",
      "SliceLocation": -29.412435583496,
      "SliceThickness": 2.7000000476837,
      "SmallestImagePixelValue": 0,
      "SoftwareVersions": "syngo MR E11",
      "SpacingBetweenSlices": 2.7000000562562,
      "SpecificCharacterSet": "ISO_IR 100",
      "StudyID": "1",
      "StudyTime": "123643.061000",
      "TransmitCoilName": "Body",
      "VariableFlipAngleFlag": "N",
      "WindowCenterWidthExplanation": "Algo1",
      "dBdt": 0.0},
    "slices": {}
  },
  "time": {
    "samples": {
      "AcquisitionNumber": [1, 2, 3, 4, 5, 6, 7, 8, 9, 10, 11, 12, 13, 14, 15, 16, 17, 18, 19, 20, 21, 22, 23, 24, 25, 26, 27, 28, 29, 30, 31, 32, 33, 34, 35, 36, 37, 38, 39, 40, 41, 42, 43, 44, 45, 46, 47, 48, 49, 50, 51, 52, 53, 54, 55, 56, 57, 58, 59, 60, 61, 62, 63, 64, 65, 66, 67, 68, 69, 70, 71, 72, 73, 74, 75, 76, 77, 78, 79, 80, 81, 82, 83, 84, 85, 86, 87, 88, 89, 90, 91, 92, 93, 94, 95, 96, 97, 98, 99, 100, 101, 102, 103, 104, 105, 106, 107, 108, 109, 110, 111, 112, 113, 114, 115, 116, 117, 118, 119, 120, 121, 122, 123, 124, 125, 126, 127, 128, 129, 130, 131, 132, 133, 134, 135, 136, 137, 138, 139, 140, 141, 142, 143, 144, 145, 146, 147, 148, 149, 150, 151, 152, 153, 154, 155, 156, 157, 158, 159, 160, 161, 162, 163, 164, 165, 166, 167, 168, 169, 170, 171, 172, 173, 174, 175, 176, 177, 178, 179, 180, 181, 182, 183, 184, 185, 186, 187, 188, 189, 190, 191, 192, 193, 194, 195, 196, 197, 198, 199, 200, 201, 202, 203, 204, 205, 206, 207, 208, 209, 210, 211, 212, 213, 214, 215, 216, 217, 218, 219, 220, 221, 222, 223, 224, 225, 226, 227, 228, 229, 230, 231, 232, 233, 234, 235, 236, 237, 238, 239, 240, 241, 242, 243, 244, 245, 246, 247, 248, 249, 250, 251, 252, 253, 254, 255, 256, 257, 258, 259, 260, 261, 262, 263, 264, 265, 266, 267, 268, 269, 270, 271, 272, 273, 274, 275, 276, 277, 278, 279, 280, 281, 282, 283, 284, 285, 286, 287, 288, 289, 290, 291, 292, 293, 294, 295, 296, 297, 298, 299, 300, 301, 302, 303, 304, 305, 306, 307, 308, 309, 310, 311, 312, 313, 314, 315, 316, 317, 318, 319, 320, 321, 322, 323, 324, 325, 326, 327, 328, 329, 330, 331, 332, 333, 334, 335, 336, 337, 338, 339, 340, 341, 342, 343, 344, 345, 346, 347, 348, 349, 350, 351, 352, 353, 354, 355, 356, 357, 358, 359, 360, 361, 362, 363, 364, 365, 366, 367, 368, 369, 370, 371, 372, 373, 374, 375, 376, 377, 378, 379, 380, 381, 382, 383, 384, 385, 386, 387, 388, 389, 390, 391, 392, 393, 394, 395, 396, 397, 398, 399, 400, 401, 402, 403, 404, 405, 406, 407, 408, 409, 410, 411, 412, 413, 414, 415, 416, 417, 418, 419, 420, 421, 422, 423, 424, 425, 426, 427, 428, 429, 430, 431, 432, 433, 434, 435, 436, 437, 438, 439, 440, 441, 442, 443, 444, 445, 446, 447, 448, 449, 450, 451, 452, 453, 454, 455, 456, 457, 458, 459, 460, 461, 462, 463, 464, 465, 466, 467, 468, 469, 470, 471, 472, 473, 474, 475, 476, 477, 478, 479, 480, 481, 482, 483, 484, 485, 486, 487, 488, 489, 490, 491, 492, 493, 494, 495, 496, 497, 498, 499, 500, 501, 502, 503, 504, 505, 506, 507, 508, 509, 510, 511, 512, 513, 514, 515, 516, 517, 518, 519, 520, 521, 522, 523, 524, 525, 526, 527, 528, 529, 530, 531, 532, 533, 534, 535, 536, 537, 538, 539, 540, 541, 542, 543, 544, 545, 546, 547, 548, 549, 550, 551, 552, 553, 554, 555, 556, 557, 558, 559, 560, 561, 562, 563, 564, 565, 566, 567, 568, 569, 570, 571, 572, 573, 574, 575, 576, 577, 578, 579, 580, 581, 582, 583, 584, 585, 586, 587, 588, 589, 590, 591, 592, 593, 594, 595, 596, 597, 598, 599, 600, 601, 602, 603, 604, 605, 606, 607, 608, 609, 610, 611, 612, 613, 614, 615, 616, 617, 618, 619, 620, 621, 622, 623, 624, 625, 626, 627, 628, 629, 630, 631, 632, 633, 634, 635, 636, 637, 638, 639, 640, 641, 642, 643, 644, 645, 646, 647, 648, 649, 650, 651, 652, 653, 654, 655, 656, 657, 658, 659, 660, 661, 662, 663, 664, 665, 666, 667, 668, 669, 670, 671, 672, 673, 674, 675, 676, 677, 678, 679, 680, 681, 682, 683, 684, 685, 686, 687, 688, 689, 690, 691, 692, 693, 694, 695, 696, 697, 698, 699, 700, 701, 702, 703, 704, 705, 706, 707, 708, 709, 710, 711, 712, 713, 714, 715, 716, 717, 718, 719, 720, 721, 722, 723, 724, 725, 726, 727, 728, 729, 730, 731, 732, 733, 734, 735, 736, 737, 738, 739, 740, 741, 742, 743, 744, 745, 746, 747, 748, 749, 750, 751, 752, 753, 754, 755, 756, 757, 758, 759, 760, 761, 762, 763, 764, 765, 766, 767, 768, 769, 770, 771, 772, 773, 774, 775, 776, 777, 778, 779, 780, 781, 782, 783, 784, 785, 786, 787, 788, 789, 790, 791, 792, 793, 794, 795, 796, 797, 798, 799, 800, 801, 802, 803, 804, 805, 806, 807, 808, 809, 810, 811, 812, 813, 814, 815, 816, 817, 818, 819, 820, 821, 822, 823, 824, 825, 826, 827, 828, 829, 830, 831, 832, 833, 834, 835, 836, 837, 838, 839, 840, 841, 842, 843, 844, 845, 846, 847, 848, 849, 850, 851, 852, 853, 854, 855, 856, 857, 858, 859, 860, 861, 862, 863, 864, 865, 866, 867, 868, 869, 870, 871, 872],
      "AcquisitionTime": ["130448.975000", "130449.435000", "130449.895000", "130450.355000", "130450.815000", "130451.275000", "130451.735000", "130452.195000", "130452.655000", "130453.115000", "130453.575000", "130454.035000", "130454.495000", "130454.955000", "130455.415000", "130455.875000", "130456.335000", "130456.795000", "130457.255000", "130457.715000", "130458.175000", "130458.635000", "130459.095000", "130459.555000", "130500.015000", "130500.475000", "130500.935000", "130501.395000", "130501.855000", "130502.315000", "130502.775000", "130503.235000", "130503.695000", "130504.155000", "130504.615000", "130505.075000", "130505.535000", "130505.995000", "130506.455000", "130506.915000", "130507.375000", "130507.835000", "130508.295000", "130508.755000", "130509.215000", "130509.675000", "130510.135000", "130510.595000", "130511.055000", "130511.515000", "130511.975000", "130512.435000", "130512.895000", "130513.355000", "130513.815000", "130514.275000", "130514.735000", "130515.195000", "130515.655000", "130516.115000", "130516.575000", "130517.035000", "130517.495000", "130517.955000", "130518.415000", "130518.875000", "130519.335000", "130519.795000", "130520.255000", "130520.715000", "130521.175000", "130521.635000", "130522.095000", "130522.555000", "130523.015000", "130523.475000", "130523.935000", "130524.395000", "130524.855000", "130525.315000", "130525.775000", "130526.235000", "130526.695000", "130527.155000", "130527.615000", "130528.075000", "130528.535000", "130528.995000", "130529.455000", "130529.915000", "130530.375000", "130530.835000", "130531.295000", "130531.755000", "130532.215000", "130532.675000", "130533.135000", "130533.595000", "130534.055000", "130534.515000", "130534.975000", "130535.435000", "130535.895000", "130536.355000", "130536.815000", "130537.275000", "130537.735000", "130538.195000", "130538.655000", "130539.115000", "130539.575000", "130540.035000", "130540.495000", "130540.955000", "130541.415000", "130541.875000", "130542.335000", "130542.795000", "130543.255000", "130543.715000", "130544.175000", "130544.635000", "130545.095000", "130545.555000", "130546.015000", "130546.475000", "130546.935000", "130547.395000", "130547.855000", "130548.315000", "130548.775000", "130549.235000", "130549.695000", "130550.155000", "130550.615000", "130551.075000", "130551.535000", "130551.995000", "130552.455000", "130552.915000", "130553.375000", "130553.835000", "130554.295000", "130554.755000", "130555.215000", "130555.675000", "130556.135000", "130556.595000", "130557.055000", "130557.515000", "130557.975000", "130558.435000", "130558.895000", "130559.355000", "130559.815000", "130600.275000", "130600.735000", "130601.195000", "130601.655000", "130602.115000", "130602.575000", "130603.035000", "130603.495000", "130603.955000", "130604.415000", "130604.875000", "130605.335000", "130605.795000", "130606.255000", "130606.715000", "130607.175000", "130607.635000", "130608.095000", "130608.555000", "130609.015000", "130609.475000", "130609.935000", "130610.395000", "130610.855000", "130611.315000", "130611.775000", "130612.235000", "130612.695000", "130613.155000", "130613.615000", "130614.075000", "130614.535000", "130614.995000", "130615.455000", "130615.915000", "130616.375000", "130616.835000", "130617.295000", "130617.755000", "130618.215000", "130618.675000", "130619.135000", "130619.595000", "130620.055000", "130620.515000", "130620.975000", "130621.435000", "130621.895000", "130622.355000", "130622.815000", "130623.275000", "130623.735000", "130624.195000", "130624.655000", "130625.115000", "130625.575000", "130626.035000", "130626.495000", "130626.955000", "130627.415000", "130627.875000", "130628.335000", "130628.795000", "130629.255000", "130629.715000", "130630.175000", "130630.635000", "130631.095000", "130631.555000", "130632.015000", "130632.475000", "130632.935000", "130633.395000", "130633.855000", "130634.315000", "130634.775000", "130635.235000", "130635.695000", "130636.155000", "130636.615000", "130637.075000", "130637.535000", "130637.995000", "130638.455000", "130638.915000", "130639.375000", "130639.835000", "130640.295000", "130640.755000", "130641.215000", "130641.675000", "130642.135000", "130642.595000", "130643.055000", "130643.515000", "130643.975000", "130644.435000", "130644.895000", "130645.355000", "130645.815000", "130646.275000", "130646.735000", "130647.195000", "130647.655000", "130648.115000", "130648.575000", "130649.035000", "130649.495000", "130649.955000", "130650.415000", "130650.875000", "130651.335000", "130651.795000", "130652.255000", "130652.715000", "130653.175000", "130653.635000", "130654.095000", "130654.555000", "130655.015000", "130655.475000", "130655.935000", "130656.395000", "130656.855000", "130657.315000", "130657.775000", "130658.235000", "130658.695000", "130659.155000", "130659.615000", "130700.075000", "130700.535000", "130700.995000", "130701.455000", "130701.915000", "130702.375000", "130702.835000", "130703.295000", "130703.755000", "130704.215000", "130704.675000", "130705.135000", "130705.595000", "130706.055000", "130706.515000", "130706.975000", "130707.435000", "130707.895000", "130708.355000", "130708.815000", "130709.275000", "130709.735000", "130710.195000", "130710.655000", "130711.115000", "130711.575000", "130712.035000", "130712.495000", "130712.955000", "130713.415000", "130713.875000", "130714.335000", "130714.795000", "130715.255000", "130715.715000", "130716.175000", "130716.635000", "130717.095000", "130717.555000", "130718.015000", "130718.475000", "130718.935000", "130719.395000", "130719.855000", "130720.315000", "130720.775000", "130721.235000", "130721.695000", "130722.155000", "130722.615000", "130723.075000", "130723.535000", "130723.995000", "130724.455000", "130724.915000", "130725.375000", "130725.835000", "130726.295000", "130726.755000", "130727.215000", "130727.675000", "130728.135000", "130728.595000", "130729.055000", "130729.515000", "130729.975000", "130730.435000", "130730.895000", "130731.355000", "130731.815000", "130732.275000", "130732.735000", "130733.195000", "130733.655000", "130734.115000", "130734.575000", "130735.035000", "130735.495000", "130735.955000", "130736.415000", "130736.875000", "130737.335000", "130737.795000", "130738.255000", "130738.715000", "130739.175000", "130739.635000", "130740.095000", "130740.555000", "130741.015000", "130741.475000", "130741.935000", "130742.395000", "130742.855000", "130743.315000", "130743.775000", "130744.235000", "130744.695000", "130745.155000", "130745.615000", "130746.075000", "130746.535000", "130746.995000", "130747.455000", "130747.915000", "130748.375000", "130748.835000", "130749.295000", "130749.755000", "130750.215000", "130750.675000", "130751.135000", "130751.595000", "130752.055000", "130752.515000", "130752.975000", "130753.435000", "130753.895000", "130754.355000", "130754.815000", "130755.275000", "130755.735000", "130756.195000", "130756.655000", "130757.115000", "130757.575000", "130758.035000", "130758.495000", "130758.955000", "130759.415000", "130759.875000", "130800.335000", "130800.795000", "130801.255000", "130801.715000", "130802.175000", "130802.635000", "130803.095000", "130803.555000", "130804.015000", "130804.475000", "130804.935000", "130805.395000", "130805.855000", "130806.315000", "130806.775000", "130807.235000", "130807.695000", "130808.155000", "130808.615000", "130809.075000", "130809.535000", "130809.995000", "130810.455000", "130810.915000", "130811.375000", "130811.835000", "130812.295000", "130812.755000", "130813.215000", "130813.675000", "130814.135000", "130814.595000", "130815.055000", "130815.515000", "130815.975000", "130816.435000", "130816.895000", "130817.355000", "130817.815000", "130818.275000", "130818.735000", "130819.195000", "130819.655000", "130820.115000", "130820.575000", "130821.035000", "130821.495000", "130821.955000", "130822.415000", "130822.875000", "130823.335000", "130823.795000", "130824.255000", "130824.715000", "130825.175000", "130825.635000", "130826.095000", "130826.555000", "130827.015000", "130827.475000", "130827.935000", "130828.395000", "130828.855000", "130829.315000", "130829.775000", "130830.235000", "130830.695000", "130831.155000", "130831.615000", "130832.075000", "130832.535000", "130832.995000", "130833.455000", "130833.915000", "130834.375000", "130834.835000", "130835.295000", "130835.755000", "130836.215000", "130836.675000", "130837.135000", "130837.595000", "130838.055000", "130838.515000", "130838.975000", "130839.435000", "130839.895000", "130840.355000", "130840.815000", "130841.275000", "130841.735000", "130842.195000", "130842.655000", "130843.115000", "130843.575000", "130844.035000", "130844.495000", "130844.955000", "130845.415000", "130845.875000", "130846.335000", "130846.795000", "130847.255000", "130847.715000", "130848.175000", "130848.635000", "130849.095000", "130849.555000", "130850.015000", "130850.475000", "130850.935000", "130851.395000", "130851.855000", "130852.315000", "130852.775000", "130853.235000", "130853.695000", "130854.155000", "130854.615000", "130855.075000", "130855.535000", "130855.995000", "130856.455000", "130856.915000", "130857.375000", "130857.835000", "130858.295000", "130858.755000", "130859.215000", "130859.675000", "130900.135000", "130900.595000", "130901.055000", "130901.515000", "130901.975000", "130902.435000", "130902.895000", "130903.355000", "130903.815000", "130904.275000", "130904.735000", "130905.195000", "130905.655000", "130906.115000", "130906.575000", "130907.035000", "130907.495000", "130907.955000", "130908.415000", "130908.875000", "130909.335000", "130909.795000", "130910.255000", "130910.715000", "130911.175000", "130911.635000", "130912.095000", "130912.555000", "130913.015000", "130913.475000", "130913.935000", "130914.395000", "130914.855000", "130915.315000", "130915.775000", "130916.235000", "130916.695000", "130917.155000", "130917.615000", "130918.075000", "130918.535000", "130918.995000", "130919.455000", "130919.915000", "130920.375000", "130920.835000", "130921.295000", "130921.755000", "130922.215000", "130922.675000", "130923.135000", "130923.595000", "130924.055000", "130924.515000", "130924.975000", "130925.435000", "130925.895000", "130926.355000", "130926.815000", "130927.275000", "130927.735000", "130928.195000", "130928.655000", "130929.115000", "130929.575000", "130930.035000", "130930.495000", "130930.955000", "130931.415000", "130931.875000", "130932.335000", "130932.795000", "130933.255000", "130933.715000", "130934.175000", "130934.635000", "130935.095000", "130935.555000", "130936.015000", "130936.475000", "130936.935000", "130937.395000", "130937.855000", "130938.315000", "130938.775000", "130939.235000", "130939.695000", "130940.155000", "130940.615000", "130941.075000", "130941.535000", "130941.995000", "130942.455000", "130942.915000", "130943.375000", "130943.835000", "130944.295000", "130944.755000", "130945.215000", "130945.675000", "130946.135000", "130946.595000", "130947.055000", "130947.515000", "130947.975000", "130948.435000", "130948.895000", "130949.355000", "130949.815000", "130950.275000", "130950.735000", "130951.195000", "130951.655000", "130952.115000", "130952.575000", "130953.035000", "130953.495000", "130953.955000", "130954.415000", "130954.875000", "130955.335000", "130955.795000", "130956.255000", "130956.715000", "130957.175000", "130957.635000", "130958.095000", "130958.555000", "130959.015000", "130959.475000", "130959.935000", "131000.395000", "131000.855000", "131001.315000", "131001.775000", "131002.235000", "131002.695000", "131003.155000", "131003.615000", "131004.075000", "131004.535000", "131004.995000", "131005.455000", "131005.915000", "131006.375000", "131006.835000", "131007.295000", "131007.755000", "131008.215000", "131008.675000", "131009.135000", "131009.595000", "131010.055000", "131010.515000", "131010.975000", "131011.435000", "131011.895000", "131012.355000", "131012.815000", "131013.275000", "131013.735000", "131014.195000", "131014.655000", "131015.115000", "131015.575000", "131016.035000", "131016.495000", "131016.955000", "131017.415000", "131017.875000", "131018.335000", "131018.795000", "131019.255000", "131019.715000", "131020.175000", "131020.635000", "131021.095000", "131021.555000", "131022.015000", "131022.475000", "131022.935000", "131023.395000", "131023.855000", "131024.315000", "131024.775000", "131025.235000", "131025.695000", "131026.155000", "131026.615000", "131027.075000", "131027.535000", "131027.995000", "131028.455000", "131028.915000", "131029.375000", "131029.835000", "131030.295000", "131030.755000", "131031.215000", "131031.675000", "131032.135000", "131032.595000", "131033.055000", "131033.515000", "131033.975000", "131034.435000", "131034.895000", "131035.355000", "131035.815000", "131036.275000", "131036.735000", "131037.195000", "131037.655000", "131038.115000", "131038.575000", "131039.035000", "131039.495000", "131039.955000", "131040.415000", "131040.875000", "131041.335000", "131041.795000", "131042.255000", "131042.715000", "131043.175000", "131043.635000", "131044.095000", "131044.555000", "131045.015000", "131045.475000", "131045.935000", "131046.395000", "131046.855000", "131047.315000", "131047.775000", "131048.235000", "131048.695000", "131049.155000", "131049.615000", "131050.075000", "131050.535000", "131050.995000", "131051.455000", "131051.915000", "131052.375000", "131052.835000", "131053.295000", "131053.755000", "131054.215000", "131054.675000", "131055.135000", "131055.595000", "131056.055000", "131056.515000", "131056.975000", "131057.435000", "131057.895000", "131058.355000", "131058.815000", "131059.275000", "131059.735000", "131100.195000", "131100.655000", "131101.115000", "131101.575000", "131102.035000", "131102.495000", "131102.955000", "131103.415000", "131103.875000", "131104.335000", "131104.795000", "131105.255000", "131105.715000", "131106.175000", "131106.635000", "131107.095000", "131107.555000", "131108.015000", "131108.475000", "131108.935000", "131109.395000", "131109.855000", "131110.315000", "131110.775000", "131111.235000", "131111.695000", "131112.155000", "131112.615000", "131113.075000", "131113.535000", "131113.995000", "131114.455000", "131114.915000", "131115.375000", "131115.835000", "131116.295000", "131116.755000", "131117.215000", "131117.675000", "131118.135000", "131118.595000", "131119.055000", "131119.515000", "131119.975000", "131120.435000", "131120.895000", "131121.355000", "131121.815000", "131122.275000", "131122.735000", "131123.195000", "131123.655000", "131124.115000", "131124.575000", "131125.035000", "131125.495000", "131125.955000", "131126.415000", "131126.875000", "131127.335000", "131127.795000", "131128.255000", "131128.715000", "131129.175000", "131129.635000"],
