{
  "AcquisitionMatrixPE": 82,
  "AcquisitionNumber": 1,
  "AcquisitionTime": "14:25:50.800000",
  "BandwidthPerPixelPhaseEncode": 24.888,
  "BaseResolution": 82,
  "BodyPartExamined": "BRAIN",
  "ConsistencyInfo": "N4_VE11E_LATEST_20181129",
  "ConversionSoftware": "dcm2niix",
  "ConversionSoftwareVersion": "v1.0.20201102",
  "DerivedVendorReportedEchoSpacing": 0.00049,
  "DeviceSerialNumber": "66112",
  "DwellTime": 2e-06,
  "EchoTime": 0.0272,
  "EchoTrainLength": 82,
  "EffectiveEchoSpacing": 0.00049,
  "FlipAngle": 44,
  "ImageComments": "Unaliased MB8/PE3",
  "ImageOrientationPatientDICOM": [0.996088, 0.0649093, 0.0599567, -0.0644141, 0.997872, -0.0101578],
  "ImageType": [
    "ORIGINAL",
    "PRIMARY",
    "M",
    "MB",
    "ND",
    "NORM",
    "MOSAIC"
],
  "ImagingFrequency": 123.259,
  "InPlanePhaseEncodingDirectionDICOM": "COL",
  "InstitutionAddress": "Maynard 3,Hanover,NH,US,03755",
  "InstitutionName": "Dartmouth College - PBS",
  "InstitutionalDepartmentName": "Department",
  "MRAcquisitionType": "2D",
  "MagneticFieldStrength": 3,
  "Manufacturer": "Siemens",
  "ManufacturersModelName": "Prisma",
  "Modality": "MR",
  "MultibandAccelerationFactor": 8,
  "PartialFourier": 1,
  "PatientPosition": "HFS",
  "PercentPhaseFOV": 100,
  "PercentSampling": 100,
  "PhaseEncodingDirection": "j-",
  "PhaseEncodingSteps": 82,
  "PhaseResolution": 1,
  "PixelBandwidth": 3050,
  "ProcedureStepDescription": "Wager_Wager^1076_spacetop",
  "ProtocolName": "func_run-02_task-faces_acq-ap-mb8",
  "PulseSequenceDetails": "%CustomerSeq%\\cmrr_mbep2d_bold",
  "ReceiveCoilActiveElements": "HEA;HEP",
  "ReceiveCoilName": "Head_32",
  "ReconMatrixPE": 82,
  "RepetitionTime": 0.46,
  "SAR": 0.0879201,
  "ScanOptions": "FS",
  "ScanningSequence": "EP",
  "SequenceName": "epfid2d1_82",
  "SequenceVariant": "SK\\SS",
  "SeriesDescription": "func_run-02_task-faces_acq-ap-mb8",
  "SeriesNumber": 18,
  "ShimSetting": [4232, -7789, -7268, 216, -179, -170, -29, 66],
  "SliceThickness": 2.7,
  "SliceTiming": [0, 0.2525, 0.0625, 0.315, 0.1275, 0.3775, 0.19, 0, 0.2525, 0.0625, 0.315, 0.1275, 0.3775, 0.19, 0, 0.2525, 0.0625, 0.315, 0.1275, 0.3775, 0.19, 0, 0.2525, 0.0625, 0.315, 0.1275, 0.3775, 0.19, 0, 0.2525, 0.0625, 0.315, 0.1275, 0.3775, 0.19, 0, 0.2525, 0.0625, 0.315, 0.1275, 0.3775, 0.19, 0, 0.2525, 0.0625, 0.315, 0.1275, 0.3775, 0.19, 0, 0.2525, 0.0625, 0.315, 0.1275, 0.3775, 0.19],
  "SoftwareVersions": "syngo MR E11",
  "SpacingBetweenSlices": 2.7,
  "StationName": "AWP66112",
  "TaskName": "faces",
  "TotalReadoutTime": 0.03969,
  "TxRefAmp": 228.78,
  "WipMemBlock": "806fac58-0c2b-4ed1-9d0a-a2b5dcdab72d||Sequence: R016 ve11e/master r/434b28f1; Aug  7 2019 18:53:46 by eja",
  "dcmmeta_affine": [
    [-2.6724321842193604, -0.17281833291053772, 0.16331878304481506, 115.25556182861328],
    [-0.17414698004722595, 2.6772165298461914, -0.016891341656446457, -98.87989044189453],
    [0.16085948050022125, 0.02725275605916977, 2.695003032684326, -76.5939712524414],
    [0.0, 0.0, 0.0, 1.0]
],
  "dcmmeta_reorient_transform": [
    [0.0, -1.0, 0.0, 81.0],
    [1.0, 0.0, 0.0, 0.0],
    [0.0, 0.0, 1.0, 0.0],
    [0.0, 0.0, 0.0, 1.0]
],
  "dcmmeta_shape": [82, 82, 56, 914],
  "dcmmeta_slice_dim": 2,
  "dcmmeta_version": 0.6,
  "global": {
    "const": {
      "AccessionNumber": "A004536",
      "AcquisitionMatrix": [82, 0, 0, 82],
      "AngioFlag": "N",
      "BitsAllocated": 16,
      "BitsStored": 16,
      "BodyPartExamined": "BRAIN",
      "Columns": 656,
      "EchoNumbers": 1,
      "EchoTime": 27.2,
      "EchoTrainLength": 82,
      "FlipAngle": 44.0,
      "HighBit": 15,
      "ImageOrientationPatient": [0.99608833526126, 0.06490932642141, 0.05995671521998, -0.064414105894, 0.99787155543677, -0.0101578448541],
      "ImagePositionPatient": [-818.64645332991, -936.31594096609, -112.73162970849],
      "ImageType": [
        "ORIGINAL",
        "PRIMARY",
        "M",
        "MB",
        "ND",
        "NORM",
        "MOSAIC"
],
      "ImagedNucleus": "1H",
      "ImagingFrequency": 123.25907,
      "InPlanePhaseEncodingDirection": "COL",
      "MRAcquisitionType": "2D",
      "MagneticFieldStrength": 3.0,
      "Manufacturer": "SIEMENS",
      "ManufacturerModelName": "Prisma",
      "Modality": "MR",
      "NumberOfAverages": 1.0,
      "NumberOfPhaseEncodingSteps": 82,
      "PercentPhaseFieldOfView": 100.0,
      "PercentSampling": 100.0,
      "PerformedProcedureStepStartTime": "131216.647000",
      "PhotometricInterpretation": "MONOCHROME2",
      "PixelBandwidth": 3050.0,
      "PixelRepresentation": 0,
      "PixelSpacing": [2.6829268932343, 2.6829268932343],
      "ProtocolName": "func_run-02_task-faces_acq-ap-mb8",
      "RepetitionTime": 460.0,
      "Rows": 656,
      "SAR": 0.08792011311212,
      "SamplesPerPixel": 1,
      "ScanOptions": "FS",
      "ScanningSequence": "EP",
      "SequenceName": "epfid2d1_82",
      "SequenceVariant": [
        "SK",
        "SS"
],
      "SeriesDescription": "func_run-02_task-faces_acq-ap-mb8",
      "SeriesNumber": 18,
      "SeriesTime": "142602.731000",
      "SliceLocation": -68.861991703908,
      "SliceThickness": 2.7000000476837,
      "SmallestImagePixelValue": 0,
      "SoftwareVersions": "syngo MR E11",
      "SpacingBetweenSlices": 2.6999999339346,
      "SpecificCharacterSet": "ISO_IR 100",
      "StudyID": "1",
      "StudyTime": "131216.428000",
      "TransmitCoilName": "Body",
      "VariableFlipAngleFlag": "N",
      "WindowCenterWidthExplanation": "Algo1"
    },
    "slices": {}
  },
  "time": {
    "samples": {
      "AcquisitionNumber": [1, 2, 3, 4, 5, 6, 7, 8, 9, 10, 11, 12, 13, 14, 15, 16, 17, 18, 19, 20, 21, 22, 23, 24, 25, 26, 27, 28, 29, 30, 31, 32, 33, 34, 35, 36, 37, 38, 39, 40, 41, 42, 43, 44, 45, 46, 47, 48, 49, 50, 51, 52, 53, 54, 55, 56, 57, 58, 59, 60, 61, 62, 63, 64, 65, 66, 67, 68, 69, 70, 71, 72, 73, 74, 75, 76, 77, 78, 79, 80, 81, 82, 83, 84, 85, 86, 87, 88, 89, 90, 91, 92, 93, 94, 95, 96, 97, 98, 99, 100, 101, 102, 103, 104, 105, 106, 107, 108, 109, 110, 111, 112, 113, 114, 115, 116, 117, 118, 119, 120, 121, 122, 123, 124, 125, 126, 127, 128, 129, 130, 131, 132, 133, 134, 135, 136, 137, 138, 139, 140, 141, 142, 143, 144, 145, 146, 147, 148, 149, 150, 151, 152, 153, 154, 155, 156, 157, 158, 159, 160, 161, 162, 163, 164, 165, 166, 167, 168, 169, 170, 171, 172, 173, 174, 175, 176, 177, 178, 179, 180, 181, 182, 183, 184, 185, 186, 187, 188, 189, 190, 191, 192, 193, 194, 195, 196, 197, 198, 199, 200, 201, 202, 203, 204, 205, 206, 207, 208, 209, 210, 211, 212, 213, 214, 215, 216, 217, 218, 219, 220, 221, 222, 223, 224, 225, 226, 227, 228, 229, 230, 231, 232, 233, 234, 235, 236, 237, 238, 239, 240, 241, 242, 243, 244, 245, 246, 247, 248, 249, 250, 251, 252, 253, 254, 255, 256, 257, 258, 259, 260, 261, 262, 263, 264, 265, 266, 267, 268, 269, 270, 271, 272, 273, 274, 275, 276, 277, 278, 279, 280, 281, 282, 283, 284, 285, 286, 287, 288, 289, 290, 291, 292, 293, 294, 295, 296, 297, 298, 299, 300, 301, 302, 303, 304, 305, 306, 307, 308, 309, 310, 311, 312, 313, 314, 315, 316, 317, 318, 319, 320, 321, 322, 323, 324, 325, 326, 327, 328, 329, 330, 331, 332, 333, 334, 335, 336, 337, 338, 339, 340, 341, 342, 343, 344, 345, 346, 347, 348, 349, 350, 351, 352, 353, 354, 355, 356, 357, 358, 359, 360, 361, 362, 363, 364, 365, 366, 367, 368, 369, 370, 371, 372, 373, 374, 375, 376, 377, 378, 379, 380, 381, 382, 383, 384, 385, 386, 387, 388, 389, 390, 391, 392, 393, 394, 395, 396, 397, 398, 399, 400, 401, 402, 403, 404, 405, 406, 407, 408, 409, 410, 411, 412, 413, 414, 415, 416, 417, 418, 419, 420, 421, 422, 423, 424, 425, 426, 427, 428, 429, 430, 431, 432, 433, 434, 435, 436, 437, 438, 439, 440, 441, 442, 443, 444, 445, 446, 447, 448, 449, 450, 451, 452, 453, 454, 455, 456, 457, 458, 459, 460, 461, 462, 463, 464, 465, 466, 467, 468, 469, 470, 471, 472, 473, 474, 475, 476, 477, 478, 479, 480, 481, 482, 483, 484, 485, 486, 487, 488, 489, 490, 491, 492, 493, 494, 495, 496, 497, 498, 499, 500, 501, 502, 503, 504, 505, 506, 507, 508, 509, 510, 511, 512, 513, 514, 515, 516, 517, 518, 519, 520, 521, 522, 523, 524, 525, 526, 527, 528, 529, 530, 531, 532, 533, 534, 535, 536, 537, 538, 539, 540, 541, 542, 543, 544, 545, 546, 547, 548, 549, 550, 551, 552, 553, 554, 555, 556, 557, 558, 559, 560, 561, 562, 563, 564, 565, 566, 567, 568, 569, 570, 571, 572, 573, 574, 575, 576, 577, 578, 579, 580, 581, 582, 583, 584, 585, 586, 587, 588, 589, 590, 591, 592, 593, 594, 595, 596, 597, 598, 599, 600, 601, 602, 603, 604, 605, 606, 607, 608, 609, 610, 611, 612, 613, 614, 615, 616, 617, 618, 619, 620, 621, 622, 623, 624, 625, 626, 627, 628, 629, 630, 631, 632, 633, 634, 635, 636, 637, 638, 639, 640, 641, 642, 643, 644, 645, 646, 647, 648, 649, 650, 651, 652, 653, 654, 655, 656, 657, 658, 659, 660, 661, 662, 663, 664, 665, 666, 667, 668, 669, 670, 671, 672, 673, 674, 675, 676, 677, 678, 679, 680, 681, 682, 683, 684, 685, 686, 687, 688, 689, 690, 691, 692, 693, 694, 695, 696, 697, 698, 699, 700, 701, 702, 703, 704, 705, 706, 707, 708, 709, 710, 711, 712, 713, 714, 715, 716, 717, 718, 719, 720, 721, 722, 723, 724, 725, 726, 727, 728, 729, 730, 731, 732, 733, 734, 735, 736, 737, 738, 739, 740, 741, 742, 743, 744, 745, 746, 747, 748, 749, 750, 751, 752, 753, 754, 755, 756, 757, 758, 759, 760, 761, 762, 763, 764, 765, 766, 767, 768, 769, 770, 771, 772, 773, 774, 775, 776, 777, 778, 779, 780, 781, 782, 783, 784, 785, 786, 787, 788, 789, 790, 791, 792, 793, 794, 795, 796, 797, 798, 799, 800, 801, 802, 803, 804, 805, 806, 807, 808, 809, 810, 811, 812, 813, 814, 815, 816, 817, 818, 819, 820, 821, 822, 823, 824, 825, 826, 827, 828, 829, 830, 831, 832, 833, 834, 835, 836, 837, 838, 839, 840, 841, 842, 843, 844, 845, 846, 847, 848, 849, 850, 851, 852, 853, 854, 855, 856, 857, 858, 859, 860, 861, 862, 863, 864, 865, 866, 867, 868, 869, 870, 871, 872, 873, 874, 875, 876, 877, 878, 879, 880, 881, 882, 883, 884, 885, 886, 887, 888, 889, 890, 891, 892, 893, 894, 895, 896, 897, 898, 899, 900, 901, 902, 903, 904, 905, 906, 907, 908, 909, 910, 911, 912, 913, 914],
      "AcquisitionTime": ["142550.800000", "142551.260000", "142551.720000", "142552.180000", "142552.640000", "142553.100000", "142553.560000", "142554.020000", "142554.480000", "142554.940000", "142555.400000", "142555.860000", "142556.320000", "142556.780000", "142557.240000", "142557.700000", "142558.160000", "142558.620000", "142559.080000", "142559.540000", "142600.000000", "142600.460000", "142600.920000", "142601.380000", "142601.840000", "142602.300000", "142602.760000", "142603.220000", "142603.680000", "142604.140000", "142604.600000", "142605.060000", "142605.520000", "142605.980000", "142606.440000", "142606.900000", "142607.360000", "142607.820000", "142608.280000", "142608.740000", "142609.200000", "142609.660000", "142610.120000", "142610.580000", "142611.040000", "142611.500000", "142611.960000", "142612.420000", "142612.880000", "142613.340000", "142613.800000", "142614.260000", "142614.720000", "142615.180000", "142615.640000", "142616.100000", "142616.560000", "142617.020000", "142617.480000", "142617.940000", "142618.400000", "142618.860000", "142619.320000", "142619.780000", "142620.240000", "142620.700000", "142621.160000", "142621.620000", "142622.080000", "142622.540000", "142623.000000", "142623.460000", "142623.920000", "142624.380000", "142624.840000", "142625.300000", "142625.760000", "142626.220000", "142626.680000", "142627.140000", "142627.600000", "142628.060000", "142628.520000", "142628.980000", "142629.440000", "142629.900000", "142630.360000", "142630.820000", "142631.280000", "142631.740000", "142632.200000", "142632.660000", "142633.120000", "142633.580000", "142634.040000", "142634.500000", "142634.960000", "142635.420000", "142635.880000", "142636.340000", "142636.800000", "142637.260000", "142637.720000", "142638.180000", "142638.640000", "142639.100000", "142639.560000", "142640.020000", "142640.480000", "142640.940000", "142641.400000", "142641.860000", "142642.320000", "142642.780000", "142643.240000", "142643.700000", "142644.160000", "142644.620000", "142645.080000", "142645.540000", "142646.000000", "142646.460000", "142646.920000", "142647.380000", "142647.840000", "142648.300000", "142648.760000", "142649.220000", "142649.680000", "142650.140000", "142650.600000", "142651.060000", "142651.520000", "142651.980000", "142652.440000", "142652.900000", "142653.360000", "142653.820000", "142654.280000", "142654.740000", "142655.200000", "142655.660000", "142656.120000", "142656.580000", "142657.040000", "142657.500000", "142657.960000", "142658.420000", "142658.880000", "142659.340000", "142659.800000", "142700.260000", "142700.720000", "142701.180000", "142701.640000", "142702.100000", "142702.560000", "142703.020000", "142703.480000", "142703.940000", "142704.400000", "142704.860000", "142705.320000", "142705.780000", "142706.240000", "142706.700000", "142707.160000", "142707.620000", "142708.080000", "142708.540000", "142709.000000", "142709.460000", "142709.920000", "142710.380000", "142710.840000", "142711.300000", "142711.760000", "142712.220000", "142712.680000", "142713.140000", "142713.600000", "142714.060000", "142714.520000", "142714.980000", "142715.440000", "142715.900000", "142716.360000", "142716.820000", "142717.280000", "142717.740000", "142718.200000", "142718.660000", "142719.120000", "142719.580000", "142720.040000", "142720.500000", "142720.960000", "142721.420000", "142721.880000", "142722.340000", "142722.800000", "142723.260000", "142723.720000", "142724.180000", "142724.640000", "142725.100000", "142725.560000", "142726.020000", "142726.480000", "142726.940000", "142727.400000", "142727.860000", "142728.320000", "142728.780000", "142729.240000", "142729.700000", "142730.160000", "142730.620000", "142731.080000", "142731.540000", "142732.000000", "142732.460000", "142732.920000", "142733.380000", "142733.840000", "142734.300000", "142734.760000", "142735.220000", "142735.680000", "142736.140000", "142736.600000", "142737.060000", "142737.520000", "142737.980000", "142738.440000", "142738.900000", "142739.360000", "142739.820000", "142740.280000", "142740.740000", "142741.200000", "142741.660000", "142742.120000", "142742.580000", "142743.040000", "142743.500000", "142743.960000", "142744.420000", "142744.880000", "142745.340000", "142745.800000", "142746.260000", "142746.720000", "142747.180000", "142747.640000", "142748.100000", "142748.560000", "142749.020000", "142749.480000", "142749.940000", "142750.400000", "142750.860000", "142751.320000", "142751.780000", "142752.240000", "142752.700000", "142753.160000", "142753.620000", "142754.080000", "142754.540000", "142755.000000", "142755.460000", "142755.920000", "142756.380000", "142756.840000", "142757.300000", "142757.760000", "142758.220000", "142758.680000", "142759.140000", "142759.600000", "142800.060000", "142800.520000", "142800.980000", "142801.440000", "142801.900000", "142802.360000", "142802.820000", "142803.280000", "142803.740000", "142804.200000", "142804.660000", "142805.120000", "142805.580000", "142806.040000", "142806.500000", "142806.960000", "142807.420000", "142807.880000", "142808.340000", "142808.800000", "142809.260000", "142809.720000", "142810.180000", "142810.640000", "142811.100000", "142811.560000", "142812.020000", "142812.480000", "142812.940000", "142813.400000", "142813.860000", "142814.320000", "142814.780000", "142815.240000", "142815.700000", "142816.160000", "142816.620000", "142817.080000", "142817.540000", "142818.000000", "142818.460000", "142818.920000", "142819.380000", "142819.840000", "142820.300000", "142820.760000", "142821.220000", "142821.680000", "142822.140000", "142822.600000", "142823.060000", "142823.520000", "142823.980000", "142824.440000", "142824.900000", "142825.360000", "142825.820000", "142826.280000", "142826.740000", "142827.200000", "142827.660000", "142828.120000", "142828.580000", "142829.040000", "142829.500000", "142829.960000", "142830.420000", "142830.880000", "142831.340000", "142831.800000", "142832.260000", "142832.720000", "142833.180000", "142833.640000", "142834.100000", "142834.560000", "142835.020000", "142835.480000", "142835.940000", "142836.400000", "142836.860000", "142837.320000", "142837.780000", "142838.240000", "142838.700000", "142839.160000", "142839.620000", "142840.080000", "142840.540000", "142841.000000", "142841.460000", "142841.920000", "142842.380000", "142842.840000", "142843.300000", "142843.760000", "142844.220000", "142844.680000", "142845.140000", "142845.600000", "142846.060000", "142846.520000", "142846.980000", "142847.440000", "142847.900000", "142848.360000", "142848.820000", "142849.280000", "142849.740000", "142850.200000", "142850.660000", "142851.120000", "142851.580000", "142852.040000", "142852.500000", "142852.960000", "142853.420000", "142853.880000", "142854.340000", "142854.800000", "142855.260000", "142855.720000", "142856.180000", "142856.640000", "142857.100000", "142857.560000", "142858.020000", "142858.480000", "142858.940000", "142859.400000", "142859.860000", "142900.320000", "142900.780000", "142901.240000", "142901.700000", "142902.160000", "142902.620000", "142903.080000", "142903.540000", "142904.000000", "142904.460000", "142904.920000", "142905.380000", "142905.840000", "142906.300000", "142906.760000", "142907.220000", "142907.680000", "142908.140000", "142908.600000", "142909.060000", "142909.520000", "142909.980000", "142910.440000", "142910.900000", "142911.360000", "142911.820000", "142912.280000", "142912.740000", "142913.200000", "142913.660000", "142914.120000", "142914.580000", "142915.040000", "142915.500000", "142915.960000", "142916.420000", "142916.880000", "142917.340000", "142917.800000", "142918.260000", "142918.720000", "142919.180000", "142919.640000", "142920.100000", "142920.560000", "142921.020000", "142921.480000", "142921.940000", "142922.400000", "142922.860000", "142923.320000", "142923.780000", "142924.240000", "142924.700000", "142925.160000", "142925.620000", "142926.080000", "142926.540000", "142927.000000", "142927.460000", "142927.920000", "142928.380000", "142928.840000", "142929.300000", "142929.760000", "142930.220000", "142930.680000", "142931.140000", "142931.600000", "142932.060000", "142932.520000", "142932.980000", "142933.440000", "142933.900000", "142934.360000", "142934.820000", "142935.280000", "142935.740000", "142936.200000", "142936.660000", "142937.120000", "142937.580000", "142938.040000", "142938.500000", "142938.960000", "142939.420000", "142939.880000", "142940.340000", "142940.800000", "142941.260000", "142941.720000", "142942.180000", "142942.640000", "142943.100000", "142943.560000", "142944.020000", "142944.480000", "142944.940000", "142945.400000", "142945.860000", "142946.320000", "142946.780000", "142947.240000", "142947.700000", "142948.160000", "142948.620000", "142949.080000", "142949.540000", "142950.000000", "142950.460000", "142950.920000", "142951.380000", "142951.840000", "142952.300000", "142952.760000", "142953.220000", "142953.680000", "142954.140000", "142954.600000", "142955.060000", "142955.520000", "142955.980000", "142956.440000", "142956.900000", "142957.360000", "142957.820000", "142958.280000", "142958.740000", "142959.200000", "142959.660000", "143000.120000", "143000.580000", "143001.040000", "143001.500000", "143001.960000", "143002.420000", "143002.880000", "143003.340000", "143003.800000", "143004.260000", "143004.720000", "143005.180000", "143005.640000", "143006.100000", "143006.560000", "143007.020000", "143007.480000", "143007.940000", "143008.400000", "143008.860000", "143009.320000", "143009.780000", "143010.240000", "143010.700000", "143011.160000", "143011.620000", "143012.080000", "143012.540000", "143013.000000", "143013.460000", "143013.920000", "143014.380000", "143014.840000", "143015.300000", "143015.760000", "143016.220000", "143016.680000", "143017.140000", "143017.600000", "143018.060000", "143018.520000", "143018.980000", "143019.440000", "143019.900000", "143020.360000", "143020.820000", "143021.280000", "143021.740000", "143022.200000", "143022.660000", "143023.120000", "143023.580000", "143024.040000", "143024.500000", "143024.960000", "143025.420000", "143025.880000", "143026.340000", "143026.800000", "143027.260000", "143027.720000", "143028.180000", "143028.640000", "143029.100000", "143029.560000", "143030.020000", "143030.480000", "143030.940000", "143031.400000", "143031.860000", "143032.320000", "143032.780000", "143033.240000", "143033.700000", "143034.160000", "143034.620000", "143035.080000", "143035.540000", "143036.000000", "143036.460000", "143036.920000", "143037.380000", "143037.840000", "143038.300000", "143038.760000", "143039.220000", "143039.680000", "143040.140000", "143040.600000", "143041.060000", "143041.520000", "143041.980000", "143042.440000", "143042.900000", "143043.360000", "143043.820000", "143044.280000", "143044.740000", "143045.200000", "143045.660000", "143046.120000", "143046.580000", "143047.040000", "143047.500000", "143047.960000", "143048.420000", "143048.880000", "143049.340000", "143049.800000", "143050.260000", "143050.720000", "143051.180000", "143051.640000", "143052.100000", "143052.560000", "143053.020000", "143053.480000", "143053.940000", "143054.400000", "143054.860000", "143055.320000", "143055.780000", "143056.240000", "143056.700000", "143057.160000", "143057.620000", "143058.080000", "143058.540000", "143059.000000", "143059.460000", "143059.920000", "143100.380000", "143100.840000", "143101.300000", "143101.760000", "143102.220000", "143102.680000", "143103.140000", "143103.600000", "143104.060000", "143104.520000", "143104.980000", "143105.440000", "143105.900000", "143106.360000", "143106.820000", "143107.280000", "143107.740000", "143108.200000", "143108.660000", "143109.120000", "143109.580000", "143110.040000", "143110.500000", "143110.960000", "143111.420000", "143111.880000", "143112.340000", "143112.800000", "143113.260000", "143113.720000", "143114.180000", "143114.640000", "143115.100000", "143115.560000", "143116.020000", "143116.480000", "143116.940000", "143117.400000", "143117.860000", "143118.320000", "143118.780000", "143119.240000", "143119.700000", "143120.160000", "143120.620000", "143121.080000", "143121.540000", "143122.000000", "143122.460000", "143122.920000", "143123.380000", "143123.840000", "143124.300000", "143124.760000", "143125.220000", "143125.680000", "143126.140000", "143126.600000", "143127.060000", "143127.520000", "143127.980000", "143128.440000", "143128.900000", "143129.360000", "143129.820000", "143130.280000", "143130.740000", "143131.200000", "143131.660000", "143132.120000", "143132.580000", "143133.040000", "143133.500000", "143133.960000", "143134.420000", "143134.880000", "143135.340000", "143135.800000", "143136.260000", "143136.720000", "143137.180000", "143137.640000", "143138.100000", "143138.560000", "143139.020000", "143139.480000", "143139.940000", "143140.400000", "143140.860000", "143141.320000", "143141.780000", "143142.240000", "143142.700000", "143143.160000", "143143.620000", "143144.080000", "143144.540000", "143145.000000", "143145.460000", "143145.920000", "143146.380000", "143146.840000", "143147.300000", "143147.760000", "143148.220000", "143148.680000", "143149.140000", "143149.600000", "143150.060000", "143150.520000", "143150.980000", "143151.440000", "143151.900000", "143152.360000", "143152.820000", "143153.280000", "143153.740000", "143154.200000", "143154.660000", "143155.120000", "143155.580000", "143156.040000", "143156.500000", "143156.960000", "143157.420000", "143157.880000", "143158.340000", "143158.800000", "143159.260000", "143159.720000", "143200.180000", "143200.640000", "143201.100000", "143201.560000", "143202.020000", "143202.480000", "143202.940000", "143203.400000", "143203.860000", "143204.320000", "143204.780000", "143205.240000", "143205.700000", "143206.160000", "143206.620000", "143207.080000", "143207.540000", "143208.000000", "143208.460000", "143208.920000", "143209.380000", "143209.840000", "143210.300000", "143210.760000", "143211.220000", "143211.680000", "143212.140000", "143212.600000", "143213.060000", "143213.520000", "143213.980000", "143214.440000", "143214.900000", "143215.360000", "143215.820000", "143216.280000", "143216.740000", "143217.200000", "143217.660000", "143218.120000", "143218.580000", "143219.040000", "143219.500000", "143219.960000", "143220.420000", "143220.880000", "143221.340000", "143221.800000", "143222.260000", "143222.720000", "143223.180000", "143223.640000", "143224.100000", "143224.560000", "143225.020000", "143225.480000", "143225.940000", "143226.400000", "143226.860000", "143227.320000", "143227.780000", "143228.240000", "143228.700000", "143229.160000", "143229.620000", "143230.080000", "143230.540000", "143231.000000", "143231.460000", "143231.920000", "143232.380000", "143232.840000", "143233.300000", "143233.760000", "143234.220000", "143234.680000", "143235.140000", "143235.600000", "143236.060000", "143236.520000", "143236.980000", "143237.440000", "143237.900000", "143238.360000", "143238.820000", "143239.280000", "143239.740000", "143240.200000", "143240.660000", "143241.120000", "143241.580000", "143242.040000", "143242.500000", "143242.960000", "143243.420000", "143243.880000", "143244.340000", "143244.800000", "143245.260000", "143245.720000", "143246.180000", "143246.640000", "143247.100000", "143247.560000", "143248.020000", "143248.480000", "143248.940000", "143249.400000", "143249.860000", "143250.320000", "143250.780000"],
