{
  "AcquisitionMatrixPE": 82,
  "AcquisitionNumber": 1,
  "AcquisitionTime": "14:43:6.977500",
  "BandwidthPerPixelPhaseEncode": 24.888,
  "BaseResolution": 82,
  "BodyPartExamined": "BRAIN",
  "ConsistencyInfo": "N4_VE11E_LATEST_20181129",
  "ConversionSoftware": "dcm2niix",
  "ConversionSoftwareVersion": "v1.0.20201102",
  "DerivedVendorReportedEchoSpacing": 0.00049,
  "DeviceSerialNumber": "66112",
  "DwellTime": 2e-06,
  "EchoTime": 0.0272,
  "EchoTrainLength": 82,
  "EffectiveEchoSpacing": 0.00049,
  "FlipAngle": 44,
  "ImageComments": "Unaliased MB8/PE3",
  "ImageOrientationPatientDICOM": [0.994838, 0.0671768, 0.0760591, -0.0679957, 0.997652, 0.00822603],
  "ImageType": [
    "ORIGINAL",
    "PRIMARY",
    "M",
    "MB",
    "ND",
    "NORM",
    "MOSAIC"
],
  "ImagingFrequency": 123.259,
  "InPlanePhaseEncodingDirectionDICOM": "COL",
  "InstitutionAddress": "Maynard 3,Hanover,NH,US,03755",
  "InstitutionName": "Dartmouth College - PBS",
  "InstitutionalDepartmentName": "Department",
  "MRAcquisitionType": "2D",
  "MagneticFieldStrength": 3,
  "Manufacturer": "Siemens",
  "ManufacturersModelName": "Prisma",
  "Modality": "MR",
  "MultibandAccelerationFactor": 8,
  "PartialFourier": 1,
  "PatientPosition": "HFS",
  "PercentPhaseFOV": 100,
  "PercentSampling": 100,
  "PhaseEncodingDirection": "j-",
  "PhaseEncodingSteps": 82,
  "PhaseResolution": 1,
  "PixelBandwidth": 3050,
  "ProcedureStepDescription": "Wager_Wager^1076_spacetop",
  "ProtocolName": "func_run-01_task-alignvideo_acq-ap-mb8",
  "PulseSequenceDetails": "%CustomerSeq%\\cmrr_mbep2d_bold",
  "ReceiveCoilActiveElements": "HEA;HEP",
  "ReceiveCoilName": "Head_32",
  "ReconMatrixPE": 82,
  "RepetitionTime": 0.46,
  "SAR": 0.0878736,
  "ScanOptions": "FS",
  "ScanningSequence": "EP",
  "SequenceName": "epfid2d1_82",
  "SequenceVariant": "SK\\SS",
  "SeriesDescription": "func_run-01_task-alignvideo_acq-ap-mb8",
  "SeriesNumber": 28,
  "ShimSetting": [4230, -7790, -7271, 218, -184, -186, -37, 65],
  "SliceThickness": 2.7,
  "SliceTiming": [0, 0.25, 0.0625, 0.3125, 0.125, 0.375, 0.1875, 0, 0.25, 0.0625, 0.3125, 0.125, 0.375, 0.1875, 0, 0.25, 0.0625, 0.3125, 0.125, 0.375, 0.1875, 0, 0.25, 0.0625, 0.3125, 0.125, 0.375, 0.1875, 0, 0.25, 0.0625, 0.3125, 0.125, 0.375, 0.1875, 0, 0.25, 0.0625, 0.3125, 0.125, 0.375, 0.1875, 0, 0.25, 0.0625, 0.3125, 0.125, 0.375, 0.1875, 0, 0.25, 0.0625, 0.3125, 0.125, 0.375, 0.1875],
  "SoftwareVersions": "syngo MR E11",
  "SpacingBetweenSlices": 2.7,
  "StationName": "AWP66112",
  "TaskName": "alignvideo",
  "TotalReadoutTime": 0.03969,
  "TxRefAmp": 228.78,
  "WipMemBlock": "a09a4c62-878b-4d0b-ae84-370ed41d9841||Sequence: R016 ve11e/master r/434b28f1; Aug  7 2019 18:53:46 by eja",
  "dcmmeta_affine": [
    [-2.669077157974243, -0.18242745101451874, 0.20338523387908936, 114.51229095458984],
    [-0.18023034930229187, 2.676626682281494, 0.0360591858625412, -100.96334838867188],
    [0.20406092703342438, -0.022069837898015976, 2.692087411880493, -79.16561889648438],
    [0.0, 0.0, 0.0, 1.0]
],
  "dcmmeta_reorient_transform": [
    [0.0, -1.0, 0.0, 81.0],
    [1.0, 0.0, 0.0, 0.0],
    [0.0, 0.0, 1.0, 0.0],
    [0.0, 0.0, 0.0, 1.0]
],
  "dcmmeta_shape": [82, 82, 56, 839],
  "dcmmeta_slice_dim": 2,
  "dcmmeta_version": 0.6,
  "global": {
    "const": {
      "AccessionNumber": "A004536",
      "AcquisitionMatrix": [82, 0, 0, 82],
      "AngioFlag": "N",
      "BitsAllocated": 16,
      "BitsStored": 16,
      "BodyPartExamined": "BRAIN",
      "Columns": 656,
      "EchoNumbers": 1,
      "EchoTime": 27.2,
      "EchoTrainLength": 82,
      "FlipAngle": 44.0,
      "HighBit": 15,
      "ImageOrientationPatient": [0.99483782598657, 0.06717676512352, 0.07605907055606, -0.0679956838554, 0.99765170245128, 0.00822603021483],
      "ImagePositionPatient": [-813.40413145504, -935.76134502035, -145.85280572995],
      "ImageType": [
        "ORIGINAL",
        "PRIMARY",
        "M",
        "MB",
        "ND",
        "NORM",
        "MOSAIC"
],
      "ImagedNucleus": "1H",
      "ImagingFrequency": 123.259073,
      "InPlanePhaseEncodingDirection": "COL",
      "MRAcquisitionType": "2D",
      "MagneticFieldStrength": 3.0,
      "Manufacturer": "SIEMENS",
      "ManufacturerModelName": "Prisma",
      "Modality": "MR",
      "NumberOfAverages": 1.0,
      "NumberOfPhaseEncodingSteps": 82,
      "PercentPhaseFieldOfView": 100.0,
      "PercentSampling": 100.0,
      "PerformedProcedureStepStartTime": "131216.647000",
      "PhotometricInterpretation": "MONOCHROME2",
      "PixelBandwidth": 3050.0,
      "PixelRepresentation": 0,
      "PixelSpacing": [2.6829268932343, 2.6829268932343],
      "ProtocolName": "func_run-01_task-alignvideo_acq-ap-mb8",
      "RepetitionTime": 460.0,
      "Rows": 656,
      "SAR": 0.08787358771256,
      "SamplesPerPixel": 1,
      "ScanOptions": "FS",
      "ScanningSequence": "EP",
      "SequenceName": "epfid2d1_82",
      "SequenceVariant": [
        "SK",
        "SS"
],
      "SeriesDescription": "func_run-01_task-alignvideo_acq-ap-mb8",
      "SeriesNumber": 28,
      "SeriesTime": "144322.913000",
      "SliceLocation": -71.656040678415,
      "SliceThickness": 2.7000000476837,
      "SmallestImagePixelValue": 0,
      "SoftwareVersions": "syngo MR E11",
      "SpacingBetweenSlices": 2.7000000183193,
      "SpecificCharacterSet": "ISO_IR 100",
      "StudyID": "1",
      "StudyTime": "131216.428000",
      "TransmitCoilName": "Body",
      "VariableFlipAngleFlag": "N",
      "WindowCenterWidthExplanation": "Algo1"
    },
    "slices": {}
  },
  "time": {
    "samples": {
      "AcquisitionNumber": [1, 2, 3, 4, 5, 6, 7, 8, 9, 10, 11, 12, 13, 14, 15, 16, 17, 18, 19, 20, 21, 22, 23, 24, 25, 26, 27, 28, 29, 30, 31, 32, 33, 34, 35, 36, 37, 38, 39, 40, 41, 42, 43, 44, 45, 46, 47, 48, 49, 50, 51, 52, 53, 54, 55, 56, 57, 58, 59, 60, 61, 62, 63, 64, 65, 66, 67, 68, 69, 70, 71, 72, 73, 74, 75, 76, 77, 78, 79, 80, 81, 82, 83, 84, 85, 86, 87, 88, 89, 90, 91, 92, 93, 94, 95, 96, 97, 98, 99, 100, 101, 102, 103, 104, 105, 106, 107, 108, 109, 110, 111, 112, 113, 114, 115, 116, 117, 118, 119, 120, 121, 122, 123, 124, 125, 126, 127, 128, 129, 130, 131, 132, 133, 134, 135, 136, 137, 138, 139, 140, 141, 142, 143, 144, 145, 146, 147, 148, 149, 150, 151, 152, 153, 154, 155, 156, 157, 158, 159, 160, 161, 162, 163, 164, 165, 166, 167, 168, 169, 170, 171, 172, 173, 174, 175, 176, 177, 178, 179, 180, 181, 182, 183, 184, 185, 186, 187, 188, 189, 190, 191, 192, 193, 194, 195, 196, 197, 198, 199, 200, 201, 202, 203, 204, 205, 206, 207, 208, 209, 210, 211, 212, 213, 214, 215, 216, 217, 218, 219, 220, 221, 222, 223, 224, 225, 226, 227, 228, 229, 230, 231, 232, 233, 234, 235, 236, 237, 238, 239, 240, 241, 242, 243, 244, 245, 246, 247, 248, 249, 250, 251, 252, 253, 254, 255, 256, 257, 258, 259, 260, 261, 262, 263, 264, 265, 266, 267, 268, 269, 270, 271, 272, 273, 274, 275, 276, 277, 278, 279, 280, 281, 282, 283, 284, 285, 286, 287, 288, 289, 290, 291, 292, 293, 294, 295, 296, 297, 298, 299, 300, 301, 302, 303, 304, 305, 306, 307, 308, 309, 310, 311, 312, 313, 314, 315, 316, 317, 318, 319, 320, 321, 322, 323, 324, 325, 326, 327, 328, 329, 330, 331, 332, 333, 334, 335, 336, 337, 338, 339, 340, 341, 342, 343, 344, 345, 346, 347, 348, 349, 350, 351, 352, 353, 354, 355, 356, 357, 358, 359, 360, 361, 362, 363, 364, 365, 366, 367, 368, 369, 370, 371, 372, 373, 374, 375, 376, 377, 378, 379, 380, 381, 382, 383, 384, 385, 386, 387, 388, 389, 390, 391, 392, 393, 394, 395, 396, 397, 398, 399, 400, 401, 402, 403, 404, 405, 406, 407, 408, 409, 410, 411, 412, 413, 414, 415, 416, 417, 418, 419, 420, 421, 422, 423, 424, 425, 426, 427, 428, 429, 430, 431, 432, 433, 434, 435, 436, 437, 438, 439, 440, 441, 442, 443, 444, 445, 446, 447, 448, 449, 450, 451, 452, 453, 454, 455, 456, 457, 458, 459, 460, 461, 462, 463, 464, 465, 466, 467, 468, 469, 470, 471, 472, 473, 474, 475, 476, 477, 478, 479, 480, 481, 482, 483, 484, 485, 486, 487, 488, 489, 490, 491, 492, 493, 494, 495, 496, 497, 498, 499, 500, 501, 502, 503, 504, 505, 506, 507, 508, 509, 510, 511, 512, 513, 514, 515, 516, 517, 518, 519, 520, 521, 522, 523, 524, 525, 526, 527, 528, 529, 530, 531, 532, 533, 534, 535, 536, 537, 538, 539, 540, 541, 542, 543, 544, 545, 546, 547, 548, 549, 550, 551, 552, 553, 554, 555, 556, 557, 558, 559, 560, 561, 562, 563, 564, 565, 566, 567, 568, 569, 570, 571, 572, 573, 574, 575, 576, 577, 578, 579, 580, 581, 582, 583, 584, 585, 586, 587, 588, 589, 590, 591, 592, 593, 594, 595, 596, 597, 598, 599, 600, 601, 602, 603, 604, 605, 606, 607, 608, 609, 610, 611, 612, 613, 614, 615, 616, 617, 618, 619, 620, 621, 622, 623, 624, 625, 626, 627, 628, 629, 630, 631, 632, 633, 634, 635, 636, 637, 638, 639, 640, 641, 642, 643, 644, 645, 646, 647, 648, 649, 650, 651, 652, 653, 654, 655, 656, 657, 658, 659, 660, 661, 662, 663, 664, 665, 666, 667, 668, 669, 670, 671, 672, 673, 674, 675, 676, 677, 678, 679, 680, 681, 682, 683, 684, 685, 686, 687, 688, 689, 690, 691, 692, 693, 694, 695, 696, 697, 698, 699, 700, 701, 702, 703, 704, 705, 706, 707, 708, 709, 710, 711, 712, 713, 714, 715, 716, 717, 718, 719, 720, 721, 722, 723, 724, 725, 726, 727, 728, 729, 730, 731, 732, 733, 734, 735, 736, 737, 738, 739, 740, 741, 742, 743, 744, 745, 746, 747, 748, 749, 750, 751, 752, 753, 754, 755, 756, 757, 758, 759, 760, 761, 762, 763, 764, 765, 766, 767, 768, 769, 770, 771, 772, 773, 774, 775, 776, 777, 778, 779, 780, 781, 782, 783, 784, 785, 786, 787, 788, 789, 790, 791, 792, 793, 794, 795, 796, 797, 798, 799, 800, 801, 802, 803, 804, 805, 806, 807, 808, 809, 810, 811, 812, 813, 814, 815, 816, 817, 818, 819, 820, 821, 822, 823, 824, 825, 826, 827, 828, 829, 830, 831, 832, 833, 834, 835, 836, 837, 838, 839],
      "AcquisitionTime": ["144306.977500", "144307.437500", "144307.897500", "144308.357500", "144308.817500", "144309.277500", "144309.737500", "144310.197500", "144310.657500", "144311.117500", "144311.577500", "144312.037500", "144312.497500", "144312.957500", "144313.417500", "144313.877500", "144314.337500", "144314.797500", "144315.257500", "144315.717500", "144316.177500", "144316.637500", "144317.097500", "144317.557500", "144318.017500", "144318.477500", "144318.937500", "144319.397500", "144319.857500", "144320.317500", "144320.777500", "144321.237500", "144321.697500", "144322.157500", "144322.617500", "144323.077500", "144323.537500", "144323.997500", "144324.457500", "144324.917500", "144325.377500", "144325.837500", "144326.297500", "144326.757500", "144327.217500", "144327.677500", "144328.137500", "144328.597500", "144329.057500", "144329.517500", "144329.977500", "144330.437500", "144330.897500", "144331.357500", "144331.817500", "144332.277500", "144332.737500", "144333.197500", "144333.657500", "144334.117500", "144334.577500", "144335.037500", "144335.497500", "144335.957500", "144336.417500", "144336.877500", "144337.337500", "144337.797500", "144338.257500", "144338.717500", "144339.177500", "144339.637500", "144340.097500", "144340.557500", "144341.017500", "144341.477500", "144341.937500", "144342.397500", "144342.857500", "144343.317500", "144343.777500", "144344.237500", "144344.697500", "144345.157500", "144345.617500", "144346.077500", "144346.537500", "144346.997500", "144347.457500", "144347.917500", "144348.377500", "144348.837500", "144349.297500", "144349.757500", "144350.217500", "144350.677500", "144351.137500", "144351.597500", "144352.057500", "144352.517500", "144352.977500", "144353.437500", "144353.897500", "144354.357500", "144354.817500", "144355.277500", "144355.737500", "144356.197500", "144356.657500", "144357.117500", "144357.577500", "144358.037500", "144358.497500", "144358.957500", "144359.417500", "144359.877500", "144400.337500", "144400.797500", "144401.257500", "144401.717500", "144402.177500", "144402.637500", "144403.097500", "144403.557500", "144404.017500", "144404.477500", "144404.937500", "144405.397500", "144405.857500", "144406.317500", "144406.777500", "144407.237500", "144407.697500", "144408.157500", "144408.617500", "144409.077500", "144409.537500", "144409.997500", "144410.457500", "144410.917500", "144411.377500", "144411.837500", "144412.297500", "144412.757500", "144413.217500", "144413.677500", "144414.137500", "144414.597500", "144415.057500", "144415.517500", "144415.977500", "144416.437500", "144416.897500", "144417.357500", "144417.817500", "144418.277500", "144418.737500", "144419.197500", "144419.657500", "144420.117500", "144420.577500", "144421.037500", "144421.497500", "144421.957500", "144422.417500", "144422.877500", "144423.337500", "144423.797500", "144424.257500", "144424.717500", "144425.177500", "144425.637500", "144426.097500", "144426.557500", "144427.017500", "144427.477500", "144427.937500", "144428.397500", "144428.857500", "144429.317500", "144429.777500", "144430.237500", "144430.697500", "144431.157500", "144431.617500", "144432.077500", "144432.537500", "144432.997500", "144433.457500", "144433.917500", "144434.377500", "144434.837500", "144435.297500", "144435.757500", "144436.217500", "144436.677500", "144437.137500", "144437.597500", "144438.057500", "144438.517500", "144438.977500", "144439.437500", "144439.897500", "144440.357500", "144440.817500", "144441.277500", "144441.737500", "144442.197500", "144442.657500", "144443.117500", "144443.577500", "144444.037500", "144444.497500", "144444.957500", "144445.417500", "144445.877500", "144446.337500", "144446.797500", "144447.257500", "144447.717500", "144448.177500", "144448.637500", "144449.097500", "144449.557500", "144450.017500", "144450.477500", "144450.937500", "144451.397500", "144451.857500", "144452.317500", "144452.777500", "144453.237500", "144453.697500", "144454.157500", "144454.617500", "144455.077500", "144455.537500", "144455.997500", "144456.457500", "144456.917500", "144457.377500", "144457.837500", "144458.297500", "144458.757500", "144459.217500", "144459.677500", "144500.137500", "144500.597500", "144501.057500", "144501.517500", "144501.977500", "144502.437500", "144502.897500", "144503.357500", "144503.817500", "144504.277500", "144504.737500", "144505.197500", "144505.657500", "144506.117500", "144506.577500", "144507.037500", "144507.497500", "144507.957500", "144508.417500", "144508.877500", "144509.337500", "144509.797500", "144510.257500", "144510.717500", "144511.177500", "144511.637500", "144512.097500", "144512.557500", "144513.017500", "144513.477500", "144513.937500", "144514.397500", "144514.857500", "144515.317500", "144515.777500", "144516.237500", "144516.697500", "144517.157500", "144517.617500", "144518.077500", "144518.537500", "144518.997500", "144519.457500", "144519.917500", "144520.377500", "144520.837500", "144521.297500", "144521.757500", "144522.217500", "144522.677500", "144523.137500", "144523.597500", "144524.057500", "144524.517500", "144524.977500", "144525.437500", "144525.897500", "144526.357500", "144526.817500", "144527.277500", "144527.737500", "144528.197500", "144528.657500", "144529.117500", "144529.577500", "144530.037500", "144530.497500", "144530.957500", "144531.417500", "144531.877500", "144532.337500", "144532.797500", "144533.257500", "144533.717500", "144534.177500", "144534.637500", "144535.097500", "144535.557500", "144536.017500", "144536.477500", "144536.937500", "144537.397500", "144537.857500", "144538.317500", "144538.777500", "144539.237500", "144539.697500", "144540.157500", "144540.617500", "144541.077500", "144541.537500", "144541.997500", "144542.457500", "144542.917500", "144543.377500", "144543.837500", "144544.297500", "144544.757500", "144545.217500", "144545.677500", "144546.137500", "144546.597500", "144547.057500", "144547.517500", "144547.977500", "144548.437500", "144548.897500", "144549.357500", "144549.817500", "144550.277500", "144550.737500", "144551.197500", "144551.657500", "144552.117500", "144552.577500", "144553.037500", "144553.497500", "144553.957500", "144554.417500", "144554.877500", "144555.337500", "144555.797500", "144556.257500", "144556.717500", "144557.177500", "144557.637500", "144558.097500", "144558.557500", "144559.017500", "144559.477500", "144559.937500", "144600.397500", "144600.857500", "144601.317500", "144601.777500", "144602.237500", "144602.697500", "144603.157500", "144603.617500", "144604.077500", "144604.537500", "144604.997500", "144605.457500", "144605.917500", "144606.377500", "144606.837500", "144607.297500", "144607.757500", "144608.217500", "144608.677500", "144609.137500", "144609.597500", "144610.057500", "144610.517500", "144610.977500", "144611.437500", "144611.897500", "144612.357500", "144612.817500", "144613.277500", "144613.737500", "144614.197500", "144614.657500", "144615.117500", "144615.577500", "144616.037500", "144616.497500", "144616.957500", "144617.417500", "144617.877500", "144618.337500", "144618.797500", "144619.257500", "144619.717500", "144620.177500", "144620.637500", "144621.097500", "144621.557500", "144622.017500", "144622.477500", "144622.937500", "144623.397500", "144623.857500", "144624.317500", "144624.777500", "144625.237500", "144625.697500", "144626.157500", "144626.617500", "144627.077500", "144627.537500", "144627.997500", "144628.457500", "144628.917500", "144629.377500", "144629.837500", "144630.297500", "144630.757500", "144631.217500", "144631.677500", "144632.137500", "144632.597500", "144633.057500", "144633.517500", "144633.977500", "144634.437500", "144634.897500", "144635.357500", "144635.817500", "144636.277500", "144636.737500", "144637.197500", "144637.657500", "144638.117500", "144638.577500", "144639.037500", "144639.497500", "144639.957500", "144640.417500", "144640.877500", "144641.337500", "144641.797500", "144642.257500", "144642.717500", "144643.177500", "144643.637500", "144644.097500", "144644.557500", "144645.017500", "144645.477500", "144645.937500", "144646.397500", "144646.857500", "144647.317500", "144647.777500", "144648.237500", "144648.697500", "144649.157500", "144649.617500", "144650.077500", "144650.537500", "144650.997500", "144651.457500", "144651.917500", "144652.377500", "144652.837500", "144653.297500", "144653.757500", "144654.217500", "144654.677500", "144655.137500", "144655.597500", "144656.057500", "144656.517500", "144656.977500", "144657.437500", "144657.897500", "144658.357500", "144658.817500", "144659.277500", "144659.737500", "144700.197500", "144700.657500", "144701.117500", "144701.577500", "144702.037500", "144702.497500", "144702.957500", "144703.417500", "144703.877500", "144704.337500", "144704.797500", "144705.257500", "144705.717500", "144706.177500", "144706.637500", "144707.097500", "144707.557500", "144708.017500", "144708.477500", "144708.937500", "144709.397500", "144709.857500", "144710.317500", "144710.777500", "144711.237500", "144711.697500", "144712.157500", "144712.617500", "144713.077500", "144713.537500", "144713.997500", "144714.457500", "144714.917500", "144715.377500", "144715.837500", "144716.297500", "144716.757500", "144717.217500", "144717.677500", "144718.137500", "144718.597500", "144719.057500", "144719.517500", "144719.977500", "144720.437500", "144720.897500", "144721.357500", "144721.817500", "144722.277500", "144722.737500", "144723.197500", "144723.657500", "144724.117500", "144724.577500", "144725.037500", "144725.497500", "144725.957500", "144726.417500", "144726.877500", "144727.337500", "144727.797500", "144728.257500", "144728.717500", "144729.177500", "144729.637500", "144730.097500", "144730.557500", "144731.017500", "144731.477500", "144731.937500", "144732.397500", "144732.857500", "144733.317500", "144733.777500", "144734.237500", "144734.697500", "144735.157500", "144735.617500", "144736.077500", "144736.537500", "144736.997500", "144737.457500", "144737.917500", "144738.377500", "144738.837500", "144739.297500", "144739.757500", "144740.217500", "144740.677500", "144741.137500", "144741.597500", "144742.057500", "144742.517500", "144742.977500", "144743.437500", "144743.897500", "144744.357500", "144744.817500", "144745.277500", "144745.737500", "144746.197500", "144746.657500", "144747.117500", "144747.577500", "144748.037500", "144748.497500", "144748.957500", "144749.417500", "144749.877500", "144750.337500", "144750.797500", "144751.257500", "144751.717500", "144752.177500", "144752.637500", "144753.097500", "144753.557500", "144754.017500", "144754.477500", "144754.937500", "144755.397500", "144755.857500", "144756.317500", "144756.777500", "144757.237500", "144757.697500", "144758.157500", "144758.617500", "144759.077500", "144759.537500", "144759.997500", "144800.457500", "144800.917500", "144801.377500", "144801.837500", "144802.297500", "144802.757500", "144803.217500", "144803.677500", "144804.137500", "144804.597500", "144805.057500", "144805.517500", "144805.977500", "144806.437500", "144806.897500", "144807.357500", "144807.817500", "144808.277500", "144808.737500", "144809.197500", "144809.657500", "144810.117500", "144810.577500", "144811.037500", "144811.497500", "144811.957500", "144812.417500", "144812.877500", "144813.337500", "144813.797500", "144814.257500", "144814.717500", "144815.177500", "144815.637500", "144816.097500", "144816.557500", "144817.017500", "144817.477500", "144817.937500", "144818.397500", "144818.857500", "144819.317500", "144819.777500", "144820.237500", "144820.697500", "144821.157500", "144821.617500", "144822.077500", "144822.537500", "144822.997500", "144823.457500", "144823.917500", "144824.377500", "144824.837500", "144825.297500", "144825.757500", "144826.217500", "144826.677500", "144827.137500", "144827.597500", "144828.057500", "144828.517500", "144828.977500", "144829.437500", "144829.897500", "144830.357500", "144830.817500", "144831.277500", "144831.737500", "144832.197500", "144832.657500", "144833.117500", "144833.577500", "144834.037500", "144834.497500", "144834.957500", "144835.417500", "144835.877500", "144836.337500", "144836.797500", "144837.257500", "144837.717500", "144838.177500", "144838.637500", "144839.097500", "144839.557500", "144840.017500", "144840.477500", "144840.937500", "144841.397500", "144841.857500", "144842.317500", "144842.777500", "144843.237500", "144843.697500", "144844.157500", "144844.617500", "144845.077500", "144845.537500", "144845.997500", "144846.457500", "144846.917500", "144847.377500", "144847.837500", "144848.297500", "144848.757500", "144849.217500", "144849.677500", "144850.137500", "144850.597500", "144851.057500", "144851.517500", "144851.977500", "144852.437500", "144852.897500", "144853.357500", "144853.817500", "144854.277500", "144854.737500", "144855.197500", "144855.657500", "144856.117500", "144856.577500", "144857.037500", "144857.497500", "144857.957500", "144858.417500", "144858.877500", "144859.337500", "144859.797500", "144900.257500", "144900.717500", "144901.177500", "144901.637500", "144902.097500", "144902.557500", "144903.017500", "144903.477500", "144903.937500", "144904.397500", "144904.857500", "144905.317500", "144905.777500", "144906.237500", "144906.697500", "144907.157500", "144907.617500", "144908.077500", "144908.537500", "144908.997500", "144909.457500", "144909.917500", "144910.377500", "144910.837500", "144911.297500", "144911.757500", "144912.217500", "144912.677500", "144913.137500", "144913.597500", "144914.057500", "144914.517500", "144914.977500", "144915.437500", "144915.897500", "144916.357500", "144916.817500", "144917.277500", "144917.737500", "144918.197500", "144918.657500", "144919.117500", "144919.577500", "144920.037500", "144920.497500", "144920.957500", "144921.417500", "144921.877500", "144922.337500", "144922.797500", "144923.257500", "144923.717500", "144924.177500", "144924.637500", "144925.097500", "144925.557500", "144926.017500", "144926.477500", "144926.937500", "144927.397500", "144927.857500", "144928.317500", "144928.777500", "144929.237500", "144929.697500", "144930.157500", "144930.617500", "144931.077500", "144931.537500", "144931.997500", "144932.457500"],
