{
  "AcquisitionMatrixPE": 82,
  "AcquisitionNumber": 1,
  "AcquisitionTime": "14:33:16.237500",
  "BandwidthPerPixelPhaseEncode": 24.888,
  "BaseResolution": 82,
  "BodyPartExamined": "BRAIN",
  "ConsistencyInfo": "N4_VE11E_LATEST_20181129",
  "ConversionSoftware": "dcm2niix",
  "ConversionSoftwareVersion": "v1.0.20201102",
  "DerivedVendorReportedEchoSpacing": 0.00049,
  "DeviceSerialNumber": "66112",
  "DwellTime": 2e-06,
  "EchoTime": 0.0272,
  "EchoTrainLength": 82,
  "EffectiveEchoSpacing": 0.00049,
  "FlipAngle": 44,
  "ImageComments": "Unaliased MB8/PE3",
  "ImageOrientationPatientDICOM": [0.996088, 0.0649093, 0.0599567, -0.0644141, 0.997872, -0.0101578],
  "ImageType": [
    "ORIGINAL",
    "PRIMARY",
    "M",
    "MB",
    "ND",
    "NORM",
    "MOSAIC"
],
  "ImagingFrequency": 123.259,
  "InPlanePhaseEncodingDirectionDICOM": "COL",
  "InstitutionAddress": "Maynard 3,Hanover,NH,US,03755",
  "InstitutionName": "Dartmouth College - PBS",
  "InstitutionalDepartmentName": "Department",
  "MRAcquisitionType": "2D",
  "MagneticFieldStrength": 3,
  "Manufacturer": "Siemens",
  "ManufacturersModelName": "Prisma",
  "Modality": "MR",
  "MultibandAccelerationFactor": 8,
  "PartialFourier": 1,
  "PatientPosition": "HFS",
  "PercentPhaseFOV": 100,
  "PercentSampling": 100,
  "PhaseEncodingDirection": "j-",
  "PhaseEncodingSteps": 82,
  "PhaseResolution": 1,
  "PixelBandwidth": 3050,
  "ProcedureStepDescription": "Wager_Wager^1076_spacetop",
  "ProtocolName": "func_run-03_task-faces_acq-ap-mb8",
  "PulseSequenceDetails": "%CustomerSeq%\\cmrr_mbep2d_bold",
  "ReceiveCoilActiveElements": "HEA;HEP",
  "ReceiveCoilName": "Head_32",
  "ReconMatrixPE": 82,
  "RepetitionTime": 0.46,
  "SAR": 0.0879201,
  "ScanOptions": "FS",
  "ScanningSequence": "EP",
  "SequenceName": "epfid2d1_82",
  "SequenceVariant": "SK\\SS",
  "SeriesDescription": "func_run-03_task-faces_acq-ap-mb8",
  "SeriesNumber": 20,
  "ShimSetting": [4232, -7789, -7268, 216, -179, -170, -29, 66],
  "SliceThickness": 2.7,
  "SliceTiming": [0, 0.2525, 0.065, 0.315, 0.1275, 0.3775, 0.19, 0, 0.2525, 0.065, 0.315, 0.1275, 0.3775, 0.19, 0, 0.2525, 0.065, 0.315, 0.1275, 0.3775, 0.19, 0, 0.2525, 0.065, 0.315, 0.1275, 0.3775, 0.19, 0, 0.2525, 0.065, 0.315, 0.1275, 0.3775, 0.19, 0, 0.2525, 0.065, 0.315, 0.1275, 0.3775, 0.19, 0, 0.2525, 0.065, 0.315, 0.1275, 0.3775, 0.19, 0, 0.2525, 0.065, 0.315, 0.1275, 0.3775, 0.19],
  "SoftwareVersions": "syngo MR E11",
  "SpacingBetweenSlices": 2.7,
  "StationName": "AWP66112",
  "TaskName": "faces",
  "TotalReadoutTime": 0.03969,
  "TxRefAmp": 228.78,
  "WipMemBlock": "804d8601-0e1a-4d32-bd07-e5f4e848f446||Sequence: R016 ve11e/master r/434b28f1; Aug  7 2019 18:53:46 by eja",
  "dcmmeta_affine": [
    [-2.6724321842193604, -0.17281833291053772, 0.16331878304481506, 115.25556182861328],
    [-0.17414698004722595, 2.6772165298461914, -0.016891341656446457, -98.87989044189453],
    [0.16085948050022125, 0.02725275605916977, 2.695003032684326, -76.5939712524414],
    [0.0, 0.0, 0.0, 1.0]
],
  "dcmmeta_reorient_transform": [
    [0.0, -1.0, 0.0, 81.0],
    [1.0, 0.0, 0.0, 0.0],
    [0.0, 0.0, 1.0, 0.0],
    [0.0, 0.0, 0.0, 1.0]
],
  "dcmmeta_shape": [82, 82, 56, 914],
  "dcmmeta_slice_dim": 2,
  "dcmmeta_version": 0.6,
  "global": {
    "const": {
      "AccessionNumber": "A004536",
      "AcquisitionMatrix": [82, 0, 0, 82],
      "AngioFlag": "N",
      "BitsAllocated": 16,
      "BitsStored": 16,
      "BodyPartExamined": "BRAIN",
      "Columns": 656,
      "EchoNumbers": 1,
      "EchoTime": 27.2,
      "EchoTrainLength": 82,
      "FlipAngle": 44.0,
      "HighBit": 15,
      "ImageOrientationPatient": [0.99608833526126, 0.06490932642141, 0.05995671521998, -0.064414105894, 0.99787155543677, -0.0101578448541],
      "ImagePositionPatient": [-818.64645332991, -936.31594096609, -112.73162970849],
      "ImageType": [
        "ORIGINAL",
        "PRIMARY",
        "M",
        "MB",
        "ND",
        "NORM",
        "MOSAIC"
],
      "ImagedNucleus": "1H",
      "ImagingFrequency": 123.259072,
      "InPlanePhaseEncodingDirection": "COL",
      "MRAcquisitionType": "2D",
      "MagneticFieldStrength": 3.0,
      "Manufacturer": "SIEMENS",
      "ManufacturerModelName": "Prisma",
      "Modality": "MR",
      "NumberOfAverages": 1.0,
      "NumberOfPhaseEncodingSteps": 82,
      "PercentPhaseFieldOfView": 100.0,
      "PercentSampling": 100.0,
      "PerformedProcedureStepStartTime": "131216.647000",
      "PhotometricInterpretation": "MONOCHROME2",
      "PixelBandwidth": 3050.0,
      "PixelRepresentation": 0,
      "PixelSpacing": [2.6829268932343, 2.6829268932343],
      "ProtocolName": "func_run-03_task-faces_acq-ap-mb8",
      "RepetitionTime": 460.0,
      "Rows": 656,
      "SAR": 0.08792011311212,
      "SamplesPerPixel": 1,
      "ScanOptions": "FS",
      "ScanningSequence": "EP",
      "SequenceName": "epfid2d1_82",
      "SequenceVariant": [
        "SK",
        "SS"
],
      "SeriesDescription": "func_run-03_task-faces_acq-ap-mb8",
      "SeriesNumber": 20,
      "SeriesTime": "143342.828000",
      "SliceLocation": -68.861991703908,
      "SliceThickness": 2.7000000476837,
      "SmallestImagePixelValue": 0,
      "SoftwareVersions": "syngo MR E11",
      "SpacingBetweenSlices": 2.6999999339346,
      "SpecificCharacterSet": "ISO_IR 100",
      "StudyID": "1",
      "StudyTime": "131216.428000",
      "TransmitCoilName": "Body",
      "VariableFlipAngleFlag": "N",
      "WindowCenterWidthExplanation": "Algo1"
    },
    "slices": {}
  },
  "time": {
    "samples": {
      "AcquisitionNumber": [1, 2, 3, 4, 5, 6, 7, 8, 9, 10, 11, 12, 13, 14, 15, 16, 17, 18, 19, 20, 21, 22, 23, 24, 25, 26, 27, 28, 29, 30, 31, 32, 33, 34, 35, 36, 37, 38, 39, 40, 41, 42, 43, 44, 45, 46, 47, 48, 49, 50, 51, 52, 53, 54, 55, 56, 57, 58, 59, 60, 61, 62, 63, 64, 65, 66, 67, 68, 69, 70, 71, 72, 73, 74, 75, 76, 77, 78, 79, 80, 81, 82, 83, 84, 85, 86, 87, 88, 89, 90, 91, 92, 93, 94, 95, 96, 97, 98, 99, 100, 101, 102, 103, 104, 105, 106, 107, 108, 109, 110, 111, 112, 113, 114, 115, 116, 117, 118, 119, 120, 121, 122, 123, 124, 125, 126, 127, 128, 129, 130, 131, 132, 133, 134, 135, 136, 137, 138, 139, 140, 141, 142, 143, 144, 145, 146, 147, 148, 149, 150, 151, 152, 153, 154, 155, 156, 157, 158, 159, 160, 161, 162, 163, 164, 165, 166, 167, 168, 169, 170, 171, 172, 173, 174, 175, 176, 177, 178, 179, 180, 181, 182, 183, 184, 185, 186, 187, 188, 189, 190, 191, 192, 193, 194, 195, 196, 197, 198, 199, 200, 201, 202, 203, 204, 205, 206, 207, 208, 209, 210, 211, 212, 213, 214, 215, 216, 217, 218, 219, 220, 221, 222, 223, 224, 225, 226, 227, 228, 229, 230, 231, 232, 233, 234, 235, 236, 237, 238, 239, 240, 241, 242, 243, 244, 245, 246, 247, 248, 249, 250, 251, 252, 253, 254, 255, 256, 257, 258, 259, 260, 261, 262, 263, 264, 265, 266, 267, 268, 269, 270, 271, 272, 273, 274, 275, 276, 277, 278, 279, 280, 281, 282, 283, 284, 285, 286, 287, 288, 289, 290, 291, 292, 293, 294, 295, 296, 297, 298, 299, 300, 301, 302, 303, 304, 305, 306, 307, 308, 309, 310, 311, 312, 313, 314, 315, 316, 317, 318, 319, 320, 321, 322, 323, 324, 325, 326, 327, 328, 329, 330, 331, 332, 333, 334, 335, 336, 337, 338, 339, 340, 341, 342, 343, 344, 345, 346, 347, 348, 349, 350, 351, 352, 353, 354, 355, 356, 357, 358, 359, 360, 361, 362, 363, 364, 365, 366, 367, 368, 369, 370, 371, 372, 373, 374, 375, 376, 377, 378, 379, 380, 381, 382, 383, 384, 385, 386, 387, 388, 389, 390, 391, 392, 393, 394, 395, 396, 397, 398, 399, 400, 401, 402, 403, 404, 405, 406, 407, 408, 409, 410, 411, 412, 413, 414, 415, 416, 417, 418, 419, 420, 421, 422, 423, 424, 425, 426, 427, 428, 429, 430, 431, 432, 433, 434, 435, 436, 437, 438, 439, 440, 441, 442, 443, 444, 445, 446, 447, 448, 449, 450, 451, 452, 453, 454, 455, 456, 457, 458, 459, 460, 461, 462, 463, 464, 465, 466, 467, 468, 469, 470, 471, 472, 473, 474, 475, 476, 477, 478, 479, 480, 481, 482, 483, 484, 485, 486, 487, 488, 489, 490, 491, 492, 493, 494, 495, 496, 497, 498, 499, 500, 501, 502, 503, 504, 505, 506, 507, 508, 509, 510, 511, 512, 513, 514, 515, 516, 517, 518, 519, 520, 521, 522, 523, 524, 525, 526, 527, 528, 529, 530, 531, 532, 533, 534, 535, 536, 537, 538, 539, 540, 541, 542, 543, 544, 545, 546, 547, 548, 549, 550, 551, 552, 553, 554, 555, 556, 557, 558, 559, 560, 561, 562, 563, 564, 565, 566, 567, 568, 569, 570, 571, 572, 573, 574, 575, 576, 577, 578, 579, 580, 581, 582, 583, 584, 585, 586, 587, 588, 589, 590, 591, 592, 593, 594, 595, 596, 597, 598, 599, 600, 601, 602, 603, 604, 605, 606, 607, 608, 609, 610, 611, 612, 613, 614, 615, 616, 617, 618, 619, 620, 621, 622, 623, 624, 625, 626, 627, 628, 629, 630, 631, 632, 633, 634, 635, 636, 637, 638, 639, 640, 641, 642, 643, 644, 645, 646, 647, 648, 649, 650, 651, 652, 653, 654, 655, 656, 657, 658, 659, 660, 661, 662, 663, 664, 665, 666, 667, 668, 669, 670, 671, 672, 673, 674, 675, 676, 677, 678, 679, 680, 681, 682, 683, 684, 685, 686, 687, 688, 689, 690, 691, 692, 693, 694, 695, 696, 697, 698, 699, 700, 701, 702, 703, 704, 705, 706, 707, 708, 709, 710, 711, 712, 713, 714, 715, 716, 717, 718, 719, 720, 721, 722, 723, 724, 725, 726, 727, 728, 729, 730, 731, 732, 733, 734, 735, 736, 737, 738, 739, 740, 741, 742, 743, 744, 745, 746, 747, 748, 749, 750, 751, 752, 753, 754, 755, 756, 757, 758, 759, 760, 761, 762, 763, 764, 765, 766, 767, 768, 769, 770, 771, 772, 773, 774, 775, 776, 777, 778, 779, 780, 781, 782, 783, 784, 785, 786, 787, 788, 789, 790, 791, 792, 793, 794, 795, 796, 797, 798, 799, 800, 801, 802, 803, 804, 805, 806, 807, 808, 809, 810, 811, 812, 813, 814, 815, 816, 817, 818, 819, 820, 821, 822, 823, 824, 825, 826, 827, 828, 829, 830, 831, 832, 833, 834, 835, 836, 837, 838, 839, 840, 841, 842, 843, 844, 845, 846, 847, 848, 849, 850, 851, 852, 853, 854, 855, 856, 857, 858, 859, 860, 861, 862, 863, 864, 865, 866, 867, 868, 869, 870, 871, 872, 873, 874, 875, 876, 877, 878, 879, 880, 881, 882, 883, 884, 885, 886, 887, 888, 889, 890, 891, 892, 893, 894, 895, 896, 897, 898, 899, 900, 901, 902, 903, 904, 905, 906, 907, 908, 909, 910, 911, 912, 913, 914],
      "AcquisitionTime": ["143316.237500", "143316.697500", "143317.157500", "143317.617500", "143318.077500", "143318.537500", "143318.997500", "143319.457500", "143319.917500", "143320.377500", "143320.837500", "143321.297500", "143321.757500", "143322.217500", "143322.677500", "143323.137500", "143323.597500", "143324.057500", "143324.517500", "143324.977500", "143325.437500", "143325.897500", "143326.357500", "143326.817500", "143327.277500", "143327.737500", "143328.197500", "143328.657500", "143329.117500", "143329.577500", "143330.037500", "143330.497500", "143330.957500", "143331.417500", "143331.877500", "143332.337500", "143332.797500", "143333.257500", "143333.717500", "143334.177500", "143334.637500", "143335.097500", "143335.557500", "143336.017500", "143336.477500", "143336.937500", "143337.397500", "143337.857500", "143338.317500", "143338.777500", "143339.237500", "143339.697500", "143340.157500", "143340.617500", "143341.077500", "143341.537500", "143341.997500", "143342.457500", "143342.917500", "143343.377500", "143343.837500", "143344.297500", "143344.757500", "143345.217500", "143345.677500", "143346.137500", "143346.597500", "143347.057500", "143347.517500", "143347.977500", "143348.437500", "143348.897500", "143349.357500", "143349.817500", "143350.277500", "143350.737500", "143351.197500", "143351.657500", "143352.117500", "143352.577500", "143353.037500", "143353.497500", "143353.957500", "143354.417500", "143354.877500", "143355.337500", "143355.797500", "143356.257500", "143356.717500", "143357.177500", "143357.637500", "143358.097500", "143358.557500", "143359.017500", "143359.477500", "143359.937500", "143400.397500", "143400.857500", "143401.317500", "143401.777500", "143402.237500", "143402.697500", "143403.157500", "143403.617500", "143404.077500", "143404.537500", "143404.997500", "143405.457500", "143405.917500", "143406.377500", "143406.837500", "143407.297500", "143407.757500", "143408.217500", "143408.677500", "143409.137500", "143409.597500", "143410.057500", "143410.517500", "143410.977500", "143411.437500", "143411.897500", "143412.357500", "143412.817500", "143413.277500", "143413.737500", "143414.197500", "143414.657500", "143415.117500", "143415.577500", "143416.037500", "143416.497500", "143416.957500", "143417.417500", "143417.877500", "143418.337500", "143418.797500", "143419.257500", "143419.717500", "143420.177500", "143420.637500", "143421.097500", "143421.557500", "143422.017500", "143422.477500", "143422.937500", "143423.397500", "143423.857500", "143424.317500", "143424.777500", "143425.237500", "143425.697500", "143426.157500", "143426.617500", "143427.077500", "143427.537500", "143427.997500", "143428.457500", "143428.917500", "143429.377500", "143429.837500", "143430.297500", "143430.757500", "143431.217500", "143431.677500", "143432.137500", "143432.597500", "143433.057500", "143433.517500", "143433.977500", "143434.437500", "143434.897500", "143435.357500", "143435.817500", "143436.277500", "143436.737500", "143437.197500", "143437.657500", "143438.117500", "143438.577500", "143439.037500", "143439.497500", "143439.957500", "143440.417500", "143440.877500", "143441.337500", "143441.797500", "143442.257500", "143442.717500", "143443.177500", "143443.637500", "143444.097500", "143444.557500", "143445.017500", "143445.477500", "143445.937500", "143446.397500", "143446.857500", "143447.317500", "143447.777500", "143448.237500", "143448.697500", "143449.157500", "143449.617500", "143450.077500", "143450.537500", "143450.997500", "143451.457500", "143451.917500", "143452.377500", "143452.837500", "143453.297500", "143453.757500", "143454.217500", "143454.677500", "143455.137500", "143455.597500", "143456.057500", "143456.517500", "143456.977500", "143457.437500", "143457.897500", "143458.357500", "143458.817500", "143459.277500", "143459.737500", "143500.197500", "143500.657500", "143501.117500", "143501.577500", "143502.037500", "143502.497500", "143502.957500", "143503.417500", "143503.877500", "143504.337500", "143504.797500", "143505.257500", "143505.717500", "143506.177500", "143506.637500", "143507.097500", "143507.557500", "143508.017500", "143508.477500", "143508.937500", "143509.397500", "143509.857500", "143510.317500", "143510.777500", "143511.237500", "143511.697500", "143512.157500", "143512.617500", "143513.077500", "143513.537500", "143513.997500", "143514.457500", "143514.917500", "143515.377500", "143515.837500", "143516.297500", "143516.757500", "143517.217500", "143517.677500", "143518.137500", "143518.597500", "143519.057500", "143519.517500", "143519.977500", "143520.437500", "143520.897500", "143521.357500", "143521.817500", "143522.277500", "143522.737500", "143523.197500", "143523.657500", "143524.117500", "143524.577500", "143525.037500", "143525.497500", "143525.957500", "143526.417500", "143526.877500", "143527.337500", "143527.797500", "143528.257500", "143528.717500", "143529.177500", "143529.637500", "143530.097500", "143530.557500", "143531.017500", "143531.477500", "143531.937500", "143532.397500", "143532.857500", "143533.317500", "143533.777500", "143534.237500", "143534.697500", "143535.157500", "143535.617500", "143536.077500", "143536.537500", "143536.997500", "143537.457500", "143537.917500", "143538.377500", "143538.837500", "143539.297500", "143539.757500", "143540.217500", "143540.677500", "143541.137500", "143541.597500", "143542.057500", "143542.517500", "143542.977500", "143543.437500", "143543.897500", "143544.357500", "143544.817500", "143545.277500", "143545.737500", "143546.197500", "143546.657500", "143547.117500", "143547.577500", "143548.037500", "143548.497500", "143548.957500", "143549.417500", "143549.877500", "143550.337500", "143550.797500", "143551.257500", "143551.717500", "143552.177500", "143552.637500", "143553.097500", "143553.557500", "143554.017500", "143554.477500", "143554.937500", "143555.397500", "143555.857500", "143556.317500", "143556.777500", "143557.237500", "143557.697500", "143558.157500", "143558.617500", "143559.077500", "143559.537500", "143559.997500", "143600.457500", "143600.917500", "143601.377500", "143601.837500", "143602.297500", "143602.757500", "143603.217500", "143603.677500", "143604.137500", "143604.597500", "143605.057500", "143605.517500", "143605.977500", "143606.437500", "143606.897500", "143607.357500", "143607.817500", "143608.277500", "143608.737500", "143609.197500", "143609.657500", "143610.117500", "143610.577500", "143611.037500", "143611.497500", "143611.957500", "143612.417500", "143612.877500", "143613.337500", "143613.797500", "143614.257500", "143614.717500", "143615.177500", "143615.637500", "143616.097500", "143616.557500", "143617.017500", "143617.477500", "143617.937500", "143618.397500", "143618.857500", "143619.317500", "143619.777500", "143620.237500", "143620.697500", "143621.157500", "143621.617500", "143622.077500", "143622.537500", "143622.997500", "143623.457500", "143623.917500", "143624.377500", "143624.837500", "143625.297500", "143625.757500", "143626.217500", "143626.677500", "143627.137500", "143627.597500", "143628.057500", "143628.517500", "143628.977500", "143629.437500", "143629.897500", "143630.357500", "143630.817500", "143631.277500", "143631.737500", "143632.197500", "143632.657500", "143633.117500", "143633.577500", "143634.037500", "143634.497500", "143634.957500", "143635.417500", "143635.877500", "143636.337500", "143636.797500", "143637.257500", "143637.717500", "143638.177500", "143638.637500", "143639.097500", "143639.557500", "143640.017500", "143640.477500", "143640.937500", "143641.397500", "143641.857500", "143642.317500", "143642.777500", "143643.237500", "143643.697500", "143644.157500", "143644.617500", "143645.077500", "143645.537500", "143645.997500", "143646.457500", "143646.917500", "143647.377500", "143647.837500", "143648.297500", "143648.757500", "143649.217500", "143649.677500", "143650.137500", "143650.597500", "143651.057500", "143651.517500", "143651.977500", "143652.437500", "143652.897500", "143653.357500", "143653.817500", "143654.277500", "143654.737500", "143655.197500", "143655.657500", "143656.117500", "143656.577500", "143657.037500", "143657.497500", "143657.957500", "143658.417500", "143658.877500", "143659.337500", "143659.797500", "143700.257500", "143700.717500", "143701.177500", "143701.637500", "143702.097500", "143702.557500", "143703.017500", "143703.477500", "143703.937500", "143704.397500", "143704.857500", "143705.317500", "143705.777500", "143706.237500", "143706.697500", "143707.157500", "143707.617500", "143708.077500", "143708.537500", "143708.997500", "143709.457500", "143709.917500", "143710.377500", "143710.837500", "143711.297500", "143711.757500", "143712.217500", "143712.677500", "143713.137500", "143713.597500", "143714.057500", "143714.517500", "143714.977500", "143715.437500", "143715.897500", "143716.357500", "143716.817500", "143717.277500", "143717.737500", "143718.197500", "143718.657500", "143719.117500", "143719.577500", "143720.037500", "143720.497500", "143720.957500", "143721.417500", "143721.877500", "143722.337500", "143722.797500", "143723.257500", "143723.717500", "143724.177500", "143724.637500", "143725.097500", "143725.557500", "143726.017500", "143726.477500", "143726.937500", "143727.397500", "143727.857500", "143728.317500", "143728.777500", "143729.237500", "143729.697500", "143730.157500", "143730.617500", "143731.077500", "143731.537500", "143731.997500", "143732.457500", "143732.917500", "143733.377500", "143733.837500", "143734.297500", "143734.757500", "143735.217500", "143735.677500", "143736.137500", "143736.597500", "143737.057500", "143737.517500", "143737.977500", "143738.437500", "143738.897500", "143739.357500", "143739.817500", "143740.277500", "143740.737500", "143741.197500", "143741.657500", "143742.117500", "143742.577500", "143743.037500", "143743.497500", "143743.957500", "143744.417500", "143744.877500", "143745.337500", "143745.797500", "143746.257500", "143746.717500", "143747.177500", "143747.637500", "143748.097500", "143748.557500", "143749.017500", "143749.477500", "143749.937500", "143750.397500", "143750.857500", "143751.317500", "143751.777500", "143752.237500", "143752.697500", "143753.157500", "143753.617500", "143754.077500", "143754.537500", "143754.997500", "143755.457500", "143755.917500", "143756.377500", "143756.837500", "143757.297500", "143757.757500", "143758.217500", "143758.677500", "143759.137500", "143759.597500", "143800.057500", "143800.517500", "143800.977500", "143801.437500", "143801.897500", "143802.357500", "143802.817500", "143803.277500", "143803.737500", "143804.197500", "143804.657500", "143805.117500", "143805.577500", "143806.037500", "143806.497500", "143806.957500", "143807.417500", "143807.877500", "143808.337500", "143808.797500", "143809.257500", "143809.717500", "143810.177500", "143810.637500", "143811.097500", "143811.557500", "143812.017500", "143812.477500", "143812.937500", "143813.397500", "143813.857500", "143814.317500", "143814.777500", "143815.237500", "143815.697500", "143816.157500", "143816.617500", "143817.077500", "143817.537500", "143817.997500", "143818.457500", "143818.917500", "143819.377500", "143819.837500", "143820.297500", "143820.757500", "143821.217500", "143821.677500", "143822.137500", "143822.597500", "143823.057500", "143823.517500", "143823.977500", "143824.437500", "143824.897500", "143825.357500", "143825.817500", "143826.277500", "143826.737500", "143827.197500", "143827.657500", "143828.117500", "143828.577500", "143829.037500", "143829.497500", "143829.957500", "143830.417500", "143830.877500", "143831.337500", "143831.797500", "143832.257500", "143832.717500", "143833.177500", "143833.637500", "143834.097500", "143834.557500", "143835.017500", "143835.477500", "143835.937500", "143836.397500", "143836.857500", "143837.317500", "143837.777500", "143838.237500", "143838.697500", "143839.157500", "143839.617500", "143840.077500", "143840.537500", "143840.997500", "143841.457500", "143841.917500", "143842.377500", "143842.837500", "143843.297500", "143843.757500", "143844.217500", "143844.677500", "143845.137500", "143845.597500", "143846.057500", "143846.517500", "143846.977500", "143847.437500", "143847.897500", "143848.357500", "143848.817500", "143849.277500", "143849.737500", "143850.197500", "143850.657500", "143851.117500", "143851.577500", "143852.037500", "143852.497500", "143852.957500", "143853.417500", "143853.877500", "143854.337500", "143854.797500", "143855.257500", "143855.717500", "143856.177500", "143856.637500", "143857.097500", "143857.557500", "143858.017500", "143858.477500", "143858.937500", "143859.397500", "143859.857500", "143900.317500", "143900.777500", "143901.237500", "143901.697500", "143902.157500", "143902.617500", "143903.077500", "143903.537500", "143903.997500", "143904.457500", "143904.917500", "143905.377500", "143905.837500", "143906.297500", "143906.757500", "143907.217500", "143907.677500", "143908.137500", "143908.597500", "143909.057500", "143909.517500", "143909.977500", "143910.437500", "143910.897500", "143911.357500", "143911.817500", "143912.277500", "143912.737500", "143913.197500", "143913.657500", "143914.117500", "143914.577500", "143915.037500", "143915.497500", "143915.957500", "143916.417500", "143916.877500", "143917.337500", "143917.797500", "143918.257500", "143918.717500", "143919.177500", "143919.637500", "143920.097500", "143920.557500", "143921.017500", "143921.477500", "143921.937500", "143922.397500", "143922.857500", "143923.317500", "143923.777500", "143924.237500", "143924.697500", "143925.157500", "143925.617500", "143926.077500", "143926.537500", "143926.997500", "143927.457500", "143927.917500", "143928.377500", "143928.837500", "143929.297500", "143929.757500", "143930.217500", "143930.677500", "143931.137500", "143931.597500", "143932.057500", "143932.517500", "143932.977500", "143933.437500", "143933.897500", "143934.357500", "143934.817500", "143935.277500", "143935.737500", "143936.197500", "143936.657500", "143937.117500", "143937.577500", "143938.037500", "143938.497500", "143938.957500", "143939.417500", "143939.877500", "143940.337500", "143940.797500", "143941.257500", "143941.717500", "143942.177500", "143942.637500", "143943.097500", "143943.557500", "143944.017500", "143944.477500", "143944.937500", "143945.397500", "143945.857500", "143946.317500", "143946.777500", "143947.237500", "143947.697500", "143948.157500", "143948.617500", "143949.077500", "143949.537500", "143949.997500", "143950.457500", "143950.917500", "143951.377500", "143951.837500", "143952.297500", "143952.757500", "143953.217500", "143953.677500", "143954.137500", "143954.597500", "143955.057500", "143955.517500", "143955.977500", "143956.437500", "143956.897500", "143957.357500", "143957.817500", "143958.277500", "143958.737500", "143959.197500", "143959.657500", "144000.117500", "144000.577500", "144001.037500", "144001.497500", "144001.957500", "144002.417500", "144002.877500", "144003.337500", "144003.797500", "144004.257500", "144004.717500", "144005.177500", "144005.637500", "144006.097500", "144006.557500", "144007.017500", "144007.477500", "144007.937500", "144008.397500", "144008.857500", "144009.317500", "144009.777500", "144010.237500", "144010.697500", "144011.157500", "144011.617500", "144012.077500", "144012.537500", "144012.997500", "144013.457500", "144013.917500", "144014.377500", "144014.837500", "144015.297500", "144015.757500", "144016.217500"],
