{
  "AcquisitionMatrixPE": 82,
  "AcquisitionNumber": 1,
  "AcquisitionTime": "15:14:32.902500",
  "BandwidthPerPixelPhaseEncode": 24.888,
  "BaseResolution": 82,
  "BodyPartExamined": "BRAIN",
  "ConsistencyInfo": "N4_VE11E_LATEST_20181129",
  "ConversionSoftware": "dcm2niix",
  "ConversionSoftwareVersion": "v1.0.20201102",
  "DerivedVendorReportedEchoSpacing": 0.00049,
  "DeviceSerialNumber": "66112",
  "DwellTime": 2e-06,
  "EchoTime": 0.0272,
  "EchoTrainLength": 82,
  "EffectiveEchoSpacing": 0.00049,
  "FlipAngle": 44,
  "ImageComments": "Unaliased MB8/PE3",
  "ImageOrientationPatientDICOM": [0.994838, 0.0671768, 0.0760591, -0.0679957, 0.997652, 0.00822603],
  "ImageType": [
    "ORIGINAL",
    "PRIMARY",
    "M",
    "MB",
    "ND",
    "NORM",
    "MOSAIC"
],
  "ImagingFrequency": 123.259,
  "InPlanePhaseEncodingDirectionDICOM": "COL",
  "InstitutionAddress": "Maynard 3,Hanover,NH,US,03755",
  "InstitutionName": "Dartmouth College - PBS",
  "InstitutionalDepartmentName": "Department",
  "MRAcquisitionType": "2D",
  "MagneticFieldStrength": 3,
  "Manufacturer": "Siemens",
  "ManufacturersModelName": "Prisma",
  "Modality": "MR",
  "MultibandAccelerationFactor": 8,
  "PartialFourier": 1,
  "PatientPosition": "HFS",
  "PercentPhaseFOV": 100,
  "PercentSampling": 100,
  "PhaseEncodingDirection": "j-",
  "PhaseEncodingSteps": 82,
  "PhaseResolution": 1,
  "PixelBandwidth": 3050,
  "ProcedureStepDescription": "Wager_Wager^1076_spacetop",
  "ProtocolName": "func_run-04_task-alignvideo_acq-ap-mb8",
  "PulseSequenceDetails": "%CustomerSeq%\\cmrr_mbep2d_bold",
  "ReceiveCoilActiveElements": "HEA;HEP",
  "ReceiveCoilName": "Head_32",
  "ReconMatrixPE": 82,
  "RepetitionTime": 0.46,
  "SAR": 0.0879201,
  "ScanOptions": "FS",
  "ScanningSequence": "EP",
  "SequenceName": "epfid2d1_82",
  "SequenceVariant": "SK\\SS",
  "SeriesDescription": "func_run-04_task-alignvideo_acq-ap-mb8",
  "SeriesNumber": 36,
  "ShimSetting": [4230, -7790, -7271, 218, -184, -186, -37, 65],
  "SliceThickness": 2.7,
  "SliceTiming": [0, 0.25, 0.0625, 0.3125, 0.125, 0.3775, 0.1875, 0, 0.25, 0.0625, 0.3125, 0.125, 0.3775, 0.1875, 0, 0.25, 0.0625, 0.3125, 0.125, 0.3775, 0.1875, 0, 0.25, 0.0625, 0.3125, 0.125, 0.3775, 0.1875, 0, 0.25, 0.0625, 0.3125, 0.125, 0.3775, 0.1875, 0, 0.25, 0.0625, 0.3125, 0.125, 0.3775, 0.1875, 0, 0.25, 0.0625, 0.3125, 0.125, 0.3775, 0.1875, 0, 0.25, 0.0625, 0.3125, 0.125, 0.3775, 0.1875],
  "SoftwareVersions": "syngo MR E11",
  "SpacingBetweenSlices": 2.7,
  "StationName": "AWP66112",
  "TaskName": "alignvideo",
  "TotalReadoutTime": 0.03969,
  "TxRefAmp": 228.78,
  "WipMemBlock": "b47c6c91-0e4e-41e7-bdf6-0f39b92998e5||Sequence: R016 ve11e/master r/434b28f1; Aug  7 2019 18:53:46 by eja",
  "dcmmeta_affine": [
    [-2.669077157974243, -0.18242745101451874, 0.20338523387908936, 114.51229095458984],
    [-0.18023034930229187, 2.676626682281494, 0.0360591858625412, -100.96334838867188],
    [0.20406092703342438, -0.022069837898015976, 2.692087411880493, -79.16561889648438],
    [0.0, 0.0, 0.0, 1.0]
],
  "dcmmeta_reorient_transform": [
    [0.0, -1.0, 0.0, 81.0],
    [1.0, 0.0, 0.0, 0.0],
    [0.0, 0.0, 1.0, 0.0],
    [0.0, 0.0, 0.0, 1.0]
],
  "dcmmeta_shape": [82, 82, 56, 914],
  "dcmmeta_slice_dim": 2,
  "dcmmeta_version": 0.6,
  "global": {
    "const": {
      "AccessionNumber": "A004536",
      "AcquisitionMatrix": [82, 0, 0, 82],
      "AngioFlag": "N",
      "BitsAllocated": 16,
      "BitsStored": 16,
      "BodyPartExamined": "BRAIN",
      "Columns": 656,
      "EchoNumbers": 1,
      "EchoTime": 27.2,
      "EchoTrainLength": 82,
      "FlipAngle": 44.0,
      "HighBit": 15,
      "ImageOrientationPatient": [0.99483782598657, 0.06717676512352, 0.07605907055606, -0.0679956838554, 0.99765170245128, 0.00822603021483],
      "ImagePositionPatient": [-813.40413145504, -935.76134502035, -145.85280572995],
      "ImageType": [
        "ORIGINAL",
        "PRIMARY",
        "M",
        "MB",
        "ND",
        "NORM",
        "MOSAIC"
],
      "ImagedNucleus": "1H",
      "ImagingFrequency": 123.259077,
      "InPlanePhaseEncodingDirection": "COL",
      "MRAcquisitionType": "2D",
      "MagneticFieldStrength": 3.0,
      "Manufacturer": "SIEMENS",
      "ManufacturerModelName": "Prisma",
      "Modality": "MR",
      "NumberOfAverages": 1.0,
      "NumberOfPhaseEncodingSteps": 82,
      "PercentPhaseFieldOfView": 100.0,
      "PercentSampling": 100.0,
      "PerformedProcedureStepStartTime": "131216.647000",
      "PhotometricInterpretation": "MONOCHROME2",
      "PixelBandwidth": 3050.0,
      "PixelRepresentation": 0,
      "PixelSpacing": [2.6829268932343, 2.6829268932343],
      "ProtocolName": "func_run-04_task-alignvideo_acq-ap-mb8",
      "RepetitionTime": 460.0,
      "Rows": 656,
      "SAR": 0.08792011311212,
      "SamplesPerPixel": 1,
      "ScanOptions": "FS",
      "ScanningSequence": "EP",
      "SequenceName": "epfid2d1_82",
      "SequenceVariant": [
        "SK",
        "SS"
],
      "SeriesDescription": "func_run-04_task-alignvideo_acq-ap-mb8",
      "SeriesNumber": 36,
      "SeriesTime": "151442.721000",
      "SliceLocation": -71.656040678415,
      "SliceThickness": 2.7000000476837,
      "SmallestImagePixelValue": 0,
      "SoftwareVersions": "syngo MR E11",
      "SpacingBetweenSlices": 2.7000000183193,
      "SpecificCharacterSet": "ISO_IR 100",
      "StudyID": "1",
      "StudyTime": "131216.428000",
      "TransmitCoilName": "Body",
      "VariableFlipAngleFlag": "N",
      "WindowCenterWidthExplanation": "Algo1"
    },
    "slices": {}
  },
  "time": {
    "samples": {
      "AcquisitionNumber": [1, 2, 3, 4, 5, 6, 7, 8, 9, 10, 11, 12, 13, 14, 15, 16, 17, 18, 19, 20, 21, 22, 23, 24, 25, 26, 27, 28, 29, 30, 31, 32, 33, 34, 35, 36, 37, 38, 39, 40, 41, 42, 43, 44, 45, 46, 47, 48, 49, 50, 51, 52, 53, 54, 55, 56, 57, 58, 59, 60, 61, 62, 63, 64, 65, 66, 67, 68, 69, 70, 71, 72, 73, 74, 75, 76, 77, 78, 79, 80, 81, 82, 83, 84, 85, 86, 87, 88, 89, 90, 91, 92, 93, 94, 95, 96, 97, 98, 99, 100, 101, 102, 103, 104, 105, 106, 107, 108, 109, 110, 111, 112, 113, 114, 115, 116, 117, 118, 119, 120, 121, 122, 123, 124, 125, 126, 127, 128, 129, 130, 131, 132, 133, 134, 135, 136, 137, 138, 139, 140, 141, 142, 143, 144, 145, 146, 147, 148, 149, 150, 151, 152, 153, 154, 155, 156, 157, 158, 159, 160, 161, 162, 163, 164, 165, 166, 167, 168, 169, 170, 171, 172, 173, 174, 175, 176, 177, 178, 179, 180, 181, 182, 183, 184, 185, 186, 187, 188, 189, 190, 191, 192, 193, 194, 195, 196, 197, 198, 199, 200, 201, 202, 203, 204, 205, 206, 207, 208, 209, 210, 211, 212, 213, 214, 215, 216, 217, 218, 219, 220, 221, 222, 223, 224, 225, 226, 227, 228, 229, 230, 231, 232, 233, 234, 235, 236, 237, 238, 239, 240, 241, 242, 243, 244, 245, 246, 247, 248, 249, 250, 251, 252, 253, 254, 255, 256, 257, 258, 259, 260, 261, 262, 263, 264, 265, 266, 267, 268, 269, 270, 271, 272, 273, 274, 275, 276, 277, 278, 279, 280, 281, 282, 283, 284, 285, 286, 287, 288, 289, 290, 291, 292, 293, 294, 295, 296, 297, 298, 299, 300, 301, 302, 303, 304, 305, 306, 307, 308, 309, 310, 311, 312, 313, 314, 315, 316, 317, 318, 319, 320, 321, 322, 323, 324, 325, 326, 327, 328, 329, 330, 331, 332, 333, 334, 335, 336, 337, 338, 339, 340, 341, 342, 343, 344, 345, 346, 347, 348, 349, 350, 351, 352, 353, 354, 355, 356, 357, 358, 359, 360, 361, 362, 363, 364, 365, 366, 367, 368, 369, 370, 371, 372, 373, 374, 375, 376, 377, 378, 379, 380, 381, 382, 383, 384, 385, 386, 387, 388, 389, 390, 391, 392, 393, 394, 395, 396, 397, 398, 399, 400, 401, 402, 403, 404, 405, 406, 407, 408, 409, 410, 411, 412, 413, 414, 415, 416, 417, 418, 419, 420, 421, 422, 423, 424, 425, 426, 427, 428, 429, 430, 431, 432, 433, 434, 435, 436, 437, 438, 439, 440, 441, 442, 443, 444, 445, 446, 447, 448, 449, 450, 451, 452, 453, 454, 455, 456, 457, 458, 459, 460, 461, 462, 463, 464, 465, 466, 467, 468, 469, 470, 471, 472, 473, 474, 475, 476, 477, 478, 479, 480, 481, 482, 483, 484, 485, 486, 487, 488, 489, 490, 491, 492, 493, 494, 495, 496, 497, 498, 499, 500, 501, 502, 503, 504, 505, 506, 507, 508, 509, 510, 511, 512, 513, 514, 515, 516, 517, 518, 519, 520, 521, 522, 523, 524, 525, 526, 527, 528, 529, 530, 531, 532, 533, 534, 535, 536, 537, 538, 539, 540, 541, 542, 543, 544, 545, 546, 547, 548, 549, 550, 551, 552, 553, 554, 555, 556, 557, 558, 559, 560, 561, 562, 563, 564, 565, 566, 567, 568, 569, 570, 571, 572, 573, 574, 575, 576, 577, 578, 579, 580, 581, 582, 583, 584, 585, 586, 587, 588, 589, 590, 591, 592, 593, 594, 595, 596, 597, 598, 599, 600, 601, 602, 603, 604, 605, 606, 607, 608, 609, 610, 611, 612, 613, 614, 615, 616, 617, 618, 619, 620, 621, 622, 623, 624, 625, 626, 627, 628, 629, 630, 631, 632, 633, 634, 635, 636, 637, 638, 639, 640, 641, 642, 643, 644, 645, 646, 647, 648, 649, 650, 651, 652, 653, 654, 655, 656, 657, 658, 659, 660, 661, 662, 663, 664, 665, 666, 667, 668, 669, 670, 671, 672, 673, 674, 675, 676, 677, 678, 679, 680, 681, 682, 683, 684, 685, 686, 687, 688, 689, 690, 691, 692, 693, 694, 695, 696, 697, 698, 699, 700, 701, 702, 703, 704, 705, 706, 707, 708, 709, 710, 711, 712, 713, 714, 715, 716, 717, 718, 719, 720, 721, 722, 723, 724, 725, 726, 727, 728, 729, 730, 731, 732, 733, 734, 735, 736, 737, 738, 739, 740, 741, 742, 743, 744, 745, 746, 747, 748, 749, 750, 751, 752, 753, 754, 755, 756, 757, 758, 759, 760, 761, 762, 763, 764, 765, 766, 767, 768, 769, 770, 771, 772, 773, 774, 775, 776, 777, 778, 779, 780, 781, 782, 783, 784, 785, 786, 787, 788, 789, 790, 791, 792, 793, 794, 795, 796, 797, 798, 799, 800, 801, 802, 803, 804, 805, 806, 807, 808, 809, 810, 811, 812, 813, 814, 815, 816, 817, 818, 819, 820, 821, 822, 823, 824, 825, 826, 827, 828, 829, 830, 831, 832, 833, 834, 835, 836, 837, 838, 839, 840, 841, 842, 843, 844, 845, 846, 847, 848, 849, 850, 851, 852, 853, 854, 855, 856, 857, 858, 859, 860, 861, 862, 863, 864, 865, 866, 867, 868, 869, 870, 871, 872, 873, 874, 875, 876, 877, 878, 879, 880, 881, 882, 883, 884, 885, 886, 887, 888, 889, 890, 891, 892, 893, 894, 895, 896, 897, 898, 899, 900, 901, 902, 903, 904, 905, 906, 907, 908, 909, 910, 911, 912, 913, 914],
      "AcquisitionTime": ["151432.902500", "151433.362500", "151433.822500", "151434.282500", "151434.742500", "151435.202500", "151435.662500", "151436.122500", "151436.582500", "151437.042500", "151437.502500", "151437.962500", "151438.422500", "151438.882500", "151439.342500", "151439.802500", "151440.262500", "151440.722500", "151441.182500", "151441.642500", "151442.102500", "151442.562500", "151443.022500", "151443.482500", "151443.942500", "151444.402500", "151444.862500", "151445.322500", "151445.782500", "151446.242500", "151446.702500", "151447.162500", "151447.622500", "151448.082500", "151448.542500", "151449.002500", "151449.462500", "151449.922500", "151450.382500", "151450.842500", "151451.302500", "151451.762500", "151452.222500", "151452.682500", "151453.142500", "151453.602500", "151454.062500", "151454.522500", "151454.982500", "151455.442500", "151455.902500", "151456.362500", "151456.822500", "151457.282500", "151457.742500", "151458.202500", "151458.662500", "151459.122500", "151459.582500", "151500.042500", "151500.502500", "151500.962500", "151501.422500", "151501.882500", "151502.342500", "151502.802500", "151503.262500", "151503.722500", "151504.182500", "151504.642500", "151505.102500", "151505.562500", "151506.022500", "151506.482500", "151506.942500", "151507.402500", "151507.862500", "151508.322500", "151508.782500", "151509.242500", "151509.702500", "151510.162500", "151510.622500", "151511.082500", "151511.542500", "151512.002500", "151512.462500", "151512.922500", "151513.382500", "151513.842500", "151514.302500", "151514.762500", "151515.222500", "151515.682500", "151516.142500", "151516.602500", "151517.062500", "151517.522500", "151517.982500", "151518.442500", "151518.902500", "151519.362500", "151519.822500", "151520.282500", "151520.742500", "151521.202500", "151521.662500", "151522.122500", "151522.582500", "151523.042500", "151523.502500", "151523.962500", "151524.422500", "151524.882500", "151525.342500", "151525.802500", "151526.262500", "151526.722500", "151527.182500", "151527.642500", "151528.102500", "151528.562500", "151529.022500", "151529.482500", "151529.942500", "151530.402500", "151530.862500", "151531.322500", "151531.782500", "151532.242500", "151532.702500", "151533.162500", "151533.622500", "151534.082500", "151534.542500", "151535.002500", "151535.462500", "151535.922500", "151536.382500", "151536.842500", "151537.302500", "151537.762500", "151538.222500", "151538.682500", "151539.142500", "151539.602500", "151540.062500", "151540.522500", "151540.982500", "151541.442500", "151541.902500", "151542.362500", "151542.822500", "151543.282500", "151543.742500", "151544.202500", "151544.662500", "151545.122500", "151545.582500", "151546.042500", "151546.502500", "151546.962500", "151547.422500", "151547.882500", "151548.342500", "151548.802500", "151549.262500", "151549.722500", "151550.182500", "151550.642500", "151551.102500", "151551.562500", "151552.022500", "151552.482500", "151552.942500", "151553.402500", "151553.862500", "151554.322500", "151554.782500", "151555.242500", "151555.702500", "151556.162500", "151556.622500", "151557.082500", "151557.542500", "151558.002500", "151558.462500", "151558.922500", "151559.382500", "151559.842500", "151600.302500", "151600.762500", "151601.222500", "151601.682500", "151602.142500", "151602.602500", "151603.062500", "151603.522500", "151603.982500", "151604.442500", "151604.902500", "151605.362500", "151605.822500", "151606.282500", "151606.742500", "151607.202500", "151607.662500", "151608.122500", "151608.582500", "151609.042500", "151609.502500", "151609.962500", "151610.422500", "151610.882500", "151611.342500", "151611.802500", "151612.262500", "151612.722500", "151613.182500", "151613.642500", "151614.102500", "151614.562500", "151615.022500", "151615.482500", "151615.942500", "151616.402500", "151616.862500", "151617.322500", "151617.782500", "151618.242500", "151618.702500", "151619.162500", "151619.622500", "151620.082500", "151620.542500", "151621.002500", "151621.462500", "151621.922500", "151622.382500", "151622.842500", "151623.302500", "151623.762500", "151624.222500", "151624.682500", "151625.142500", "151625.602500", "151626.062500", "151626.522500", "151626.982500", "151627.442500", "151627.902500", "151628.362500", "151628.822500", "151629.282500", "151629.742500", "151630.202500", "151630.662500", "151631.122500", "151631.582500", "151632.042500", "151632.502500", "151632.962500", "151633.422500", "151633.882500", "151634.342500", "151634.802500", "151635.262500", "151635.722500", "151636.182500", "151636.642500", "151637.102500", "151637.562500", "151638.022500", "151638.482500", "151638.942500", "151639.402500", "151639.862500", "151640.322500", "151640.782500", "151641.242500", "151641.702500", "151642.162500", "151642.622500", "151643.082500", "151643.542500", "151644.002500", "151644.462500", "151644.922500", "151645.382500", "151645.842500", "151646.302500", "151646.762500", "151647.222500", "151647.682500", "151648.142500", "151648.602500", "151649.062500", "151649.522500", "151649.982500", "151650.442500", "151650.902500", "151651.362500", "151651.822500", "151652.282500", "151652.742500", "151653.202500", "151653.662500", "151654.122500", "151654.582500", "151655.042500", "151655.502500", "151655.962500", "151656.422500", "151656.882500", "151657.342500", "151657.802500", "151658.262500", "151658.722500", "151659.182500", "151659.642500", "151700.102500", "151700.562500", "151701.022500", "151701.482500", "151701.942500", "151702.402500", "151702.862500", "151703.322500", "151703.782500", "151704.242500", "151704.702500", "151705.162500", "151705.622500", "151706.082500", "151706.542500", "151707.002500", "151707.462500", "151707.922500", "151708.382500", "151708.842500", "151709.302500", "151709.762500", "151710.222500", "151710.682500", "151711.142500", "151711.602500", "151712.062500", "151712.522500", "151712.982500", "151713.442500", "151713.902500", "151714.362500", "151714.822500", "151715.282500", "151715.742500", "151716.202500", "151716.662500", "151717.122500", "151717.582500", "151718.042500", "151718.502500", "151718.962500", "151719.422500", "151719.882500", "151720.342500", "151720.802500", "151721.262500", "151721.722500", "151722.182500", "151722.642500", "151723.102500", "151723.562500", "151724.022500", "151724.482500", "151724.942500", "151725.402500", "151725.862500", "151726.322500", "151726.782500", "151727.242500", "151727.702500", "151728.162500", "151728.622500", "151729.082500", "151729.542500", "151730.002500", "151730.462500", "151730.922500", "151731.382500", "151731.842500", "151732.302500", "151732.762500", "151733.222500", "151733.682500", "151734.142500", "151734.602500", "151735.062500", "151735.522500", "151735.982500", "151736.442500", "151736.902500", "151737.362500", "151737.822500", "151738.282500", "151738.742500", "151739.202500", "151739.662500", "151740.122500", "151740.582500", "151741.042500", "151741.502500", "151741.962500", "151742.422500", "151742.882500", "151743.342500", "151743.802500", "151744.262500", "151744.722500", "151745.182500", "151745.642500", "151746.102500", "151746.562500", "151747.022500", "151747.482500", "151747.942500", "151748.402500", "151748.862500", "151749.322500", "151749.782500", "151750.242500", "151750.702500", "151751.162500", "151751.622500", "151752.082500", "151752.542500", "151753.002500", "151753.462500", "151753.922500", "151754.382500", "151754.842500", "151755.302500", "151755.762500", "151756.222500", "151756.682500", "151757.142500", "151757.602500", "151758.062500", "151758.522500", "151758.982500", "151759.442500", "151759.902500", "151800.362500", "151800.822500", "151801.282500", "151801.742500", "151802.202500", "151802.662500", "151803.122500", "151803.582500", "151804.042500", "151804.502500", "151804.962500", "151805.422500", "151805.882500", "151806.342500", "151806.802500", "151807.262500", "151807.722500", "151808.182500", "151808.642500", "151809.102500", "151809.562500", "151810.022500", "151810.482500", "151810.942500", "151811.402500", "151811.862500", "151812.322500", "151812.782500", "151813.242500", "151813.702500", "151814.162500", "151814.622500", "151815.082500", "151815.542500", "151816.002500", "151816.462500", "151816.922500", "151817.382500", "151817.842500", "151818.302500", "151818.762500", "151819.222500", "151819.682500", "151820.142500", "151820.602500", "151821.062500", "151821.522500", "151821.982500", "151822.442500", "151822.902500", "151823.362500", "151823.822500", "151824.282500", "151824.742500", "151825.202500", "151825.662500", "151826.122500", "151826.582500", "151827.042500", "151827.502500", "151827.962500", "151828.422500", "151828.882500", "151829.342500", "151829.802500", "151830.262500", "151830.722500", "151831.182500", "151831.642500", "151832.102500", "151832.562500", "151833.022500", "151833.482500", "151833.942500", "151834.402500", "151834.862500", "151835.322500", "151835.782500", "151836.242500", "151836.702500", "151837.162500", "151837.622500", "151838.082500", "151838.542500", "151839.002500", "151839.462500", "151839.922500", "151840.382500", "151840.842500", "151841.302500", "151841.762500", "151842.222500", "151842.682500", "151843.142500", "151843.602500", "151844.062500", "151844.522500", "151844.982500", "151845.442500", "151845.902500", "151846.362500", "151846.822500", "151847.282500", "151847.742500", "151848.202500", "151848.662500", "151849.122500", "151849.582500", "151850.042500", "151850.502500", "151850.962500", "151851.422500", "151851.882500", "151852.342500", "151852.802500", "151853.262500", "151853.722500", "151854.182500", "151854.642500", "151855.102500", "151855.562500", "151856.022500", "151856.482500", "151856.942500", "151857.402500", "151857.862500", "151858.322500", "151858.782500", "151859.242500", "151859.702500", "151900.162500", "151900.622500", "151901.082500", "151901.542500", "151902.002500", "151902.462500", "151902.922500", "151903.382500", "151903.842500", "151904.302500", "151904.762500", "151905.222500", "151905.682500", "151906.142500", "151906.602500", "151907.062500", "151907.522500", "151907.982500", "151908.442500", "151908.902500", "151909.362500", "151909.822500", "151910.282500", "151910.742500", "151911.202500", "151911.662500", "151912.122500", "151912.582500", "151913.042500", "151913.502500", "151913.962500", "151914.422500", "151914.882500", "151915.342500", "151915.802500", "151916.262500", "151916.722500", "151917.182500", "151917.642500", "151918.102500", "151918.562500", "151919.022500", "151919.482500", "151919.942500", "151920.402500", "151920.862500", "151921.322500", "151921.782500", "151922.242500", "151922.702500", "151923.162500", "151923.622500", "151924.082500", "151924.542500", "151925.002500", "151925.462500", "151925.922500", "151926.382500", "151926.842500", "151927.302500", "151927.762500", "151928.222500", "151928.682500", "151929.142500", "151929.602500", "151930.062500", "151930.522500", "151930.982500", "151931.442500", "151931.902500", "151932.362500", "151932.822500", "151933.282500", "151933.742500", "151934.202500", "151934.662500", "151935.122500", "151935.582500", "151936.042500", "151936.502500", "151936.962500", "151937.422500", "151937.882500", "151938.342500", "151938.802500", "151939.262500", "151939.722500", "151940.182500", "151940.642500", "151941.102500", "151941.562500", "151942.022500", "151942.482500", "151942.942500", "151943.402500", "151943.862500", "151944.322500", "151944.782500", "151945.242500", "151945.702500", "151946.162500", "151946.622500", "151947.082500", "151947.542500", "151948.002500", "151948.462500", "151948.922500", "151949.382500", "151949.842500", "151950.302500", "151950.762500", "151951.222500", "151951.682500", "151952.142500", "151952.602500", "151953.062500", "151953.522500", "151953.982500", "151954.442500", "151954.902500", "151955.362500", "151955.822500", "151956.282500", "151956.742500", "151957.202500", "151957.662500", "151958.122500", "151958.582500", "151959.042500", "151959.502500", "151959.962500", "152000.422500", "152000.882500", "152001.342500", "152001.802500", "152002.262500", "152002.722500", "152003.182500", "152003.642500", "152004.102500", "152004.562500", "152005.022500", "152005.482500", "152005.942500", "152006.402500", "152006.862500", "152007.322500", "152007.782500", "152008.242500", "152008.702500", "152009.162500", "152009.622500", "152010.082500", "152010.542500", "152011.002500", "152011.462500", "152011.922500", "152012.382500", "152012.842500", "152013.302500", "152013.762500", "152014.222500", "152014.682500", "152015.142500", "152015.602500", "152016.062500", "152016.522500", "152016.982500", "152017.442500", "152017.902500", "152018.362500", "152018.822500", "152019.282500", "152019.742500", "152020.202500", "152020.662500", "152021.122500", "152021.582500", "152022.042500", "152022.502500", "152022.962500", "152023.422500", "152023.882500", "152024.342500", "152024.802500", "152025.262500", "152025.722500", "152026.182500", "152026.642500", "152027.102500", "152027.562500", "152028.022500", "152028.482500", "152028.942500", "152029.402500", "152029.862500", "152030.322500", "152030.782500", "152031.242500", "152031.702500", "152032.162500", "152032.622500", "152033.082500", "152033.542500", "152034.002500", "152034.462500", "152034.922500", "152035.382500", "152035.842500", "152036.302500", "152036.762500", "152037.222500", "152037.682500", "152038.142500", "152038.602500", "152039.062500", "152039.522500", "152039.982500", "152040.442500", "152040.902500", "152041.362500", "152041.822500", "152042.282500", "152042.742500", "152043.202500", "152043.662500", "152044.122500", "152044.582500", "152045.042500", "152045.502500", "152045.962500", "152046.422500", "152046.882500", "152047.342500", "152047.802500", "152048.262500", "152048.722500", "152049.182500", "152049.642500", "152050.102500", "152050.562500", "152051.022500", "152051.482500", "152051.942500", "152052.402500", "152052.862500", "152053.322500", "152053.782500", "152054.242500", "152054.702500", "152055.162500", "152055.622500", "152056.082500", "152056.542500", "152057.002500", "152057.462500", "152057.922500", "152058.382500", "152058.842500", "152059.302500", "152059.762500", "152100.222500", "152100.682500", "152101.142500", "152101.602500", "152102.062500", "152102.522500", "152102.982500", "152103.442500", "152103.902500", "152104.362500", "152104.822500", "152105.282500", "152105.742500", "152106.202500", "152106.662500", "152107.122500", "152107.582500", "152108.042500", "152108.502500", "152108.962500", "152109.422500", "152109.882500", "152110.342500", "152110.802500", "152111.262500", "152111.722500", "152112.182500", "152112.642500", "152113.102500", "152113.562500", "152114.022500", "152114.482500", "152114.942500", "152115.402500", "152115.862500", "152116.322500", "152116.782500", "152117.242500", "152117.702500", "152118.162500", "152118.622500", "152119.082500", "152119.542500", "152120.002500", "152120.462500", "152120.922500", "152121.382500", "152121.842500", "152122.302500", "152122.762500", "152123.222500", "152123.682500", "152124.142500", "152124.602500", "152125.062500", "152125.522500", "152125.982500", "152126.442500", "152126.902500", "152127.362500", "152127.822500", "152128.282500", "152128.742500", "152129.202500", "152129.662500", "152130.122500", "152130.582500", "152131.042500", "152131.502500", "152131.962500", "152132.422500", "152132.882500"],
