{
  "AcquisitionMatrixPE": 82,
  "AcquisitionNumber": 1,
  "AcquisitionTime": "19:39:45.665000",
  "BandwidthPerPixelPhaseEncode": 24.888,
  "BaseResolution": 82,
  "BodyPartExamined": "BRAIN",
  "ConsistencyInfo": "N4_VE11E_LATEST_20181129",
  "ConversionSoftware": "dcm2niix",
  "ConversionSoftwareVersion": "v1.0.20201102",
  "DerivedVendorReportedEchoSpacing": 0.00049,
  "DeviceSerialNumber": "66112",
  "DwellTime": 2e-06,
  "EchoTime": 0.0272,
  "EchoTrainLength": 82,
  "EffectiveEchoSpacing": 0.00049,
  "FlipAngle": 44,
  "ImageComments": "Unaliased MB8/PE3",
  "ImageOrientationPatientDICOM": [0.994993, -0.0952855, 0.0301695, 0.0900262, 0.985535, 0.143583],
  "ImageType": [
    "ORIGINAL",
    "PRIMARY",
    "M",
    "MB",
    "ND",
    "NORM",
    "MOSAIC"
],
  "ImagingFrequency": 123.259,
  "InPlanePhaseEncodingDirectionDICOM": "COL",
  "InstitutionAddress": "Maynard 3,Hanover,NH,US,03755",
  "InstitutionName": "Dartmouth College - PBS",
  "InstitutionalDepartmentName": "Department",
  "MRAcquisitionType": "2D",
  "MagneticFieldStrength": 3,
  "Manufacturer": "Siemens",
  "ManufacturersModelName": "Prisma",
  "Modality": "MR",
  "MultibandAccelerationFactor": 8,
  "PartialFourier": 1,
  "PatientPosition": "HFS",
  "PercentPhaseFOV": 100,
  "PercentSampling": 100,
  "PhaseEncodingDirection": "j-",
  "PhaseEncodingSteps": 82,
  "PhaseResolution": 1,
  "PixelBandwidth": 3050,
  "ProcedureStepDescription": "Wager_Wager^1076_spacetop",
  "ProtocolName": "func_run-05_task-social_acq-ap-mb8",
  "PulseSequenceDetails": "%CustomerSeq%\\cmrr_mbep2d_bold",
  "ReceiveCoilActiveElements": "HEA;HEP",
  "ReceiveCoilName": "Head_32",
  "ReconMatrixPE": 82,
  "RepetitionTime": 0.46,
  "SAR": 0.0950832,
  "ScanOptions": "FS",
  "ScanningSequence": "EP",
  "SequenceName": "epfid2d1_82",
  "SequenceVariant": "SK\\SS",
  "SeriesDescription": "func_run-05_task-social_acq-ap-mb8",
  "SeriesNumber": 20,
  "ShimSetting": [4227, -7778, -7251, 357, -119, -59, -25, 84],
  "SliceThickness": 2.7,
  "SliceTiming": [0, 0.2525, 0.065, 0.315, 0.1275, 0.3775, 0.19, 0, 0.2525, 0.065, 0.315, 0.1275, 0.3775, 0.19, 0, 0.2525, 0.065, 0.315, 0.1275, 0.3775, 0.19, 0, 0.2525, 0.065, 0.315, 0.1275, 0.3775, 0.19, 0, 0.2525, 0.065, 0.315, 0.1275, 0.3775, 0.19, 0, 0.2525, 0.065, 0.315, 0.1275, 0.3775, 0.19, 0, 0.2525, 0.065, 0.315, 0.1275, 0.3775, 0.19, 0, 0.2525, 0.065, 0.315, 0.1275, 0.3775, 0.19],
  "SoftwareVersions": "syngo MR E11",
  "SpacingBetweenSlices": 2.7,
  "StationName": "AWP66112",
  "TaskName": "social",
  "TotalReadoutTime": 0.03969,
  "TxRefAmp": 237.749,
  "WipMemBlock": "0ffb952d-c99f-4f2e-b6b1-149a1b5bb13b||Sequence: R016 ve11e/master r/434b28f1; Aug  7 2019 18:53:46 by eja",
  "dcmmeta_affine": [
    [-2.669492721557617, 0.24153366684913635, 0.11721916496753693, 97.43207550048828],
    [0.25564414262771606, 2.644118070602417, 0.378400593996048, -119.04134368896484],
    [0.0809425413608551, -0.3852236866950989, 2.670781135559082, -58.6703987121582],
    [0.0, 0.0, 0.0, 1.0]
],
  "dcmmeta_reorient_transform": [
    [0.0, -1.0, 0.0, 81.0],
    [1.0, 0.0, 0.0, 0.0],
    [0.0, 0.0, 1.0, 0.0],
    [0.0, 0.0, 0.0, 1.0]
],
  "dcmmeta_shape": [82, 82, 56, 872],
  "dcmmeta_slice_dim": 2,
  "dcmmeta_version": 0.6,
  "global": {
    "const": {
      "AccessionNumber": "A004463",
      "AcquisitionMatrix": [82, 0, 0, 82],
      "AngioFlag": "N",
      "BitsAllocated": 16,
      "BitsStored": 16,
      "BodyPartExamined": "BRAIN",
      "Columns": 656,
      "EchoNumbers": 1,
      "EchoTime": 27.2,
      "EchoTrainLength": 82,
      "FlipAngle": 44.0,
      "HighBit": 15,
      "ImageOrientationPatient": [0.99499269673429, -0.0952855458229, 0.03016949125628, 0.09002618483139, 0.98553493098953, 0.1435833759325],
      "ImagePositionPatient": [-952.46086318611, -780.6242689323, -223.66323081213],
      "ImageType": [
        "ORIGINAL",
        "PRIMARY",
        "M",
        "MB",
        "ND",
        "NORM",
        "MOSAIC"
],
      "ImagedNucleus": "1H",
      "ImagingFrequency": 123.259112,
      "InPlanePhaseEncodingDirection": "COL",
      "MRAcquisitionType": "2D",
      "MagneticFieldStrength": 3.0,
      "Manufacturer": "SIEMENS",
      "ManufacturerModelName": "Prisma",
      "Modality": "MR",
      "NumberOfAverages": 1.0,
      "NumberOfPhaseEncodingSteps": 82,
      "PercentPhaseFieldOfView": 100.0,
      "PercentSampling": 100.0,
      "PerformedProcedureStepStartTime": "182427.489000",
      "PhotometricInterpretation": "MONOCHROME2",
      "PixelBandwidth": 3050.0,
      "PixelRepresentation": 0,
      "PixelSpacing": [2.6829268932343, 2.6829268932343],
      "ProtocolName": "func_run-05_task-social_acq-ap-mb8",
      "RepetitionTime": 460.0,
      "Rows": 656,
      "SAR": 0.09508318509558,
      "SamplesPerPixel": 1,
      "ScanOptions": "FS",
      "ScanningSequence": "EP",
      "SequenceName": "epfid2d1_82",
      "SequenceVariant": [
        "SK",
        "SS"
],
      "SeriesDescription": "func_run-05_task-social_acq-ap-mb8",
      "SeriesNumber": 20,
      "SeriesTime": "194013.914000",
      "SliceLocation": -70.488968353922,
      "SliceThickness": 2.7000000476837,
      "SmallestImagePixelValue": 0,
      "SoftwareVersions": "syngo MR E11",
      "SpacingBetweenSlices": 2.6999999375259,
      "SpecificCharacterSet": "ISO_IR 100",
      "StudyID": "2",
      "StudyTime": "182427.441000",
      "TransmitCoilName": "Body",
      "VariableFlipAngleFlag": "N",
      "WindowCenterWidthExplanation": "Algo1"
    },
    "slices": {}
  },
  "time": {
    "samples": {
      "AcquisitionNumber": [1, 2, 3, 4, 5, 6, 7, 8, 9, 10, 11, 12, 13, 14, 15, 16, 17, 18, 19, 20, 21, 22, 23, 24, 25, 26, 27, 28, 29, 30, 31, 32, 33, 34, 35, 36, 37, 38, 39, 40, 41, 42, 43, 44, 45, 46, 47, 48, 49, 50, 51, 52, 53, 54, 55, 56, 57, 58, 59, 60, 61, 62, 63, 64, 65, 66, 67, 68, 69, 70, 71, 72, 73, 74, 75, 76, 77, 78, 79, 80, 81, 82, 83, 84, 85, 86, 87, 88, 89, 90, 91, 92, 93, 94, 95, 96, 97, 98, 99, 100, 101, 102, 103, 104, 105, 106, 107, 108, 109, 110, 111, 112, 113, 114, 115, 116, 117, 118, 119, 120, 121, 122, 123, 124, 125, 126, 127, 128, 129, 130, 131, 132, 133, 134, 135, 136, 137, 138, 139, 140, 141, 142, 143, 144, 145, 146, 147, 148, 149, 150, 151, 152, 153, 154, 155, 156, 157, 158, 159, 160, 161, 162, 163, 164, 165, 166, 167, 168, 169, 170, 171, 172, 173, 174, 175, 176, 177, 178, 179, 180, 181, 182, 183, 184, 185, 186, 187, 188, 189, 190, 191, 192, 193, 194, 195, 196, 197, 198, 199, 200, 201, 202, 203, 204, 205, 206, 207, 208, 209, 210, 211, 212, 213, 214, 215, 216, 217, 218, 219, 220, 221, 222, 223, 224, 225, 226, 227, 228, 229, 230, 231, 232, 233, 234, 235, 236, 237, 238, 239, 240, 241, 242, 243, 244, 245, 246, 247, 248, 249, 250, 251, 252, 253, 254, 255, 256, 257, 258, 259, 260, 261, 262, 263, 264, 265, 266, 267, 268, 269, 270, 271, 272, 273, 274, 275, 276, 277, 278, 279, 280, 281, 282, 283, 284, 285, 286, 287, 288, 289, 290, 291, 292, 293, 294, 295, 296, 297, 298, 299, 300, 301, 302, 303, 304, 305, 306, 307, 308, 309, 310, 311, 312, 313, 314, 315, 316, 317, 318, 319, 320, 321, 322, 323, 324, 325, 326, 327, 328, 329, 330, 331, 332, 333, 334, 335, 336, 337, 338, 339, 340, 341, 342, 343, 344, 345, 346, 347, 348, 349, 350, 351, 352, 353, 354, 355, 356, 357, 358, 359, 360, 361, 362, 363, 364, 365, 366, 367, 368, 369, 370, 371, 372, 373, 374, 375, 376, 377, 378, 379, 380, 381, 382, 383, 384, 385, 386, 387, 388, 389, 390, 391, 392, 393, 394, 395, 396, 397, 398, 399, 400, 401, 402, 403, 404, 405, 406, 407, 408, 409, 410, 411, 412, 413, 414, 415, 416, 417, 418, 419, 420, 421, 422, 423, 424, 425, 426, 427, 428, 429, 430, 431, 432, 433, 434, 435, 436, 437, 438, 439, 440, 441, 442, 443, 444, 445, 446, 447, 448, 449, 450, 451, 452, 453, 454, 455, 456, 457, 458, 459, 460, 461, 462, 463, 464, 465, 466, 467, 468, 469, 470, 471, 472, 473, 474, 475, 476, 477, 478, 479, 480, 481, 482, 483, 484, 485, 486, 487, 488, 489, 490, 491, 492, 493, 494, 495, 496, 497, 498, 499, 500, 501, 502, 503, 504, 505, 506, 507, 508, 509, 510, 511, 512, 513, 514, 515, 516, 517, 518, 519, 520, 521, 522, 523, 524, 525, 526, 527, 528, 529, 530, 531, 532, 533, 534, 535, 536, 537, 538, 539, 540, 541, 542, 543, 544, 545, 546, 547, 548, 549, 550, 551, 552, 553, 554, 555, 556, 557, 558, 559, 560, 561, 562, 563, 564, 565, 566, 567, 568, 569, 570, 571, 572, 573, 574, 575, 576, 577, 578, 579, 580, 581, 582, 583, 584, 585, 586, 587, 588, 589, 590, 591, 592, 593, 594, 595, 596, 597, 598, 599, 600, 601, 602, 603, 604, 605, 606, 607, 608, 609, 610, 611, 612, 613, 614, 615, 616, 617, 618, 619, 620, 621, 622, 623, 624, 625, 626, 627, 628, 629, 630, 631, 632, 633, 634, 635, 636, 637, 638, 639, 640, 641, 642, 643, 644, 645, 646, 647, 648, 649, 650, 651, 652, 653, 654, 655, 656, 657, 658, 659, 660, 661, 662, 663, 664, 665, 666, 667, 668, 669, 670, 671, 672, 673, 674, 675, 676, 677, 678, 679, 680, 681, 682, 683, 684, 685, 686, 687, 688, 689, 690, 691, 692, 693, 694, 695, 696, 697, 698, 699, 700, 701, 702, 703, 704, 705, 706, 707, 708, 709, 710, 711, 712, 713, 714, 715, 716, 717, 718, 719, 720, 721, 722, 723, 724, 725, 726, 727, 728, 729, 730, 731, 732, 733, 734, 735, 736, 737, 738, 739, 740, 741, 742, 743, 744, 745, 746, 747, 748, 749, 750, 751, 752, 753, 754, 755, 756, 757, 758, 759, 760, 761, 762, 763, 764, 765, 766, 767, 768, 769, 770, 771, 772, 773, 774, 775, 776, 777, 778, 779, 780, 781, 782, 783, 784, 785, 786, 787, 788, 789, 790, 791, 792, 793, 794, 795, 796, 797, 798, 799, 800, 801, 802, 803, 804, 805, 806, 807, 808, 809, 810, 811, 812, 813, 814, 815, 816, 817, 818, 819, 820, 821, 822, 823, 824, 825, 826, 827, 828, 829, 830, 831, 832, 833, 834, 835, 836, 837, 838, 839, 840, 841, 842, 843, 844, 845, 846, 847, 848, 849, 850, 851, 852, 853, 854, 855, 856, 857, 858, 859, 860, 861, 862, 863, 864, 865, 866, 867, 868, 869, 870, 871, 872],
      "AcquisitionTime": ["193945.665000", "193946.125000", "193946.585000", "193947.045000", "193947.505000", "193947.965000", "193948.425000", "193948.885000", "193949.345000", "193949.805000", "193950.265000", "193950.725000", "193951.185000", "193951.645000", "193952.105000", "193952.565000", "193953.025000", "193953.485000", "193953.945000", "193954.405000", "193954.865000", "193955.325000", "193955.785000", "193956.245000", "193956.705000", "193957.165000", "193957.625000", "193958.085000", "193958.545000", "193959.005000", "193959.465000", "193959.925000", "194000.385000", "194000.845000", "194001.305000", "194001.765000", "194002.225000", "194002.685000", "194003.145000", "194003.605000", "194004.065000", "194004.525000", "194004.985000", "194005.445000", "194005.905000", "194006.365000", "194006.825000", "194007.285000", "194007.745000", "194008.205000", "194008.665000", "194009.125000", "194009.585000", "194010.045000", "194010.505000", "194010.965000", "194011.425000", "194011.885000", "194012.345000", "194012.805000", "194013.265000", "194013.725000", "194014.185000", "194014.645000", "194015.105000", "194015.565000", "194016.025000", "194016.485000", "194016.945000", "194017.405000", "194017.865000", "194018.325000", "194018.785000", "194019.245000", "194019.705000", "194020.165000", "194020.625000", "194021.085000", "194021.545000", "194022.005000", "194022.465000", "194022.925000", "194023.385000", "194023.845000", "194024.305000", "194024.765000", "194025.225000", "194025.685000", "194026.145000", "194026.605000", "194027.065000", "194027.525000", "194027.985000", "194028.445000", "194028.905000", "194029.365000", "194029.825000", "194030.285000", "194030.745000", "194031.205000", "194031.665000", "194032.125000", "194032.585000", "194033.045000", "194033.505000", "194033.965000", "194034.425000", "194034.885000", "194035.345000", "194035.805000", "194036.265000", "194036.725000", "194037.185000", "194037.645000", "194038.105000", "194038.565000", "194039.025000", "194039.485000", "194039.945000", "194040.405000", "194040.865000", "194041.325000", "194041.785000", "194042.245000", "194042.705000", "194043.165000", "194043.625000", "194044.085000", "194044.545000", "194045.005000", "194045.465000", "194045.925000", "194046.385000", "194046.845000", "194047.305000", "194047.765000", "194048.225000", "194048.685000", "194049.145000", "194049.605000", "194050.065000", "194050.525000", "194050.985000", "194051.445000", "194051.905000", "194052.365000", "194052.825000", "194053.285000", "194053.745000", "194054.205000", "194054.665000", "194055.125000", "194055.585000", "194056.045000", "194056.505000", "194056.965000", "194057.425000", "194057.885000", "194058.345000", "194058.805000", "194059.265000", "194059.725000", "194100.185000", "194100.645000", "194101.105000", "194101.565000", "194102.025000", "194102.485000", "194102.945000", "194103.405000", "194103.865000", "194104.325000", "194104.785000", "194105.245000", "194105.705000", "194106.165000", "194106.625000", "194107.085000", "194107.545000", "194108.005000", "194108.465000", "194108.925000", "194109.385000", "194109.845000", "194110.305000", "194110.765000", "194111.225000", "194111.685000", "194112.145000", "194112.605000", "194113.065000", "194113.525000", "194113.985000", "194114.445000", "194114.905000", "194115.365000", "194115.825000", "194116.285000", "194116.745000", "194117.205000", "194117.665000", "194118.125000", "194118.585000", "194119.045000", "194119.505000", "194119.965000", "194120.425000", "194120.885000", "194121.345000", "194121.805000", "194122.265000", "194122.725000", "194123.185000", "194123.645000", "194124.105000", "194124.565000", "194125.025000", "194125.485000", "194125.945000", "194126.405000", "194126.865000", "194127.325000", "194127.785000", "194128.245000", "194128.705000", "194129.165000", "194129.625000", "194130.085000", "194130.545000", "194131.005000", "194131.465000", "194131.925000", "194132.385000", "194132.845000", "194133.305000", "194133.765000", "194134.225000", "194134.685000", "194135.145000", "194135.605000", "194136.065000", "194136.525000", "194136.985000", "194137.445000", "194137.905000", "194138.365000", "194138.825000", "194139.285000", "194139.745000", "194140.205000", "194140.665000", "194141.125000", "194141.585000", "194142.045000", "194142.505000", "194142.965000", "194143.425000", "194143.885000", "194144.345000", "194144.805000", "194145.265000", "194145.725000", "194146.185000", "194146.645000", "194147.105000", "194147.565000", "194148.025000", "194148.485000", "194148.945000", "194149.405000", "194149.865000", "194150.325000", "194150.785000", "194151.245000", "194151.705000", "194152.165000", "194152.625000", "194153.085000", "194153.545000", "194154.005000", "194154.465000", "194154.925000", "194155.385000", "194155.845000", "194156.305000", "194156.765000", "194157.225000", "194157.685000", "194158.145000", "194158.605000", "194159.065000", "194159.525000", "194159.985000", "194200.445000", "194200.905000", "194201.365000", "194201.825000", "194202.285000", "194202.745000", "194203.205000", "194203.665000", "194204.125000", "194204.585000", "194205.045000", "194205.505000", "194205.965000", "194206.425000", "194206.885000", "194207.345000", "194207.805000", "194208.265000", "194208.725000", "194209.185000", "194209.645000", "194210.105000", "194210.565000", "194211.025000", "194211.485000", "194211.945000", "194212.405000", "194212.865000", "194213.325000", "194213.785000", "194214.245000", "194214.705000", "194215.165000", "194215.625000", "194216.085000", "194216.545000", "194217.005000", "194217.465000", "194217.925000", "194218.385000", "194218.845000", "194219.305000", "194219.765000", "194220.225000", "194220.685000", "194221.145000", "194221.605000", "194222.065000", "194222.525000", "194222.985000", "194223.445000", "194223.905000", "194224.365000", "194224.825000", "194225.285000", "194225.745000", "194226.205000", "194226.665000", "194227.125000", "194227.585000", "194228.045000", "194228.505000", "194228.965000", "194229.425000", "194229.885000", "194230.345000", "194230.805000", "194231.265000", "194231.725000", "194232.185000", "194232.645000", "194233.105000", "194233.565000", "194234.025000", "194234.485000", "194234.945000", "194235.405000", "194235.865000", "194236.325000", "194236.785000", "194237.245000", "194237.705000", "194238.165000", "194238.625000", "194239.085000", "194239.545000", "194240.005000", "194240.465000", "194240.925000", "194241.385000", "194241.845000", "194242.305000", "194242.765000", "194243.225000", "194243.685000", "194244.145000", "194244.605000", "194245.065000", "194245.525000", "194245.985000", "194246.445000", "194246.905000", "194247.365000", "194247.825000", "194248.285000", "194248.745000", "194249.205000", "194249.665000", "194250.125000", "194250.585000", "194251.045000", "194251.505000", "194251.965000", "194252.425000", "194252.885000", "194253.345000", "194253.805000", "194254.265000", "194254.725000", "194255.185000", "194255.645000", "194256.105000", "194256.565000", "194257.025000", "194257.485000", "194257.945000", "194258.405000", "194258.865000", "194259.325000", "194259.785000", "194300.245000", "194300.705000", "194301.165000", "194301.625000", "194302.085000", "194302.545000", "194303.005000", "194303.465000", "194303.925000", "194304.385000", "194304.845000", "194305.305000", "194305.765000", "194306.225000", "194306.685000", "194307.145000", "194307.605000", "194308.065000", "194308.525000", "194308.985000", "194309.445000", "194309.905000", "194310.365000", "194310.825000", "194311.285000", "194311.745000", "194312.205000", "194312.665000", "194313.125000", "194313.585000", "194314.045000", "194314.505000", "194314.965000", "194315.425000", "194315.885000", "194316.345000", "194316.805000", "194317.265000", "194317.725000", "194318.185000", "194318.645000", "194319.105000", "194319.565000", "194320.025000", "194320.485000", "194320.945000", "194321.405000", "194321.865000", "194322.325000", "194322.785000", "194323.245000", "194323.705000", "194324.165000", "194324.625000", "194325.085000", "194325.545000", "194326.005000", "194326.465000", "194326.925000", "194327.385000", "194327.845000", "194328.305000", "194328.765000", "194329.225000", "194329.685000", "194330.145000", "194330.605000", "194331.065000", "194331.525000", "194331.985000", "194332.445000", "194332.905000", "194333.365000", "194333.825000", "194334.285000", "194334.745000", "194335.205000", "194335.665000", "194336.125000", "194336.585000", "194337.045000", "194337.505000", "194337.965000", "194338.425000", "194338.885000", "194339.345000", "194339.805000", "194340.265000", "194340.725000", "194341.185000", "194341.645000", "194342.105000", "194342.565000", "194343.025000", "194343.485000", "194343.945000", "194344.405000", "194344.865000", "194345.325000", "194345.785000", "194346.245000", "194346.705000", "194347.165000", "194347.625000", "194348.085000", "194348.545000", "194349.005000", "194349.465000", "194349.925000", "194350.385000", "194350.845000", "194351.305000", "194351.765000", "194352.225000", "194352.685000", "194353.145000", "194353.605000", "194354.065000", "194354.525000", "194354.985000", "194355.445000", "194355.905000", "194356.365000", "194356.825000", "194357.285000", "194357.745000", "194358.205000", "194358.665000", "194359.125000", "194359.585000", "194400.045000", "194400.505000", "194400.965000", "194401.425000", "194401.885000", "194402.345000", "194402.805000", "194403.265000", "194403.725000", "194404.185000", "194404.645000", "194405.105000", "194405.565000", "194406.025000", "194406.485000", "194406.945000", "194407.405000", "194407.865000", "194408.325000", "194408.785000", "194409.245000", "194409.705000", "194410.165000", "194410.625000", "194411.085000", "194411.545000", "194412.005000", "194412.465000", "194412.925000", "194413.385000", "194413.845000", "194414.305000", "194414.765000", "194415.225000", "194415.685000", "194416.145000", "194416.605000", "194417.065000", "194417.525000", "194417.985000", "194418.445000", "194418.905000", "194419.365000", "194419.825000", "194420.285000", "194420.745000", "194421.205000", "194421.665000", "194422.125000", "194422.585000", "194423.045000", "194423.505000", "194423.965000", "194424.425000", "194424.885000", "194425.345000", "194425.805000", "194426.265000", "194426.725000", "194427.185000", "194427.645000", "194428.105000", "194428.565000", "194429.025000", "194429.485000", "194429.945000", "194430.405000", "194430.865000", "194431.325000", "194431.785000", "194432.245000", "194432.705000", "194433.165000", "194433.625000", "194434.085000", "194434.545000", "194435.005000", "194435.465000", "194435.925000", "194436.385000", "194436.845000", "194437.305000", "194437.765000", "194438.225000", "194438.685000", "194439.145000", "194439.605000", "194440.065000", "194440.525000", "194440.985000", "194441.445000", "194441.905000", "194442.365000", "194442.825000", "194443.285000", "194443.745000", "194444.205000", "194444.665000", "194445.125000", "194445.585000", "194446.045000", "194446.505000", "194446.965000", "194447.425000", "194447.885000", "194448.345000", "194448.805000", "194449.265000", "194449.725000", "194450.185000", "194450.645000", "194451.105000", "194451.565000", "194452.025000", "194452.485000", "194452.945000", "194453.405000", "194453.865000", "194454.325000", "194454.785000", "194455.245000", "194455.705000", "194456.165000", "194456.625000", "194457.085000", "194457.545000", "194458.005000", "194458.465000", "194458.925000", "194459.385000", "194459.845000", "194500.305000", "194500.765000", "194501.225000", "194501.685000", "194502.145000", "194502.605000", "194503.065000", "194503.525000", "194503.985000", "194504.445000", "194504.905000", "194505.365000", "194505.825000", "194506.285000", "194506.745000", "194507.205000", "194507.665000", "194508.125000", "194508.585000", "194509.045000", "194509.505000", "194509.965000", "194510.425000", "194510.885000", "194511.345000", "194511.805000", "194512.265000", "194512.725000", "194513.185000", "194513.645000", "194514.105000", "194514.565000", "194515.025000", "194515.485000", "194515.945000", "194516.405000", "194516.865000", "194517.325000", "194517.785000", "194518.245000", "194518.705000", "194519.165000", "194519.625000", "194520.085000", "194520.545000", "194521.005000", "194521.465000", "194521.925000", "194522.385000", "194522.845000", "194523.305000", "194523.765000", "194524.225000", "194524.685000", "194525.145000", "194525.605000", "194526.065000", "194526.525000", "194526.985000", "194527.445000", "194527.905000", "194528.365000", "194528.825000", "194529.285000", "194529.745000", "194530.205000", "194530.665000", "194531.125000", "194531.585000", "194532.045000", "194532.505000", "194532.965000", "194533.425000", "194533.885000", "194534.345000", "194534.805000", "194535.265000", "194535.725000", "194536.185000", "194536.645000", "194537.105000", "194537.565000", "194538.025000", "194538.485000", "194538.945000", "194539.405000", "194539.865000", "194540.325000", "194540.785000", "194541.245000", "194541.705000", "194542.165000", "194542.625000", "194543.085000", "194543.545000", "194544.005000", "194544.465000", "194544.925000", "194545.385000", "194545.845000", "194546.305000", "194546.765000", "194547.225000", "194547.685000", "194548.145000", "194548.605000", "194549.065000", "194549.525000", "194549.985000", "194550.445000", "194550.905000", "194551.365000", "194551.825000", "194552.285000", "194552.745000", "194553.205000", "194553.665000", "194554.125000", "194554.585000", "194555.045000", "194555.505000", "194555.965000", "194556.425000", "194556.885000", "194557.345000", "194557.805000", "194558.265000", "194558.725000", "194559.185000", "194559.645000", "194600.105000", "194600.565000", "194601.025000", "194601.485000", "194601.945000", "194602.405000", "194602.865000", "194603.325000", "194603.785000", "194604.245000", "194604.705000", "194605.165000", "194605.625000", "194606.085000", "194606.545000", "194607.005000", "194607.465000", "194607.925000", "194608.385000", "194608.845000", "194609.305000", "194609.765000", "194610.225000", "194610.685000", "194611.145000", "194611.605000", "194612.065000", "194612.525000", "194612.985000", "194613.445000", "194613.905000", "194614.365000", "194614.825000", "194615.285000", "194615.745000", "194616.205000", "194616.665000", "194617.125000", "194617.585000", "194618.045000", "194618.505000", "194618.965000", "194619.425000", "194619.885000", "194620.345000", "194620.805000", "194621.265000", "194621.725000", "194622.185000", "194622.645000", "194623.105000", "194623.565000", "194624.025000", "194624.485000", "194624.945000", "194625.405000", "194625.865000", "194626.325000"],
