{
  "AcquisitionMatrixPE": 140,
  "AcquisitionNumber": 1,
  "AcquisitionTime": "15:16:15.125000",
  "BandwidthPerPixelPhaseEncode": 10.352,
  "BaseResolution": 140,
  "BodyPartExamined": "BRAIN",
  "ConsistencyInfo": "N4_VE11C_LATEST_20160120",
  "ConversionSoftware": "dcm2niix",
  "ConversionSoftwareVersion": "v1.0.20201102",
  "DerivedVendorReportedEchoSpacing": 0.000689998,
  "DeviceSerialNumber": "66112",
  "DiffusionScheme": "Monopolar",
  "DwellTime": 2.1e-06,
  "EchoTime": 0.088,
  "EchoTrainLength": 105,
  "EffectiveEchoSpacing": 0.000689998,
  "FlipAngle": 90,
  "ImageComments": "Unaliased MB3/PE3",
  "ImageOrientationPatientDICOM": [0.997797, 0.0662978, 0.00231983, -0.0643498, 0.975792, -0.209018],
  "ImageType": [
    "ORIGINAL",
    "PRIMARY",
    "DIFFUSION",
    "NONE",
    "MB",
    "ND"
],
  "ImagingFrequency": 123.253,
  "InPlanePhaseEncodingDirectionDICOM": "COL",
  "InstitutionAddress": "Maynard 3,Hanover,NH,US,03755",
  "InstitutionName": "Dartmouth College - PBS",
  "InstitutionalDepartmentName": "Department",
  "IntendedFor": [
    "ses-01/dwi/sub-0019_ses-01_acq-96dirX6b0Xmb_dwi.nii.gz"
],
  "MRAcquisitionType": "2D",
  "MagneticFieldStrength": 3,
  "Manufacturer": "Siemens",
  "ManufacturersModelName": "Prisma",
  "Modality": "MR",
  "MultibandAccelerationFactor": 3,
  "PartialFourier": 0.75,
  "PatientPosition": "HFS",
  "PercentPhaseFOV": 100,
  "PercentSampling": 100,
  "PhaseEncodingDirection": "j",
  "PhaseEncodingSteps": 105,
  "PhaseResolution": 1,
  "PixelBandwidth": 1700,
  "ProcedureStepDescription": "Wager_Wager^1076_spacetop",
  "ProtocolName": "dwi_acq-discorr-PA",
  "PulseSequenceDetails": "%CustomerSeq%\\cmrr_mbep2d_diff",
  "ReceiveCoilActiveElements": "HEA;HEP",
  "ReceiveCoilName": "Head_32",
  "ReconMatrixPE": 140,
  "RepetitionTime": 4.1,
  "SAR": 0.137495,
  "ScanOptions": "PFP\\FS",
  "ScanningSequence": "EP",
  "SequenceName": "ep_b0",
  "SequenceVariant": "SK\\SS",
  "SeriesDescription": "dwi_acq-discorr-PA",
  "SeriesNumber": 6,
  "ShimSetting": [4166, -7778, -7234, 616, 42, -306, 50, 43],
  "SliceThickness": 1.7,
  "SliceTiming": [0, 2.10938, 0.15625, 2.26562, 0.29688, 2.42188, 0.45312, 2.5625, 0.60938, 2.71875, 0.75, 2.875, 0.90625, 3.01562, 1.0625, 3.17188, 1.20312, 3.32812, 1.35938, 3.46875, 1.51562, 3.625, 1.65625, 3.78125, 1.8125, 3.92188, 1.96875, 0, 2.10938, 0.15625, 2.26562, 0.29688, 2.42188, 0.45312, 2.5625, 0.60938, 2.71875, 0.75, 2.875, 0.90625, 3.01562, 1.0625, 3.17188, 1.20312, 3.32812, 1.35938, 3.46875, 1.51562, 3.625, 1.65625, 3.78125, 1.8125, 3.92188, 1.96875, 0, 2.10938, 0.15625, 2.26562, 0.29688, 2.42188, 0.45312, 2.5625, 0.60938, 2.71875, 0.75, 2.875, 0.90625, 3.01562, 1.0625, 3.17188, 1.20312, 3.32812, 1.35938, 3.46875, 1.51562, 3.625, 1.65625, 3.78125, 1.8125, 3.92188, 1.96875],
  "SoftwareVersions": "syngo MR E11",
  "SpacingBetweenSlices": 1.7,
  "StationName": "AWP66112",
  "TotalReadoutTime": 0.0959097,
  "TxRefAmp": 235.085,
  "WipMemBlock": "fffad3f6-ab34-45ec-8c6d-44f95d05afcb||Sequence: R016 ve11c/master r/e634e98; Dec 19 2017 11:11:25 by eja",
  "dcmmeta_affine": [
    [-1.7105094194412231, -0.11031387746334076, 0.027405977249145508, 127.84407806396484],
    [-0.11365338414907455, 1.6727869510650635, -0.3542932868003845, -78.51063537597656],
    [0.003976856358349323, 0.35831570625305176, 1.662445068359375, -78.23988342285156],
    [0.0, 0.0, 0.0, 1.0]
],
  "dcmmeta_reorient_transform": [
    [0.0, -1.0, 0.0, 139.0],
    [1.0, 0.0, 0.0, 0.0],
    [0.0, 0.0, -1.0, 80.0],
    [0.0, 0.0, 0.0, 1.0]
],
  "dcmmeta_shape": [140, 140, 81],
  "dcmmeta_slice_dim": 2,
  "dcmmeta_version": 0.6,
  "global": {
    "const": {
      "AccessionNumber": "A003583",
      "AcquisitionMatrix": [140, 0, 0, 140],
      "AcquisitionNumber": 1,
      "AngioFlag": "N",
      "BitsAllocated": 16,
      "BitsStored": 16,
      "BodyPartExamined": "BRAIN",
      "Columns": 140,
      "EchoNumbers": 1,
      "EchoTime": 88.0,
      "EchoTrainLength": 105,
      "FlipAngle": 90.0,
      "HighBit": 15,
      "ImageOrientationPatient": [0.99779718343126, 0.06629780623547, 0.00231983297121, -0.0643497600554, 0.97579239328795, -0.2090174958758],
      "ImageType": [
        "ORIGINAL",
        "PRIMARY",
        "DIFFUSION",
        "NONE",
        "MB",
        "ND"
],
      "ImagedNucleus": "1H",
      "ImagingFrequency": 123.252543,
      "InPlanePhaseEncodingDirection": "COL",
      "MRAcquisitionType": "2D",
      "MagneticFieldStrength": 3.0,
      "Manufacturer": "SIEMENS",
      "ManufacturerModelName": "Prisma",
      "Modality": "MR",
      "NumberOfAverages": 1.0,
      "NumberOfPhaseEncodingSteps": 105,
      "PercentPhaseFieldOfView": 100.0,
      "PercentSampling": 100.0,
      "PerformedProcedureStepStartTime": "144530.354000",
      "PhotometricInterpretation": "MONOCHROME2",
      "PixelBandwidth": 1700.0,
      "PixelRepresentation": 0,
      "PixelSpacing": [1.7142857313156, 1.7142857313156],
      "ProtocolName": "dwi_acq-discorr-PA",
      "RepetitionTime": 4100.0,
      "Rows": 140,
      "SAR": 0.13749503083294,
      "SamplesPerPixel": 1,
      "ScanOptions": [
        "PFP",
        "FS"
],
      "ScanningSequence": "EP",
      "SequenceName": "ep_b0",
      "SequenceVariant": [
        "SK",
        "SS"
],
      "SeriesDescription": "dwi_acq-discorr-PA",
      "SeriesNumber": 6,
      "SeriesTime": "151619.922000",
      "SliceThickness": 1.7000000476837,
      "SmallestImagePixelValue": 0,
      "SoftwareVersions": "syngo MR E11",
      "SpacingBetweenSlices": 1.7,
      "SpecificCharacterSet": "ISO_IR 100",
      "StudyID": "1",
      "StudyTime": "144530.223000",
      "TransmitCoilName": "Body",
      "VariableFlipAngleFlag": "N",
      "WindowCenterWidthExplanation": "Algo1",
      "dBdt": 0.0},
    "slices": {
      "AcquisitionTime": ["151615.125000", "151617.240000", "151615.275000", "151617.390000", "151615.427500", "151617.542500", "151615.577500", "151617.692500", "151615.730000", "151617.845000", "151615.880000", "151617.995000", "151616.030000", "151618.147500", "151616.182500", "151618.297500", "151616.332500", "151618.450000", "151616.485000", "151618.600000", "151616.635000", "151618.750000", "151616.787500", "151618.902500", "151616.937500", "151619.052500", "151617.090000", "151615.125000", "151617.240000", "151615.275000", "151617.390000", "151615.427500", "151617.542500", "151615.577500", "151617.692500", "151615.730000", "151617.845000", "151615.880000", "151617.995000", "151616.030000", "151618.147500", "151616.182500", "151618.297500", "151616.332500", "151618.450000", "151616.485000", "151618.600000", "151616.635000", "151618.750000", "151616.787500", "151618.902500", "151616.937500", "151619.052500", "151617.090000", "151615.125000", "151617.240000", "151615.275000", "151617.390000", "151615.427500", "151617.542500", "151615.577500", "151617.692500", "151615.730000", "151617.845000", "151615.880000", "151617.995000", "151616.030000", "151618.147500", "151616.182500", "151618.297500", "151616.332500", "151618.450000", "151616.485000", "151618.600000", "151616.635000", "151618.750000", "151616.787500", "151618.902500", "151616.937500", "151619.052500", "151617.090000"],
      "ContentTime": ["151619.928000", "151620.068000", "151619.936000", "151620.075000", "151619.943000", "151620.081000", "151619.950000", "151620.087000", "151619.960000", "151620.094000", "151619.966000", "151620.101000", "151619.973000", "151620.107000", "151619.979000", "151620.123000", "151619.986000", "151620.130000", "151619.993000", "151620.137000", "151620.042000", "151620.144000", "151620.049000", "151620.151000", "151620.055000", "151620.158000", "151620.062000", "151619.932000", "151620.070000", "151619.939000", "151620.077000", "151619.945000", "151620.083000", "151619.955000", "151620.090000", "151619.962000", "151620.096000", "151619.968000", "151620.103000", "151619.975000", "151620.109000", "151619.982000", "151620.125000", "151619.989000", "151620.133000", "151620.037000", "151620.140000", "151620.044000", "151620.147000", "151620.051000", "151620.154000", "151620.058000", "151620.161000", "151620.064000", "151619.934000", "151620.072000", "151619.941000", "151620.079000", "151619.947000", "151620.085000", "151619.958000", "151620.092000", "151619.964000", "151620.098000", "151619.971000", "151620.105000", "151619.977000", "151620.111000", "151619.984000", "151620.128000", "151619.991000", "151620.135000", "151620.040000", "151620.142000", "151620.047000", "151620.149000", "151620.053000", "151620.156000", "151620.060000", "151620.163000", "151620.066000"],
      "CsaImage.ICE_Dims": [
        "X_1_1_1_1_1_1_1_1_1_1_1_167",
        "X_1_1_1_1_1_1_42_1_1_2_1_167",
        "X_1_1_1_1_1_1_2_1_1_3_1_167",
        "X_1_1_1_1_1_1_43_1_1_4_1_167",
        "X_1_1_1_1_1_1_3_1_1_5_1_167",
        "X_1_1_1_1_1_1_44_1_1_6_1_167",
        "X_1_1_1_1_1_1_4_1_1_7_1_167",
        "X_1_1_1_1_1_1_45_1_1_8_1_167",
        "X_1_1_1_1_1_1_5_1_1_9_1_167",
        "X_1_1_1_1_1_1_46_1_1_10_1_167",
        "X_1_1_1_1_1_1_6_1_1_11_1_167",
        "X_1_1_1_1_1_1_47_1_1_12_1_167",
        "X_1_1_1_1_1_1_7_1_1_13_1_167",
        "X_1_1_1_1_1_1_48_1_1_14_1_167",
        "X_1_1_1_1_1_1_8_1_1_15_1_167",
        "X_1_1_1_1_1_1_49_1_1_16_1_167",
        "X_1_1_1_1_1_1_9_1_1_17_1_167",
        "X_1_1_1_1_1_1_50_1_1_18_1_167",
        "X_1_1_1_1_1_1_10_1_1_19_1_167",
        "X_1_1_1_1_1_1_51_1_1_20_1_167",
        "X_1_1_1_1_1_1_11_1_1_21_1_167",
        "X_1_1_1_1_1_1_52_1_1_22_1_167",
        "X_1_1_1_1_1_1_12_1_1_23_1_167",
        "X_1_1_1_1_1_1_53_1_1_24_1_167",
        "X_1_1_1_1_1_1_13_1_1_25_1_167",
        "X_1_1_1_1_1_1_54_1_1_26_1_167",
        "X_1_1_1_1_1_1_14_1_1_27_1_167",
        "X_1_1_1_1_1_1_55_1_1_28_1_167",
        "X_1_1_1_1_1_1_15_1_1_29_1_167",
        "X_1_1_1_1_1_1_56_1_1_30_1_167",
        "X_1_1_1_1_1_1_16_1_1_31_1_167",
        "X_1_1_1_1_1_1_57_1_1_32_1_167",
        "X_1_1_1_1_1_1_17_1_1_33_1_167",
        "X_1_1_1_1_1_1_58_1_1_34_1_167",
        "X_1_1_1_1_1_1_18_1_1_35_1_167",
        "X_1_1_1_1_1_1_59_1_1_36_1_167",
        "X_1_1_1_1_1_1_19_1_1_37_1_167",
        "X_1_1_1_1_1_1_60_1_1_38_1_167",
        "X_1_1_1_1_1_1_20_1_1_39_1_167",
        "X_1_1_1_1_1_1_61_1_1_40_1_167",
        "X_1_1_1_1_1_1_21_1_1_41_1_167",
        "X_1_1_1_1_1_1_62_1_1_42_1_167",
        "X_1_1_1_1_1_1_22_1_1_43_1_167",
        "X_1_1_1_1_1_1_63_1_1_44_1_167",
        "X_1_1_1_1_1_1_23_1_1_45_1_167",
        "X_1_1_1_1_1_1_64_1_1_46_1_167",
        "X_1_1_1_1_1_1_24_1_1_47_1_167",
        "X_1_1_1_1_1_1_65_1_1_48_1_167",
        "X_1_1_1_1_1_1_25_1_1_49_1_167",
        "X_1_1_1_1_1_1_66_1_1_50_1_167",
        "X_1_1_1_1_1_1_26_1_1_51_1_167",
        "X_1_1_1_1_1_1_67_1_1_52_1_167",
        "X_1_1_1_1_1_1_27_1_1_53_1_167",
        "X_1_1_1_1_1_1_68_1_1_54_1_167",
        "X_1_1_1_1_1_1_28_1_1_55_1_167",
        "X_1_1_1_1_1_1_69_1_1_56_1_167",
        "X_1_1_1_1_1_1_29_1_1_57_1_167",
        "X_1_1_1_1_1_1_70_1_1_58_1_167",
        "X_1_1_1_1_1_1_30_1_1_59_1_167",
        "X_1_1_1_1_1_1_71_1_1_60_1_167",
        "X_1_1_1_1_1_1_31_1_1_61_1_167",
        "X_1_1_1_1_1_1_72_1_1_62_1_167",
        "X_1_1_1_1_1_1_32_1_1_63_1_167",
        "X_1_1_1_1_1_1_73_1_1_64_1_167",
        "X_1_1_1_1_1_1_33_1_1_65_1_167",
        "X_1_1_1_1_1_1_74_1_1_66_1_167",
        "X_1_1_1_1_1_1_34_1_1_67_1_167",
        "X_1_1_1_1_1_1_75_1_1_68_1_167",
        "X_1_1_1_1_1_1_35_1_1_69_1_167",
        "X_1_1_1_1_1_1_76_1_1_70_1_167",
        "X_1_1_1_1_1_1_36_1_1_71_1_167",
        "X_1_1_1_1_1_1_77_1_1_72_1_167",
        "X_1_1_1_1_1_1_37_1_1_73_1_167",
        "X_1_1_1_1_1_1_78_1_1_74_1_167",
        "X_1_1_1_1_1_1_38_1_1_75_1_167",
        "X_1_1_1_1_1_1_79_1_1_76_1_167",
        "X_1_1_1_1_1_1_39_1_1_77_1_167",
        "X_1_1_1_1_1_1_80_1_1_78_1_167",
        "X_1_1_1_1_1_1_40_1_1_79_1_167",
        "X_1_1_1_1_1_1_81_1_1_80_1_167",
        "X_1_1_1_1_1_1_41_1_1_81_1_167"
],
      "CsaImage.ProtocolSliceNumber": [0, 1, 2, 3, 4, 5, 6, 7, 8, 9, 10, 11, 12, 13, 14, 15, 16, 17, 18, 19, 20, 21, 22, 23, 24, 25, 26, 27, 28, 29, 30, 31, 32, 33, 34, 35, 36, 37, 38, 39, 40, 41, 42, 43, 44, 45, 46, 47, 48, 49, 50, 51, 52, 53, 54, 55, 56, 57, 58, 59, 60, 61, 62, 63, 64, 65, 66, 67, 68, 69, 70, 71, 72, 73, 74, 75, 76, 77, 78, 79, 80],
      "CsaImage.RFSWDDataType": [
        "predicted",
        "predicted",
        "predicted",
        "predicted",
        "predicted",
        "predicted",
        "predicted",
        "predicted",
        "predicted",
        "predicted",
        "predicted",
        "predicted",
        "predicted",
        "predicted",
        "predicted",
        "predicted",
        "predicted",
        "predicted",
        "predicted",
        "predicted",
        "predicted",
        "predicted",
        "predicted",
        "predicted",
        "predicted",
        "measured",
        "predicted",
        "predicted",
        "predicted",
        "predicted",
        "predicted",
        "predicted",
        "predicted",
        "predicted",
        "predicted",
        "predicted",
        "predicted",
        "predicted",
        "predicted",
        "predicted",
        "predicted",
        "predicted",
        "predicted",
        "predicted",
        "predicted",
        "predicted",
        "predicted",
        "predicted",
        "predicted",
        "predicted",
        "predicted",
        "predicted",
        "measured",
        "predicted",
        "predicted",
        "predicted",
        "predicted",
        "predicted",
        "predicted",
        "predicted",
        "predicted",
        "predicted",
        "predicted",
        "predicted",
        "predicted",
        "predicted",
        "predicted",
        "predicted",
        "predicted",
        "predicted",
        "predicted",
        "predicted",
        "predicted",
        "predicted",
        "predicted",
        "predicted",
        "predicted",
        "predicted",
        "predicted",
        "measured",
        "predicted"
],
      "CsaImage.SlicePosition_PCS": [
        [-112.51045771, -154.00674827, -28.43403503],
        [-112.53786351, -153.65245635, -26.77158996],
        [-112.56526937, -153.29816253, -25.10914489],
        [-112.59267522, -152.9438687, -23.44669982],
        [-112.62008102, -152.58957679, -21.78425475],
        [-112.64748688, -152.23528296, -20.12180969],
        [-112.67489274, -151.88098914, -18.45936462],
        [-112.70229854, -151.52669722, -16.79691573],
        [-112.7297044, -151.1724034, -15.13447067],
        [-112.75711025, -150.81810958, -13.4720256],
        [-112.78451605, -150.46381576, -11.80958053],
        [-112.81192191, -150.10952384, -10.14713546],
        [-112.83932777, -149.75523002, -8.48469039],
        [-112.86673357, -149.40093619, -6.82224342],
        [-112.89413942, -149.04664428, -5.15979835],
        [-112.92154522, -148.69235045, -3.49735328],
        [-112.94895108, -148.33805663, -1.83490821],
        [-112.97635694, -147.98376471, -0.17246124],
        [-113.00376274, -147.62947089, 1.48998383],
        [-113.0311686, -147.27517707, 3.1524289],
        [-113.05857445, -146.92088324, 4.81487397],
        [-113.08598031, -146.56659133, 6.47732095],
        [-113.11338605, -146.21229751, 8.13976601],
        [-113.14079191, -145.85800368, 9.80221108],
        [-113.16819777, -145.50371177, 11.4646571],
        [-113.19560362, -145.14941794, 13.12710217],
        [-113.22300948, -144.79512412, 14.78954819],
        [-113.25041534, -144.4408322, 16.45199326],
        [-113.27782108, -144.08653838, 18.11443929],
        [-113.30522694, -143.73224456, 19.77688483],
        [-113.3326328, -143.37795264, 21.43933038],
        [-113.36003865, -143.02365882, 23.1017758],
        [-113.38744451, -142.669365, 24.76422141],
        [-113.41485037, -142.31507117, 26.42666701],
        [-113.44225611, -141.96077926, 28.08911256],
        [-113.46966197, -141.60648543, 29.7515581],
        [-113.49706782, -141.25219161, 31.41400365],
        [-113.52447368, -140.89789874, 33.07644871],
        [-113.55187954, -140.54360587, 34.73889474],
        [-113.57928528, -140.18931205, 36.40133981],
        [-113.60669114, -139.83501918, 38.06378583],
        [-113.634097, -139.48072631, 39.72623185],
        [-113.66150285, -139.12643248, 41.38867692],
        [-113.68890871, -138.77213962, 43.05112199],
        [-113.71631457, -138.41784579, 44.71356896],
        [-113.74372031, -138.06355292, 46.37601403],
        [-113.77112617, -137.70926005, 48.0384591],
        [-113.79853202, -137.35496623, 49.70090417],
        [-113.82593788, -137.00067336, 51.36335114],
        [-113.85334374, -136.64637954, 53.02579621],
        [-113.8807496, -136.29208667, 54.68824128],
        [-113.90815534, -135.9377938, 56.35068635],
        [-113.9355612, -135.58349997, 58.01313142],
        [-113.96296705, -135.2292071, 59.67557648],
        [-113.99037291, -134.87491328, 61.33802537],
        [-114.01777865, -134.52062041, 63.00047044],
        [-114.04518463, -134.16632754, 64.6629155],
        [-114.07259037, -133.81203372, 66.32536057],
        [-114.09999634, -133.45774085, 67.98780564],
        [-114.12740208, -133.10344703, 69.65025071],
        [-114.15480782, -132.74915416, 71.31269578],
        [-114.1822138, -132.39486081, 72.97514085],
        [-114.20961954, -132.04056746, 74.63758973],
        [-114.23702552, -131.68627459, 76.3000348],
        [-114.26443125, -131.33198125, 77.96247987],
        [-114.29183699, -130.9776879, 79.62492493],
        [-114.31924297, -130.62339456, 81.28737],
        [-114.34664871, -130.26910169, 82.94981507],
        [-114.37405469, -129.91480834, 84.61226014],
        [-114.40146042, -129.56051499, 86.27470521],
        [-114.42886616, -129.20622165, 87.93715409],
        [-114.45627214, -128.85192854, 89.59959534],
        [-114.48367788, -128.49763519, 91.26204041],
        [-114.51108386, -128.14334185, 92.92448548],
        [-114.5384896, -127.78904874, 94.58693818],
        [-114.56589557, -127.43475539, 96.24938325],
        [-114.59330131, -127.08046228, 97.91182832],
        [-114.62070705, -126.72616894, 99.57427338],
        [-114.64811303, -126.37187571, 101.23671845],
        [-114.67551877, -126.01758248, 102.89916352],
        [-114.70292474, -125.6632892, 104.56160859]
],
      "CsaImage.TimeAfterStart": [16.4, 18.515, 16.55, 18.665, 16.7, 18.8175, 16.8525, 18.9675, 17.0025, 19.12, 17.155, 19.27, 17.305, 19.42, 17.4575, 19.5725, 17.6075, 19.7225, 17.76, 19.875, 17.91, 20.025, 18.06, 20.1775, 18.2125, 20.3275, 18.3625, 16.4, 18.515, 16.55, 18.665, 16.7, 18.8175, 16.8525, 18.9675, 17.0025, 19.12, 17.155, 19.27, 17.305, 19.42, 17.4575, 19.5725, 17.6075, 19.7225, 17.76, 19.875, 17.91, 20.025, 18.06, 20.1775, 18.2125, 20.3275, 18.3625, 16.4, 18.515, 16.55, 18.665, 16.7, 18.8175, 16.8525, 18.9675, 17.0025, 19.12, 17.155, 19.27, 17.305, 19.42, 17.4575, 19.5725, 17.6075, 19.7225, 17.76, 19.875, 17.91, 20.025, 18.06, 20.1775, 18.2125, 20.3275, 18.3625],
      "ImagePositionPatient": [
        [-112.51045771023, -154.00674826552, -28.434035026826],
        [-112.53786350866, -153.65245634963, -26.771589958467],
        [-112.5652693667, -153.29816252639, -25.109144890107],
        [-112.59267522474, -152.94386870314, -23.446699821748],
        [-112.62008102318, -152.58957678725, -21.784254753388],
        [-112.64748688122, -152.23528296401, -20.121809685029],
        [-112.67489273926, -151.88098914077, -18.45936461667],
        [-112.70229853769, -151.52669722487, -16.796915733613],
        [-112.72970439573, -151.17240340163, -15.134470665254],
        [-112.75711025377, -150.81810957839, -13.472025596894],
        [-112.78451605221, -150.46381575515, -11.809580528535],
        [-112.81192191025, -150.10952383925, -10.147135460175],
        [-112.83932776829, -149.75523001601, -8.4846903918161],
        [-112.86673356672, -149.40093619277, -6.8222434161081],
        [-112.89413942476, -149.04664427688, -5.1597983477487],
        [-112.9215452232, -148.69235045363, -3.4973532793894],
        [-112.94895108124, -148.33805663039, -1.83490821103],
        [-112.97635693928, -147.9837647145, -0.172461235322],
        [-113.00376273771, -147.62947089126, 1.4899838330374],
        [-113.03116859575, -147.27517706801, 3.1524289013968],
        [-113.05857445379, -146.92088324477, 4.8148739697561],
        [-113.08598031183, -146.56659132888, 6.4773209454642],
        [-113.11338605066, -146.21229750563, 8.1397660138235],
        [-113.1407919087, -145.85800368239, 9.8022110821829],
        [-113.16819776674, -145.5037117665, 11.464657104217],
        [-113.19560362478, -145.14941794326, 13.127102172576],
        [-113.22300948282, -144.79512412001, 14.78954819461],
        [-113.25041534086, -144.44083220412, 16.451993262969],
        [-113.27782107969, -144.08653838088, 18.114439285003],
        [-113.30522693773, -143.73224455764, 19.776884830199],
        [-113.33263279577, -143.37795264174, 21.439330375396],
        [-113.36003865381, -143.0236588185, 23.101775801383],
        [-113.38744451185, -142.66936499526, 24.764221406184],
        [-113.41485036989, -142.31507117202, 26.426667010985],
        [-113.44225610872, -141.96077925612, 28.089112556182],
        [-113.46966196676, -141.60648543288, 29.751558101378],
        [-113.4970678248, -141.25219160964, 31.414003646575],
        [-113.52447368284, -140.89789874007, 33.076448714934],
        [-113.55187954088, -140.5436058705, 34.738894736968],
        [-113.57928527971, -140.18931204726, 36.401339805327],
        [-113.60669113775, -139.83501917769, 38.063785827361],
        [-113.63409699579, -139.48072630813, 39.726231849395],
        [-113.66150285383, -139.12643248488, 41.388676917754],
        [-113.68890871187, -138.77213961532, 43.051121986114],
        [-113.71631456991, -138.41784579207, 44.713568961822],
        [-113.74372030874, -138.06355292251, 46.376014030181],
        [-113.77112616678, -137.70926005294, 48.03845909854],
        [-113.79853202482, -137.35496622969, 49.7009041669],
        [-113.82593788286, -137.00067336013, 51.363351142608],
        [-113.8533437409, -136.64637953688, 53.025796210967],
        [-113.88074959894, -136.29208666732, 54.688241279326],
        [-113.90815533777, -135.93779379775, 56.350686347686],
        [-113.93556119581, -135.58349997451, 58.013131416045],
        [-113.96296705385, -135.22920710494, 59.675576484405],
        [-113.99037291189, -134.8749132817, 61.338025367461],
        [-114.01777865072, -134.52062041213, 63.000470435821],
        [-114.04518462797, -134.16632754256, 64.66291550418],
        [-114.0725903668, -133.81203371932, 66.325360572539],
        [-114.09999634405, -133.45774084975, 67.987805640899],
        [-114.12740208288, -133.10344702651, 69.650250709258],
        [-114.15480782171, -132.74915415694, 71.312695777617],
        [-114.18221379896, -132.39486081054, 72.975140845977],
        [-114.20961953779, -132.04056746413, 74.637589729033],
        [-114.23702551504, -131.68627459456, 76.300034797393],
        [-114.26443125387, -131.33198124816, 77.962479865752],
        [-114.2918369927, -130.97768790175, 79.624924934112],
        [-114.31924296995, -130.62339455535, 81.287370002471],
        [-114.34664870878, -130.26910168578, 82.94981507083],
        [-114.37405468603, -129.91480833938, 84.61226013919],
        [-114.40146042486, -129.56051499297, 86.274705207549],
        [-114.42886616369, -129.20622164657, 87.937154090606],
        [-114.45627214094, -128.85192853858, 89.599595344268],
        [-114.48367787977, -128.49763519217, 91.262040412627],
        [-114.51108385702, -128.14334184577, 92.924485480987],
        [-114.53848959585, -127.78904873778, 94.586938178741],
        [-114.5658955731, -127.43475539138, 96.2493832471],
        [-114.59330131193, -127.08046228339, 97.911828315459],
        [-114.62070705076, -126.72616893699, 99.574273383819],
        [-114.64811302801, -126.37187570979, 101.23671845218],
        [-114.67551876684, -126.01758248259, 102.89916352054],
        [-114.70292474409, -125.66328919579, 104.5616085889]
],
      "InstanceCreationTime": ["151619.928000", "151620.068000", "151619.936000", "151620.075000", "151619.943000", "151620.081000", "151619.950000", "151620.087000", "151619.960000", "151620.094000", "151619.966000", "151620.101000", "151619.973000", "151620.107000", "151619.979000", "151620.123000", "151619.986000", "151620.130000", "151619.993000", "151620.137000", "151620.042000", "151620.144000", "151620.049000", "151620.151000", "151620.055000", "151620.158000", "151620.062000", "151619.932000", "151620.070000", "151619.939000", "151620.077000", "151619.945000", "151620.083000", "151619.955000", "151620.090000", "151619.962000", "151620.096000", "151619.968000", "151620.103000", "151619.975000", "151620.109000", "151619.982000", "151620.125000", "151619.989000", "151620.133000", "151620.037000", "151620.140000", "151620.044000", "151620.147000", "151620.051000", "151620.154000", "151620.058000", "151620.161000", "151620.064000", "151619.934000", "151620.072000", "151619.941000", "151620.079000", "151619.947000", "151620.085000", "151619.958000", "151620.092000", "151619.964000", "151620.098000", "151619.971000", "151620.105000", "151619.977000", "151620.111000", "151619.984000", "151620.128000", "151619.991000", "151620.135000", "151620.040000", "151620.142000", "151620.047000", "151620.149000", "151620.053000", "151620.156000", "151620.060000", "151620.163000", "151620.066000"],
      "InstanceNumber": [1, 2, 3, 4, 5, 6, 7, 8, 9, 10, 11, 12, 13, 14, 15, 16, 17, 18, 19, 20, 21, 22, 23, 24, 25, 26, 27, 28, 29, 30, 31, 32, 33, 34, 35, 36, 37, 38, 39, 40, 41, 42, 43, 44, 45, 46, 47, 48, 49, 50, 51, 52, 53, 54, 55, 56, 57, 58, 59, 60, 61, 62, 63, 64, 65, 66, 67, 68, 69, 70, 71, 72, 73, 74, 75, 76, 77, 78, 79, 80, 81],
      "LargestImagePixelValue": [25210, 18132, 18643, 28329, 41678, 43764, 42681, 38960, 47899, 55584, 65535, 65535, 65535, 65535, 62236, 46341, 47196, 37861, 63806, 65535, 65535, 65535, 50395, 49209, 54546, 57379, 63820, 65535, 65535, 65365, 50347, 44526, 46143, 53046, 52912, 43160, 55193, 47134, 42729, 52765, 47747, 54458, 41693, 41616, 51484, 50259, 53702, 53645, 53036, 51327, 51752, 48735, 45283, 47818, 43420, 39942, 38439, 40211, 36857, 40409, 42370, 39307, 42211, 37584, 43482, 42284, 40739, 43620, 44267, 46790, 41181, 43239, 40596, 36161, 43976, 45685, 43643, 27728, 9845, 10294, 11784],
      "SliceLocation": [-58.08831902079, -56.388319772329, -54.688320125402, -52.988320478474, -51.288321230013, -49.588321583086, -47.888321936158, -46.18831895727, -44.488319310342, -42.788319663415, -41.088320017448, -39.388320768026, -37.688321121099, -35.988319609918, -34.288320360497, -32.58832071453, -30.888321067602, -29.188319952967, -27.488320307, -25.788320660072, -24.088321013145, -22.38831989851, -20.688320253504, -18.988320606576, -17.288320424548, -15.58832077762, -13.888320198085, -12.188320948664, -10.488320371051, -8.7883202578199, -7.0883205420951, -5.3883205454398, -3.6883203739207, -1.9883202024016, -0.2883204885985, 1.4116796246326, 3.1116797378638, 4.8116791860383, 6.5116795668198, 8.2116792118257, 9.9116795926071, 11.611679973389, 13.311679620316, 15.011679068491, 16.711680580632, 18.411680026885, 20.11167947506, 21.811679121987, 23.511680435376, 25.211680082303, 26.911679530478, 28.611678976731, 30.311678623658, 32.011678071833, 33.711681449188, 35.411680895441, 37.111680345537, 38.811679990543, 40.51167944064, 42.211679085646, 43.911678531898, 45.611678081371, 47.311681357428, 49.011680807524, 50.711680353154, 52.411679898783, 54.111679448256, 55.811678894509, 57.511678443982, 59.211677989611, 60.911681265668, 62.611677035025, 64.311676580655, 66.011676130128, 67.711683086923, 69.411682636396, 71.111682132337, 72.811681677967, 74.511681202596, 76.211680723381, 77.911680260432],
      "WindowCenter": [4925.0, 3854.0, 3651.0, 4722.0, 5729.0, 6406.0, 7336.0, 8047.0, 9445.0, 9302.0, 8167.0, 7757.0, 7816.0, 8009.0, 7514.0, 7043.0, 6922.0, 6756.0, 7536.0, 7965.0, 8277.0, 8364.0, 8509.0, 8405.0, 8597.0, 8824.0, 9106.0, 9086.0, 9145.0, 9064.0, 8984.0, 8969.0, 9077.0, 9273.0, 9316.0, 9425.0, 9771.0, 9693.0, 9557.0, 9552.0, 9721.0, 9973.0, 10028.0, 10041.0, 10047.0, 10239.0, 10311.0, 10445.0, 10306.0, 10221.0, 10301.0, 10398.0, 10288.0, 10389.0, 10038.0, 10069.0, 10005.0, 10142.0, 10098.0, 10260.0, 10378.0, 10315.0, 10268.0, 10209.0, 10590.0, 10483.0, 10670.0, 10710.0, 10811.0, 10758.0, 10908.0, 10804.0, 10719.0, 10519.0, 10393.0, 10099.0, 8110.0, 3770.0, 1599.0, 1657.0, 2185.0],
      "WindowWidth": [11352.0, 9290.0, 8756.0, 10869.0, 12966.0, 14188.0, 15626.0, 17040.0, 20505.0, 20651.0, 19838.0, 19737.0, 19726.0, 19606.0, 18037.0, 16438.0, 15270.0, 14862.0, 16933.0, 18081.0, 19119.0, 19039.0, 18893.0, 18752.0, 18837.0, 19362.0, 20131.0, 20391.0, 20660.0, 20169.0, 19906.0, 19906.0, 20328.0, 20650.0, 20853.0, 20972.0, 21736.0, 21570.0, 21216.0, 21237.0, 21591.0, 22165.0, 22104.0, 22182.0, 22440.0, 22895.0, 22944.0, 23250.0, 22991.0, 22862.0, 22924.0, 23262.0, 22994.0, 23174.0, 22107.0, 22180.0, 22047.0, 22326.0, 22174.0, 22530.0, 22931.0, 22669.0, 22503.0, 22440.0, 23609.0, 23317.0, 23919.0, 24061.0, 24567.0, 24530.0, 25921.0, 25775.0, 25988.0, 25183.0, 26215.0, 23998.0, 17766.0, 9363.0, 4658.0, 4874.0, 5865.0]
    }
  }
}