{
  "AcquisitionMatrixPE": 82,
  "AcquisitionNumber": 1,
  "AcquisitionTime": "09:49:37.097500",
  "BandwidthPerPixelPhaseEncode": 24.888,
  "BaseResolution": 82,
  "BodyPartExamined": "BRAIN",
  "ConsistencyInfo": "N4_VE11C_LATEST_20160120",
  "ConversionSoftware": "dcm2niix",
  "ConversionSoftwareVersion": "v1.0.20201102",
  "DerivedVendorReportedEchoSpacing": 0.00049,
  "DeviceSerialNumber": "66112",
  "DwellTime": 2e-06,
  "EchoTime": 0.0272,
  "EchoTrainLength": 82,
  "EffectiveEchoSpacing": 0.00049,
  "FlipAngle": 44,
  "ImageComments": "Unaliased MB8/PE3",
  "ImageOrientationPatientDICOM": [0.998947, 0.0454138, -0.0065307, -0.0429162, 0.97522, 0.217034],
  "ImageType": [
    "ORIGINAL",
    "PRIMARY",
    "M",
    "MB",
    "ND",
    "NORM",
    "MOSAIC"
],
  "ImagingFrequency": 123.252,
  "InPlanePhaseEncodingDirectionDICOM": "COL",
  "InstitutionAddress": "Maynard 3,Hanover,NH,US,03755",
  "InstitutionName": "Dartmouth College - PBS",
  "InstitutionalDepartmentName": "Department",
  "MRAcquisitionType": "2D",
  "MagneticFieldStrength": 3,
  "Manufacturer": "Siemens",
  "ManufacturersModelName": "Prisma",
  "Modality": "MR",
  "MultibandAccelerationFactor": 8,
  "PartialFourier": 1,
  "PatientPosition": "HFS",
  "PercentPhaseFOV": 100,
  "PercentSampling": 100,
  "PhaseEncodingDirection": "j-",
  "PhaseEncodingSteps": 82,
  "PhaseResolution": 1,
  "PixelBandwidth": 3050,
  "ProcedureStepDescription": "Wager_Wager^1076_spacetop",
  "ProtocolName": "func_run-05_task-social_acq-ap-mb8",
  "PulseSequenceDetails": "%CustomerSeq%\\cmrr_mbep2d_bold",
  "ReceiveCoilActiveElements": "HEA;HEP",
  "ReceiveCoilName": "Head_32",
  "ReconMatrixPE": 82,
  "RepetitionTime": 0.46,
  "SAR": 0.109236,
  "ScanOptions": "FS",
  "ScanningSequence": "EP",
  "SequenceName": "epfid2d1_82",
  "SequenceVariant": "SK\\SS",
  "SeriesDescription": "func_run-05_task-social_acq-ap-mb8",
  "SeriesNumber": 22,
  "ShimSetting": [4142, -7783, -7228, 504, -51, -227, 58, 80],
  "SliceThickness": 2.7,
  "SliceTiming": [0, 0.2525, 0.0625, 0.315, 0.125, 0.3775, 0.19, 0, 0.2525, 0.0625, 0.315, 0.125, 0.3775, 0.19, 0, 0.2525, 0.0625, 0.315, 0.125, 0.3775, 0.19, 0, 0.2525, 0.0625, 0.315, 0.125, 0.3775, 0.19, 0, 0.2525, 0.0625, 0.315, 0.125, 0.3775, 0.19, 0, 0.2525, 0.0625, 0.315, 0.125, 0.3775, 0.19, 0, 0.2525, 0.0625, 0.315, 0.125, 0.3775, 0.19, 0, 0.2525, 0.0625, 0.315, 0.125, 0.3775, 0.19],
  "SoftwareVersions": "syngo MR E11",
  "SpacingBetweenSlices": 2.7,
  "StationName": "AWP66112",
  "TaskName": "social",
  "TotalReadoutTime": 0.03969,
  "TxRefAmp": 237.188,
  "WipMemBlock": "abf602c9-95c4-40c3-b0e1-541b0bb8d8ba||Sequence: R016 ve11c/master r/e634e98; Dec 19 2017 11:00:25 by eja",
  "dcmmeta_affine": [
    [-2.6801016330718994, -0.1151411384344101, -0.04380802810192108, 119.96361541748047],
    [-0.12184182554483414, 2.6164445877075195, 0.5846174359321594, -95.18283081054688],
    [-0.017521392554044724, -0.5822858810424805, 2.6355841159820557, -10.338409423828125],
    [0.0, 0.0, 0.0, 1.0]
],
  "dcmmeta_reorient_transform": [
    [0.0, -1.0, 0.0, 81.0],
    [1.0, 0.0, 0.0, 0.0],
    [0.0, 0.0, 1.0, 0.0],
    [0.0, 0.0, 0.0, 1.0]
],
  "dcmmeta_shape": [82, 82, 56, 872],
  "dcmmeta_slice_dim": 2,
  "dcmmeta_version": 0.6,
  "global": {
    "const": {
      "AccessionNumber": "A003455",
      "AcquisitionMatrix": [82, 0, 0, 82],
      "AngioFlag": "N",
      "BitsAllocated": 16,
      "BitsStored": 16,
      "BodyPartExamined": "BRAIN",
      "Columns": 656,
      "EchoNumbers": 1,
      "EchoTime": 27.2,
      "EchoTrainLength": 82,
      "FlipAngle": 44.0,
      "HighBit": 15,
      "ImageOrientationPatient": [0.99894691515821, 0.04541377147698, -0.0065307010439, -0.0429162406814, 0.97522024168596, 0.2170338141667],
      "ImagePositionPatient": [-846.7808223633, -902.63739130204, -219.59096478976],
      "ImageType": [
        "ORIGINAL",
        "PRIMARY",
        "M",
        "MB",
        "ND",
        "NORM",
        "MOSAIC"
],
      "ImagedNucleus": "1H",
      "ImagingFrequency": 123.25212,
      "InPlanePhaseEncodingDirection": "COL",
      "MRAcquisitionType": "2D",
      "MagneticFieldStrength": 3.0,
      "Manufacturer": "SIEMENS",
      "ManufacturerModelName": "Prisma",
      "Modality": "MR",
      "NumberOfAverages": 1.0,
      "NumberOfPhaseEncodingSteps": 82,
      "PercentPhaseFieldOfView": 100.0,
      "PercentSampling": 100.0,
      "PerformedProcedureStepStartTime": "081555.761000",
      "PhotometricInterpretation": "MONOCHROME2",
      "PixelBandwidth": 3050.0,
      "PixelRepresentation": 0,
      "PixelSpacing": [2.6829268932343, 2.6829268932343],
      "ProtocolName": "func_run-05_task-social_acq-ap-mb8",
      "RepetitionTime": 460.0,
      "Rows": 656,
      "SAR": 0.10923634566804,
      "SamplesPerPixel": 1,
      "ScanOptions": "FS",
      "ScanningSequence": "EP",
      "SequenceName": "epfid2d1_82",
      "SequenceVariant": [
        "SK",
        "SS"
],
      "SeriesDescription": "func_run-05_task-social_acq-ap-mb8",
      "SeriesNumber": 22,
      "SeriesTime": "094947.979000",
      "SliceLocation": -32.647652532524,
      "SliceThickness": 2.7000000476837,
      "SmallestImagePixelValue": 0,
      "SoftwareVersions": "syngo MR E11",
      "SpacingBetweenSlices": 2.7000000069318,
      "SpecificCharacterSet": "ISO_IR 100",
      "StudyID": "1",
      "StudyTime": "081555.637000",
      "TransmitCoilName": "Body",
      "VariableFlipAngleFlag": "N",
      "WindowCenterWidthExplanation": "Algo1",
      "dBdt": 0.0},
    "slices": {}
  },
  "time": {
    "samples": {
      "AcquisitionNumber": [1, 2, 3, 4, 5, 6, 7, 8, 9, 10, 11, 12, 13, 14, 15, 16, 17, 18, 19, 20, 21, 22, 23, 24, 25, 26, 27, 28, 29, 30, 31, 32, 33, 34, 35, 36, 37, 38, 39, 40, 41, 42, 43, 44, 45, 46, 47, 48, 49, 50, 51, 52, 53, 54, 55, 56, 57, 58, 59, 60, 61, 62, 63, 64, 65, 66, 67, 68, 69, 70, 71, 72, 73, 74, 75, 76, 77, 78, 79, 80, 81, 82, 83, 84, 85, 86, 87, 88, 89, 90, 91, 92, 93, 94, 95, 96, 97, 98, 99, 100, 101, 102, 103, 104, 105, 106, 107, 108, 109, 110, 111, 112, 113, 114, 115, 116, 117, 118, 119, 120, 121, 122, 123, 124, 125, 126, 127, 128, 129, 130, 131, 132, 133, 134, 135, 136, 137, 138, 139, 140, 141, 142, 143, 144, 145, 146, 147, 148, 149, 150, 151, 152, 153, 154, 155, 156, 157, 158, 159, 160, 161, 162, 163, 164, 165, 166, 167, 168, 169, 170, 171, 172, 173, 174, 175, 176, 177, 178, 179, 180, 181, 182, 183, 184, 185, 186, 187, 188, 189, 190, 191, 192, 193, 194, 195, 196, 197, 198, 199, 200, 201, 202, 203, 204, 205, 206, 207, 208, 209, 210, 211, 212, 213, 214, 215, 216, 217, 218, 219, 220, 221, 222, 223, 224, 225, 226, 227, 228, 229, 230, 231, 232, 233, 234, 235, 236, 237, 238, 239, 240, 241, 242, 243, 244, 245, 246, 247, 248, 249, 250, 251, 252, 253, 254, 255, 256, 257, 258, 259, 260, 261, 262, 263, 264, 265, 266, 267, 268, 269, 270, 271, 272, 273, 274, 275, 276, 277, 278, 279, 280, 281, 282, 283, 284, 285, 286, 287, 288, 289, 290, 291, 292, 293, 294, 295, 296, 297, 298, 299, 300, 301, 302, 303, 304, 305, 306, 307, 308, 309, 310, 311, 312, 313, 314, 315, 316, 317, 318, 319, 320, 321, 322, 323, 324, 325, 326, 327, 328, 329, 330, 331, 332, 333, 334, 335, 336, 337, 338, 339, 340, 341, 342, 343, 344, 345, 346, 347, 348, 349, 350, 351, 352, 353, 354, 355, 356, 357, 358, 359, 360, 361, 362, 363, 364, 365, 366, 367, 368, 369, 370, 371, 372, 373, 374, 375, 376, 377, 378, 379, 380, 381, 382, 383, 384, 385, 386, 387, 388, 389, 390, 391, 392, 393, 394, 395, 396, 397, 398, 399, 400, 401, 402, 403, 404, 405, 406, 407, 408, 409, 410, 411, 412, 413, 414, 415, 416, 417, 418, 419, 420, 421, 422, 423, 424, 425, 426, 427, 428, 429, 430, 431, 432, 433, 434, 435, 436, 437, 438, 439, 440, 441, 442, 443, 444, 445, 446, 447, 448, 449, 450, 451, 452, 453, 454, 455, 456, 457, 458, 459, 460, 461, 462, 463, 464, 465, 466, 467, 468, 469, 470, 471, 472, 473, 474, 475, 476, 477, 478, 479, 480, 481, 482, 483, 484, 485, 486, 487, 488, 489, 490, 491, 492, 493, 494, 495, 496, 497, 498, 499, 500, 501, 502, 503, 504, 505, 506, 507, 508, 509, 510, 511, 512, 513, 514, 515, 516, 517, 518, 519, 520, 521, 522, 523, 524, 525, 526, 527, 528, 529, 530, 531, 532, 533, 534, 535, 536, 537, 538, 539, 540, 541, 542, 543, 544, 545, 546, 547, 548, 549, 550, 551, 552, 553, 554, 555, 556, 557, 558, 559, 560, 561, 562, 563, 564, 565, 566, 567, 568, 569, 570, 571, 572, 573, 574, 575, 576, 577, 578, 579, 580, 581, 582, 583, 584, 585, 586, 587, 588, 589, 590, 591, 592, 593, 594, 595, 596, 597, 598, 599, 600, 601, 602, 603, 604, 605, 606, 607, 608, 609, 610, 611, 612, 613, 614, 615, 616, 617, 618, 619, 620, 621, 622, 623, 624, 625, 626, 627, 628, 629, 630, 631, 632, 633, 634, 635, 636, 637, 638, 639, 640, 641, 642, 643, 644, 645, 646, 647, 648, 649, 650, 651, 652, 653, 654, 655, 656, 657, 658, 659, 660, 661, 662, 663, 664, 665, 666, 667, 668, 669, 670, 671, 672, 673, 674, 675, 676, 677, 678, 679, 680, 681, 682, 683, 684, 685, 686, 687, 688, 689, 690, 691, 692, 693, 694, 695, 696, 697, 698, 699, 700, 701, 702, 703, 704, 705, 706, 707, 708, 709, 710, 711, 712, 713, 714, 715, 716, 717, 718, 719, 720, 721, 722, 723, 724, 725, 726, 727, 728, 729, 730, 731, 732, 733, 734, 735, 736, 737, 738, 739, 740, 741, 742, 743, 744, 745, 746, 747, 748, 749, 750, 751, 752, 753, 754, 755, 756, 757, 758, 759, 760, 761, 762, 763, 764, 765, 766, 767, 768, 769, 770, 771, 772, 773, 774, 775, 776, 777, 778, 779, 780, 781, 782, 783, 784, 785, 786, 787, 788, 789, 790, 791, 792, 793, 794, 795, 796, 797, 798, 799, 800, 801, 802, 803, 804, 805, 806, 807, 808, 809, 810, 811, 812, 813, 814, 815, 816, 817, 818, 819, 820, 821, 822, 823, 824, 825, 826, 827, 828, 829, 830, 831, 832, 833, 834, 835, 836, 837, 838, 839, 840, 841, 842, 843, 844, 845, 846, 847, 848, 849, 850, 851, 852, 853, 854, 855, 856, 857, 858, 859, 860, 861, 862, 863, 864, 865, 866, 867, 868, 869, 870, 871, 872],
      "AcquisitionTime": ["094937.097500", "094937.557500", "094938.017500", "094938.477500", "094938.937500", "094939.397500", "094939.857500", "094940.317500", "094940.777500", "094941.237500", "094941.697500", "094942.157500", "094942.617500", "094943.077500", "094943.537500", "094943.997500", "094944.457500", "094944.917500", "094945.377500", "094945.837500", "094946.297500", "094946.757500", "094947.217500", "094947.677500", "094948.137500", "094948.597500", "094949.057500", "094949.517500", "094949.977500", "094950.437500", "094950.897500", "094951.357500", "094951.817500", "094952.277500", "094952.737500", "094953.197500", "094953.657500", "094954.117500", "094954.577500", "094955.037500", "094955.497500", "094955.957500", "094956.417500", "094956.877500", "094957.337500", "094957.797500", "094958.257500", "094958.717500", "094959.177500", "094959.637500", "095000.097500", "095000.557500", "095001.017500", "095001.477500", "095001.937500", "095002.397500", "095002.857500", "095003.317500", "095003.777500", "095004.237500", "095004.697500", "095005.157500", "095005.617500", "095006.077500", "095006.537500", "095006.997500", "095007.457500", "095007.917500", "095008.377500", "095008.837500", "095009.297500", "095009.757500", "095010.217500", "095010.677500", "095011.137500", "095011.597500", "095012.057500", "095012.517500", "095012.977500", "095013.437500", "095013.897500", "095014.357500", "095014.817500", "095015.277500", "095015.737500", "095016.197500", "095016.657500", "095017.117500", "095017.577500", "095018.037500", "095018.497500", "095018.957500", "095019.417500", "095019.877500", "095020.337500", "095020.797500", "095021.257500", "095021.717500", "095022.177500", "095022.637500", "095023.097500", "095023.557500", "095024.017500", "095024.477500", "095024.937500", "095025.397500", "095025.857500", "095026.317500", "095026.777500", "095027.237500", "095027.697500", "095028.157500", "095028.617500", "095029.077500", "095029.537500", "095029.997500", "095030.457500", "095030.917500", "095031.377500", "095031.837500", "095032.297500", "095032.757500", "095033.217500", "095033.677500", "095034.137500", "095034.597500", "095035.057500", "095035.517500", "095035.977500", "095036.437500", "095036.897500", "095037.357500", "095037.817500", "095038.277500", "095038.737500", "095039.197500", "095039.657500", "095040.117500", "095040.577500", "095041.037500", "095041.497500", "095041.957500", "095042.417500", "095042.877500", "095043.337500", "095043.797500", "095044.257500", "095044.717500", "095045.177500", "095045.637500", "095046.097500", "095046.557500", "095047.017500", "095047.477500", "095047.937500", "095048.397500", "095048.857500", "095049.317500", "095049.777500", "095050.237500", "095050.697500", "095051.157500", "095051.617500", "095052.077500", "095052.537500", "095052.997500", "095053.457500", "095053.917500", "095054.377500", "095054.837500", "095055.297500", "095055.757500", "095056.217500", "095056.677500", "095057.137500", "095057.597500", "095058.057500", "095058.517500", "095058.977500", "095059.437500", "095059.897500", "095100.357500", "095100.817500", "095101.277500", "095101.737500", "095102.197500", "095102.657500", "095103.117500", "095103.577500", "095104.037500", "095104.497500", "095104.957500", "095105.417500", "095105.877500", "095106.337500", "095106.797500", "095107.257500", "095107.717500", "095108.177500", "095108.637500", "095109.097500", "095109.557500", "095110.017500", "095110.477500", "095110.937500", "095111.397500", "095111.857500", "095112.317500", "095112.777500", "095113.237500", "095113.697500", "095114.157500", "095114.617500", "095115.077500", "095115.537500", "095115.997500", "095116.457500", "095116.917500", "095117.377500", "095117.837500", "095118.297500", "095118.757500", "095119.217500", "095119.677500", "095120.137500", "095120.597500", "095121.057500", "095121.517500", "095121.977500", "095122.437500", "095122.897500", "095123.357500", "095123.817500", "095124.277500", "095124.737500", "095125.197500", "095125.657500", "095126.117500", "095126.577500", "095127.037500", "095127.497500", "095127.957500", "095128.417500", "095128.877500", "095129.337500", "095129.797500", "095130.257500", "095130.717500", "095131.177500", "095131.637500", "095132.097500", "095132.557500", "095133.017500", "095133.477500", "095133.937500", "095134.397500", "095134.857500", "095135.317500", "095135.777500", "095136.237500", "095136.697500", "095137.157500", "095137.617500", "095138.077500", "095138.537500", "095138.997500", "095139.457500", "095139.917500", "095140.377500", "095140.837500", "095141.297500", "095141.757500", "095142.217500", "095142.677500", "095143.137500", "095143.597500", "095144.057500", "095144.517500", "095144.977500", "095145.437500", "095145.897500", "095146.357500", "095146.817500", "095147.277500", "095147.737500", "095148.197500", "095148.657500", "095149.117500", "095149.577500", "095150.037500", "095150.497500", "095150.957500", "095151.417500", "095151.877500", "095152.337500", "095152.797500", "095153.257500", "095153.717500", "095154.177500", "095154.637500", "095155.097500", "095155.557500", "095156.017500", "095156.477500", "095156.937500", "095157.397500", "095157.857500", "095158.317500", "095158.777500", "095159.237500", "095159.697500", "095200.157500", "095200.617500", "095201.077500", "095201.537500", "095201.997500", "095202.457500", "095202.917500", "095203.377500", "095203.837500", "095204.297500", "095204.757500", "095205.217500", "095205.677500", "095206.137500", "095206.597500", "095207.057500", "095207.517500", "095207.977500", "095208.437500", "095208.897500", "095209.357500", "095209.817500", "095210.277500", "095210.737500", "095211.197500", "095211.657500", "095212.117500", "095212.577500", "095213.037500", "095213.497500", "095213.957500", "095214.417500", "095214.877500", "095215.337500", "095215.797500", "095216.257500", "095216.717500", "095217.177500", "095217.637500", "095218.097500", "095218.557500", "095219.017500", "095219.477500", "095219.937500", "095220.397500", "095220.857500", "095221.317500", "095221.777500", "095222.237500", "095222.697500", "095223.157500", "095223.617500", "095224.077500", "095224.537500", "095224.997500", "095225.457500", "095225.917500", "095226.377500", "095226.837500", "095227.297500", "095227.757500", "095228.217500", "095228.677500", "095229.137500", "095229.597500", "095230.057500", "095230.517500", "095230.977500", "095231.437500", "095231.897500", "095232.357500", "095232.817500", "095233.277500", "095233.737500", "095234.197500", "095234.657500", "095235.117500", "095235.577500", "095236.037500", "095236.497500", "095236.957500", "095237.417500", "095237.877500", "095238.337500", "095238.797500", "095239.257500", "095239.717500", "095240.177500", "095240.637500", "095241.097500", "095241.557500", "095242.017500", "095242.477500", "095242.937500", "095243.397500", "095243.857500", "095244.317500", "095244.777500", "095245.237500", "095245.697500", "095246.157500", "095246.617500", "095247.077500", "095247.537500", "095247.997500", "095248.457500", "095248.917500", "095249.377500", "095249.837500", "095250.297500", "095250.757500", "095251.217500", "095251.677500", "095252.137500", "095252.597500", "095253.057500", "095253.517500", "095253.977500", "095254.437500", "095254.897500", "095255.357500", "095255.817500", "095256.277500", "095256.737500", "095257.197500", "095257.657500", "095258.117500", "095258.577500", "095259.037500", "095259.497500", "095259.957500", "095300.417500", "095300.877500", "095301.337500", "095301.797500", "095302.257500", "095302.717500", "095303.177500", "095303.637500", "095304.097500", "095304.557500", "095305.017500", "095305.477500", "095305.937500", "095306.397500", "095306.857500", "095307.317500", "095307.777500", "095308.237500", "095308.697500", "095309.157500", "095309.617500", "095310.077500", "095310.537500", "095310.997500", "095311.457500", "095311.917500", "095312.377500", "095312.837500", "095313.297500", "095313.757500", "095314.217500", "095314.677500", "095315.137500", "095315.597500", "095316.057500", "095316.517500", "095316.977500", "095317.437500", "095317.897500", "095318.357500", "095318.817500", "095319.277500", "095319.737500", "095320.197500", "095320.657500", "095321.117500", "095321.577500", "095322.037500", "095322.497500", "095322.957500", "095323.417500", "095323.877500", "095324.337500", "095324.797500", "095325.257500", "095325.717500", "095326.177500", "095326.637500", "095327.097500", "095327.557500", "095328.017500", "095328.477500", "095328.937500", "095329.397500", "095329.857500", "095330.317500", "095330.777500", "095331.237500", "095331.697500", "095332.157500", "095332.617500", "095333.077500", "095333.537500", "095333.997500", "095334.457500", "095334.917500", "095335.377500", "095335.837500", "095336.297500", "095336.757500", "095337.217500", "095337.677500", "095338.137500", "095338.597500", "095339.057500", "095339.517500", "095339.977500", "095340.437500", "095340.897500", "095341.357500", "095341.817500", "095342.277500", "095342.737500", "095343.197500", "095343.657500", "095344.117500", "095344.577500", "095345.037500", "095345.497500", "095345.957500", "095346.417500", "095346.877500", "095347.337500", "095347.797500", "095348.257500", "095348.717500", "095349.177500", "095349.637500", "095350.097500", "095350.557500", "095351.017500", "095351.477500", "095351.937500", "095352.397500", "095352.857500", "095353.317500", "095353.777500", "095354.237500", "095354.697500", "095355.157500", "095355.617500", "095356.077500", "095356.537500", "095356.997500", "095357.457500", "095357.917500", "095358.377500", "095358.837500", "095359.297500", "095359.757500", "095400.217500", "095400.677500", "095401.137500", "095401.597500", "095402.057500", "095402.517500", "095402.977500", "095403.437500", "095403.897500", "095404.357500", "095404.817500", "095405.277500", "095405.737500", "095406.197500", "095406.657500", "095407.117500", "095407.577500", "095408.037500", "095408.497500", "095408.957500", "095409.417500", "095409.877500", "095410.337500", "095410.797500", "095411.257500", "095411.717500", "095412.177500", "095412.637500", "095413.097500", "095413.557500", "095414.017500", "095414.477500", "095414.937500", "095415.397500", "095415.857500", "095416.317500", "095416.777500", "095417.237500", "095417.697500", "095418.157500", "095418.617500", "095419.077500", "095419.537500", "095419.997500", "095420.457500", "095420.917500", "095421.377500", "095421.837500", "095422.297500", "095422.757500", "095423.217500", "095423.677500", "095424.137500", "095424.597500", "095425.057500", "095425.517500", "095425.977500", "095426.437500", "095426.897500", "095427.357500", "095427.817500", "095428.277500", "095428.737500", "095429.197500", "095429.657500", "095430.117500", "095430.577500", "095431.037500", "095431.497500", "095431.957500", "095432.417500", "095432.877500", "095433.337500", "095433.797500", "095434.257500", "095434.717500", "095435.177500", "095435.637500", "095436.097500", "095436.557500", "095437.017500", "095437.477500", "095437.937500", "095438.397500", "095438.857500", "095439.317500", "095439.777500", "095440.237500", "095440.697500", "095441.157500", "095441.617500", "095442.077500", "095442.537500", "095442.997500", "095443.457500", "095443.917500", "095444.377500", "095444.837500", "095445.297500", "095445.757500", "095446.217500", "095446.677500", "095447.137500", "095447.597500", "095448.057500", "095448.517500", "095448.977500", "095449.437500", "095449.897500", "095450.357500", "095450.817500", "095451.277500", "095451.737500", "095452.197500", "095452.657500", "095453.117500", "095453.577500", "095454.037500", "095454.497500", "095454.957500", "095455.417500", "095455.877500", "095456.337500", "095456.797500", "095457.257500", "095457.717500", "095458.177500", "095458.637500", "095459.097500", "095459.557500", "095500.017500", "095500.477500", "095500.937500", "095501.397500", "095501.857500", "095502.317500", "095502.777500", "095503.237500", "095503.697500", "095504.157500", "095504.617500", "095505.077500", "095505.537500", "095505.997500", "095506.457500", "095506.917500", "095507.377500", "095507.837500", "095508.297500", "095508.757500", "095509.217500", "095509.677500", "095510.137500", "095510.597500", "095511.057500", "095511.517500", "095511.977500", "095512.437500", "095512.897500", "095513.357500", "095513.817500", "095514.277500", "095514.737500", "095515.197500", "095515.657500", "095516.117500", "095516.577500", "095517.037500", "095517.497500", "095517.957500", "095518.417500", "095518.877500", "095519.337500", "095519.797500", "095520.257500", "095520.717500", "095521.177500", "095521.637500", "095522.097500", "095522.557500", "095523.017500", "095523.477500", "095523.937500", "095524.397500", "095524.857500", "095525.317500", "095525.777500", "095526.237500", "095526.697500", "095527.157500", "095527.617500", "095528.077500", "095528.537500", "095528.997500", "095529.457500", "095529.917500", "095530.377500", "095530.837500", "095531.297500", "095531.757500", "095532.217500", "095532.677500", "095533.137500", "095533.597500", "095534.057500", "095534.517500", "095534.977500", "095535.437500", "095535.897500", "095536.357500", "095536.817500", "095537.277500", "095537.737500", "095538.197500", "095538.657500", "095539.117500", "095539.577500", "095540.037500", "095540.497500", "095540.957500", "095541.417500", "095541.877500", "095542.337500", "095542.797500", "095543.257500", "095543.717500", "095544.177500", "095544.637500", "095545.097500", "095545.557500", "095546.017500", "095546.477500", "095546.937500", "095547.397500", "095547.857500", "095548.317500", "095548.777500", "095549.237500", "095549.697500", "095550.157500", "095550.617500", "095551.077500", "095551.537500", "095551.997500", "095552.457500", "095552.917500", "095553.377500", "095553.837500", "095554.297500", "095554.757500", "095555.217500", "095555.677500", "095556.137500", "095556.597500", "095557.057500", "095557.517500", "095557.977500", "095558.437500", "095558.897500", "095559.357500", "095559.817500", "095600.277500", "095600.737500", "095601.197500", "095601.657500", "095602.117500", "095602.577500", "095603.037500", "095603.497500", "095603.957500", "095604.417500", "095604.877500", "095605.337500", "095605.797500", "095606.257500", "095606.717500", "095607.177500", "095607.637500", "095608.097500", "095608.557500", "095609.017500", "095609.477500", "095609.937500", "095610.397500", "095610.857500", "095611.317500", "095611.777500", "095612.237500", "095612.697500", "095613.157500", "095613.617500", "095614.077500", "095614.537500", "095614.997500", "095615.457500", "095615.917500", "095616.377500", "095616.837500", "095617.297500", "095617.757500"],
