{
  "AcquisitionMatrixPE": 82,
  "AcquisitionNumber": 1,
  "AcquisitionTime": "09:56:47.922500",
  "BandwidthPerPixelPhaseEncode": 24.888,
  "BaseResolution": 82,
  "BodyPartExamined": "BRAIN",
  "ConsistencyInfo": "N4_VE11C_LATEST_20160120",
  "ConversionSoftware": "dcm2niix",
  "ConversionSoftwareVersion": "v1.0.20201102",
  "DerivedVendorReportedEchoSpacing": 0.00049,
  "DeviceSerialNumber": "66112",
  "DwellTime": 2e-06,
  "EchoTime": 0.0272,
  "EchoTrainLength": 82,
  "EffectiveEchoSpacing": 0.00049,
  "FlipAngle": 44,
  "ImageComments": "Unaliased MB8/PE3",
  "ImageOrientationPatientDICOM": [0.998947, 0.0454138, -0.0065307, -0.0429162, 0.97522, 0.217034],
  "ImageType": [
    "ORIGINAL",
    "PRIMARY",
    "M",
    "MB",
    "ND",
    "NORM",
    "MOSAIC"
],
  "ImagingFrequency": 123.252,
  "InPlanePhaseEncodingDirectionDICOM": "COL",
  "InstitutionAddress": "Maynard 3,Hanover,NH,US,03755",
  "InstitutionName": "Dartmouth College - PBS",
  "InstitutionalDepartmentName": "Department",
  "MRAcquisitionType": "2D",
  "MagneticFieldStrength": 3,
  "Manufacturer": "Siemens",
  "ManufacturersModelName": "Prisma",
  "Modality": "MR",
  "MultibandAccelerationFactor": 8,
  "PartialFourier": 1,
  "PatientPosition": "HFS",
  "PercentPhaseFOV": 100,
  "PercentSampling": 100,
  "PhaseEncodingDirection": "j-",
  "PhaseEncodingSteps": 82,
  "PhaseResolution": 1,
  "PixelBandwidth": 3050,
  "ProcedureStepDescription": "Wager_Wager^1076_spacetop",
  "ProtocolName": "func_run-06_task-social_acq-ap-mb8",
  "PulseSequenceDetails": "%CustomerSeq%\\cmrr_mbep2d_bold",
  "ReceiveCoilActiveElements": "HEA;HEP",
  "ReceiveCoilName": "Head_32",
  "ReconMatrixPE": 82,
  "RepetitionTime": 0.46,
  "SAR": 0.109236,
  "ScanOptions": "FS",
  "ScanningSequence": "EP",
  "SequenceName": "epfid2d1_82",
  "SequenceVariant": "SK\\SS",
  "SeriesDescription": "func_run-06_task-social_acq-ap-mb8",
  "SeriesNumber": 24,
  "ShimSetting": [4142, -7783, -7228, 504, -51, -227, 58, 80],
  "SliceThickness": 2.7,
  "SliceTiming": [0, 0.2525, 0.065, 0.315, 0.1275, 0.3775, 0.19, 0, 0.2525, 0.065, 0.315, 0.1275, 0.3775, 0.19, 0, 0.2525, 0.065, 0.315, 0.1275, 0.3775, 0.19, 0, 0.2525, 0.065, 0.315, 0.1275, 0.3775, 0.19, 0, 0.2525, 0.065, 0.315, 0.1275, 0.3775, 0.19, 0, 0.2525, 0.065, 0.315, 0.1275, 0.3775, 0.19, 0, 0.2525, 0.065, 0.315, 0.1275, 0.3775, 0.19, 0, 0.2525, 0.065, 0.315, 0.1275, 0.3775, 0.19],
  "SoftwareVersions": "syngo MR E11",
  "SpacingBetweenSlices": 2.7,
  "StationName": "AWP66112",
  "TaskName": "social",
  "TotalReadoutTime": 0.03969,
  "TxRefAmp": 237.188,
  "WipMemBlock": "7da9cf3d-1490-47a6-99e6-67f2666d239a||Sequence: R016 ve11c/master r/e634e98; Dec 19 2017 11:00:25 by eja",
  "dcmmeta_affine": [
    [-2.6801016330718994, -0.1151411384344101, -0.04380802810192108, 119.96361541748047],
    [-0.12184182554483414, 2.6164445877075195, 0.5846174359321594, -95.18283081054688],
    [-0.017521392554044724, -0.5822858810424805, 2.6355841159820557, -10.338409423828125],
    [0.0, 0.0, 0.0, 1.0]
],
  "dcmmeta_reorient_transform": [
    [0.0, -1.0, 0.0, 81.0],
    [1.0, 0.0, 0.0, 0.0],
    [0.0, 0.0, 1.0, 0.0],
    [0.0, 0.0, 0.0, 1.0]
],
  "dcmmeta_shape": [82, 82, 56, 872],
  "dcmmeta_slice_dim": 2,
  "dcmmeta_version": 0.6,
  "global": {
    "const": {
      "AccessionNumber": "A003455",
      "AcquisitionMatrix": [82, 0, 0, 82],
      "AngioFlag": "N",
      "BitsAllocated": 16,
      "BitsStored": 16,
      "BodyPartExamined": "BRAIN",
      "Columns": 656,
      "EchoNumbers": 1,
      "EchoTime": 27.2,
      "EchoTrainLength": 82,
      "FlipAngle": 44.0,
      "HighBit": 15,
      "ImageOrientationPatient": [0.99894691515821, 0.04541377147698, -0.0065307010439, -0.0429162406814, 0.97522024168596, 0.2170338141667],
      "ImagePositionPatient": [-846.7808223633, -902.63739130204, -219.59096478976],
      "ImageType": [
        "ORIGINAL",
        "PRIMARY",
        "M",
        "MB",
        "ND",
        "NORM",
        "MOSAIC"
],
      "ImagedNucleus": "1H",
      "ImagingFrequency": 123.252122,
      "InPlanePhaseEncodingDirection": "COL",
      "MRAcquisitionType": "2D",
      "MagneticFieldStrength": 3.0,
      "Manufacturer": "SIEMENS",
      "ManufacturerModelName": "Prisma",
      "Modality": "MR",
      "NumberOfAverages": 1.0,
      "NumberOfPhaseEncodingSteps": 82,
      "PercentPhaseFieldOfView": 100.0,
      "PercentSampling": 100.0,
      "PerformedProcedureStepStartTime": "081555.761000",
      "PhotometricInterpretation": "MONOCHROME2",
      "PixelBandwidth": 3050.0,
      "PixelRepresentation": 0,
      "PixelSpacing": [2.6829268932343, 2.6829268932343],
      "ProtocolName": "func_run-06_task-social_acq-ap-mb8",
      "RepetitionTime": 460.0,
      "Rows": 656,
      "SAR": 0.10923634566804,
      "SamplesPerPixel": 1,
      "ScanOptions": "FS",
      "ScanningSequence": "EP",
      "SequenceName": "epfid2d1_82",
      "SequenceVariant": [
        "SK",
        "SS"
],
      "SeriesDescription": "func_run-06_task-social_acq-ap-mb8",
      "SeriesNumber": 24,
      "SeriesTime": "095707.832000",
      "SliceLocation": -32.647652532524,
      "SliceThickness": 2.7000000476837,
      "SmallestImagePixelValue": 0,
      "SoftwareVersions": "syngo MR E11",
      "SpacingBetweenSlices": 2.7000000069318,
      "SpecificCharacterSet": "ISO_IR 100",
      "StudyID": "1",
      "StudyTime": "081555.637000",
      "TransmitCoilName": "Body",
      "VariableFlipAngleFlag": "N",
      "WindowCenterWidthExplanation": "Algo1",
      "dBdt": 0.0},
    "slices": {}
  },
  "time": {
    "samples": {
      "AcquisitionNumber": [1, 2, 3, 4, 5, 6, 7, 8, 9, 10, 11, 12, 13, 14, 15, 16, 17, 18, 19, 20, 21, 22, 23, 24, 25, 26, 27, 28, 29, 30, 31, 32, 33, 34, 35, 36, 37, 38, 39, 40, 41, 42, 43, 44, 45, 46, 47, 48, 49, 50, 51, 52, 53, 54, 55, 56, 57, 58, 59, 60, 61, 62, 63, 64, 65, 66, 67, 68, 69, 70, 71, 72, 73, 74, 75, 76, 77, 78, 79, 80, 81, 82, 83, 84, 85, 86, 87, 88, 89, 90, 91, 92, 93, 94, 95, 96, 97, 98, 99, 100, 101, 102, 103, 104, 105, 106, 107, 108, 109, 110, 111, 112, 113, 114, 115, 116, 117, 118, 119, 120, 121, 122, 123, 124, 125, 126, 127, 128, 129, 130, 131, 132, 133, 134, 135, 136, 137, 138, 139, 140, 141, 142, 143, 144, 145, 146, 147, 148, 149, 150, 151, 152, 153, 154, 155, 156, 157, 158, 159, 160, 161, 162, 163, 164, 165, 166, 167, 168, 169, 170, 171, 172, 173, 174, 175, 176, 177, 178, 179, 180, 181, 182, 183, 184, 185, 186, 187, 188, 189, 190, 191, 192, 193, 194, 195, 196, 197, 198, 199, 200, 201, 202, 203, 204, 205, 206, 207, 208, 209, 210, 211, 212, 213, 214, 215, 216, 217, 218, 219, 220, 221, 222, 223, 224, 225, 226, 227, 228, 229, 230, 231, 232, 233, 234, 235, 236, 237, 238, 239, 240, 241, 242, 243, 244, 245, 246, 247, 248, 249, 250, 251, 252, 253, 254, 255, 256, 257, 258, 259, 260, 261, 262, 263, 264, 265, 266, 267, 268, 269, 270, 271, 272, 273, 274, 275, 276, 277, 278, 279, 280, 281, 282, 283, 284, 285, 286, 287, 288, 289, 290, 291, 292, 293, 294, 295, 296, 297, 298, 299, 300, 301, 302, 303, 304, 305, 306, 307, 308, 309, 310, 311, 312, 313, 314, 315, 316, 317, 318, 319, 320, 321, 322, 323, 324, 325, 326, 327, 328, 329, 330, 331, 332, 333, 334, 335, 336, 337, 338, 339, 340, 341, 342, 343, 344, 345, 346, 347, 348, 349, 350, 351, 352, 353, 354, 355, 356, 357, 358, 359, 360, 361, 362, 363, 364, 365, 366, 367, 368, 369, 370, 371, 372, 373, 374, 375, 376, 377, 378, 379, 380, 381, 382, 383, 384, 385, 386, 387, 388, 389, 390, 391, 392, 393, 394, 395, 396, 397, 398, 399, 400, 401, 402, 403, 404, 405, 406, 407, 408, 409, 410, 411, 412, 413, 414, 415, 416, 417, 418, 419, 420, 421, 422, 423, 424, 425, 426, 427, 428, 429, 430, 431, 432, 433, 434, 435, 436, 437, 438, 439, 440, 441, 442, 443, 444, 445, 446, 447, 448, 449, 450, 451, 452, 453, 454, 455, 456, 457, 458, 459, 460, 461, 462, 463, 464, 465, 466, 467, 468, 469, 470, 471, 472, 473, 474, 475, 476, 477, 478, 479, 480, 481, 482, 483, 484, 485, 486, 487, 488, 489, 490, 491, 492, 493, 494, 495, 496, 497, 498, 499, 500, 501, 502, 503, 504, 505, 506, 507, 508, 509, 510, 511, 512, 513, 514, 515, 516, 517, 518, 519, 520, 521, 522, 523, 524, 525, 526, 527, 528, 529, 530, 531, 532, 533, 534, 535, 536, 537, 538, 539, 540, 541, 542, 543, 544, 545, 546, 547, 548, 549, 550, 551, 552, 553, 554, 555, 556, 557, 558, 559, 560, 561, 562, 563, 564, 565, 566, 567, 568, 569, 570, 571, 572, 573, 574, 575, 576, 577, 578, 579, 580, 581, 582, 583, 584, 585, 586, 587, 588, 589, 590, 591, 592, 593, 594, 595, 596, 597, 598, 599, 600, 601, 602, 603, 604, 605, 606, 607, 608, 609, 610, 611, 612, 613, 614, 615, 616, 617, 618, 619, 620, 621, 622, 623, 624, 625, 626, 627, 628, 629, 630, 631, 632, 633, 634, 635, 636, 637, 638, 639, 640, 641, 642, 643, 644, 645, 646, 647, 648, 649, 650, 651, 652, 653, 654, 655, 656, 657, 658, 659, 660, 661, 662, 663, 664, 665, 666, 667, 668, 669, 670, 671, 672, 673, 674, 675, 676, 677, 678, 679, 680, 681, 682, 683, 684, 685, 686, 687, 688, 689, 690, 691, 692, 693, 694, 695, 696, 697, 698, 699, 700, 701, 702, 703, 704, 705, 706, 707, 708, 709, 710, 711, 712, 713, 714, 715, 716, 717, 718, 719, 720, 721, 722, 723, 724, 725, 726, 727, 728, 729, 730, 731, 732, 733, 734, 735, 736, 737, 738, 739, 740, 741, 742, 743, 744, 745, 746, 747, 748, 749, 750, 751, 752, 753, 754, 755, 756, 757, 758, 759, 760, 761, 762, 763, 764, 765, 766, 767, 768, 769, 770, 771, 772, 773, 774, 775, 776, 777, 778, 779, 780, 781, 782, 783, 784, 785, 786, 787, 788, 789, 790, 791, 792, 793, 794, 795, 796, 797, 798, 799, 800, 801, 802, 803, 804, 805, 806, 807, 808, 809, 810, 811, 812, 813, 814, 815, 816, 817, 818, 819, 820, 821, 822, 823, 824, 825, 826, 827, 828, 829, 830, 831, 832, 833, 834, 835, 836, 837, 838, 839, 840, 841, 842, 843, 844, 845, 846, 847, 848, 849, 850, 851, 852, 853, 854, 855, 856, 857, 858, 859, 860, 861, 862, 863, 864, 865, 866, 867, 868, 869, 870, 871, 872],
      "AcquisitionTime": ["095647.922500", "095648.382500", "095648.842500", "095649.302500", "095649.762500", "095650.222500", "095650.682500", "095651.142500", "095651.602500", "095652.062500", "095652.522500", "095652.982500", "095653.442500", "095653.902500", "095654.362500", "095654.822500", "095655.282500", "095655.742500", "095656.202500", "095656.662500", "095657.122500", "095657.582500", "095658.042500", "095658.502500", "095658.962500", "095659.422500", "095659.882500", "095700.342500", "095700.802500", "095701.262500", "095701.722500", "095702.182500", "095702.642500", "095703.102500", "095703.562500", "095704.022500", "095704.482500", "095704.942500", "095705.402500", "095705.862500", "095706.322500", "095706.782500", "095707.242500", "095707.702500", "095708.162500", "095708.622500", "095709.082500", "095709.542500", "095710.002500", "095710.462500", "095710.922500", "095711.382500", "095711.842500", "095712.302500", "095712.762500", "095713.222500", "095713.682500", "095714.142500", "095714.602500", "095715.062500", "095715.522500", "095715.982500", "095716.442500", "095716.902500", "095717.362500", "095717.822500", "095718.282500", "095718.742500", "095719.202500", "095719.662500", "095720.122500", "095720.582500", "095721.042500", "095721.502500", "095721.962500", "095722.422500", "095722.882500", "095723.342500", "095723.802500", "095724.262500", "095724.722500", "095725.182500", "095725.642500", "095726.102500", "095726.562500", "095727.022500", "095727.482500", "095727.942500", "095728.402500", "095728.862500", "095729.322500", "095729.782500", "095730.242500", "095730.702500", "095731.162500", "095731.622500", "095732.082500", "095732.542500", "095733.002500", "095733.462500", "095733.922500", "095734.382500", "095734.842500", "095735.302500", "095735.762500", "095736.222500", "095736.682500", "095737.142500", "095737.602500", "095738.062500", "095738.522500", "095738.982500", "095739.442500", "095739.902500", "095740.362500", "095740.822500", "095741.282500", "095741.742500", "095742.202500", "095742.662500", "095743.122500", "095743.582500", "095744.042500", "095744.502500", "095744.962500", "095745.422500", "095745.882500", "095746.342500", "095746.802500", "095747.262500", "095747.722500", "095748.182500", "095748.642500", "095749.102500", "095749.562500", "095750.022500", "095750.482500", "095750.942500", "095751.402500", "095751.862500", "095752.322500", "095752.782500", "095753.242500", "095753.702500", "095754.162500", "095754.622500", "095755.082500", "095755.542500", "095756.002500", "095756.462500", "095756.922500", "095757.382500", "095757.842500", "095758.302500", "095758.762500", "095759.222500", "095759.682500", "095800.142500", "095800.602500", "095801.062500", "095801.522500", "095801.982500", "095802.442500", "095802.902500", "095803.362500", "095803.822500", "095804.282500", "095804.742500", "095805.202500", "095805.662500", "095806.122500", "095806.582500", "095807.042500", "095807.502500", "095807.962500", "095808.422500", "095808.882500", "095809.342500", "095809.802500", "095810.262500", "095810.722500", "095811.182500", "095811.642500", "095812.102500", "095812.562500", "095813.022500", "095813.482500", "095813.942500", "095814.402500", "095814.862500", "095815.322500", "095815.782500", "095816.242500", "095816.702500", "095817.162500", "095817.622500", "095818.082500", "095818.542500", "095819.002500", "095819.462500", "095819.922500", "095820.382500", "095820.842500", "095821.302500", "095821.762500", "095822.222500", "095822.682500", "095823.142500", "095823.602500", "095824.062500", "095824.522500", "095824.982500", "095825.442500", "095825.902500", "095826.362500", "095826.822500", "095827.282500", "095827.742500", "095828.202500", "095828.662500", "095829.122500", "095829.582500", "095830.042500", "095830.502500", "095830.962500", "095831.422500", "095831.882500", "095832.342500", "095832.802500", "095833.262500", "095833.722500", "095834.182500", "095834.642500", "095835.102500", "095835.562500", "095836.022500", "095836.482500", "095836.942500", "095837.402500", "095837.862500", "095838.322500", "095838.782500", "095839.242500", "095839.702500", "095840.162500", "095840.622500", "095841.082500", "095841.542500", "095842.002500", "095842.462500", "095842.922500", "095843.382500", "095843.842500", "095844.302500", "095844.762500", "095845.222500", "095845.682500", "095846.142500", "095846.602500", "095847.062500", "095847.522500", "095847.982500", "095848.442500", "095848.902500", "095849.362500", "095849.822500", "095850.282500", "095850.742500", "095851.202500", "095851.662500", "095852.122500", "095852.582500", "095853.042500", "095853.502500", "095853.962500", "095854.422500", "095854.882500", "095855.342500", "095855.802500", "095856.262500", "095856.722500", "095857.182500", "095857.642500", "095858.102500", "095858.562500", "095859.022500", "095859.482500", "095859.942500", "095900.402500", "095900.862500", "095901.322500", "095901.782500", "095902.242500", "095902.702500", "095903.162500", "095903.622500", "095904.082500", "095904.542500", "095905.002500", "095905.462500", "095905.922500", "095906.382500", "095906.842500", "095907.302500", "095907.762500", "095908.222500", "095908.682500", "095909.142500", "095909.602500", "095910.062500", "095910.522500", "095910.982500", "095911.442500", "095911.902500", "095912.362500", "095912.822500", "095913.282500", "095913.742500", "095914.202500", "095914.662500", "095915.122500", "095915.582500", "095916.042500", "095916.502500", "095916.962500", "095917.422500", "095917.882500", "095918.342500", "095918.802500", "095919.262500", "095919.722500", "095920.182500", "095920.642500", "095921.102500", "095921.562500", "095922.022500", "095922.482500", "095922.942500", "095923.402500", "095923.862500", "095924.322500", "095924.782500", "095925.242500", "095925.702500", "095926.162500", "095926.622500", "095927.082500", "095927.542500", "095928.002500", "095928.462500", "095928.922500", "095929.382500", "095929.842500", "095930.302500", "095930.762500", "095931.222500", "095931.682500", "095932.142500", "095932.602500", "095933.062500", "095933.522500", "095933.982500", "095934.442500", "095934.902500", "095935.362500", "095935.822500", "095936.282500", "095936.742500", "095937.202500", "095937.662500", "095938.122500", "095938.582500", "095939.042500", "095939.502500", "095939.962500", "095940.422500", "095940.882500", "095941.342500", "095941.802500", "095942.262500", "095942.722500", "095943.182500", "095943.642500", "095944.102500", "095944.562500", "095945.022500", "095945.482500", "095945.942500", "095946.402500", "095946.862500", "095947.322500", "095947.782500", "095948.242500", "095948.702500", "095949.162500", "095949.622500", "095950.082500", "095950.542500", "095951.002500", "095951.462500", "095951.922500", "095952.382500", "095952.842500", "095953.302500", "095953.762500", "095954.222500", "095954.682500", "095955.142500", "095955.602500", "095956.062500", "095956.522500", "095956.982500", "095957.442500", "095957.902500", "095958.362500", "095958.822500", "095959.282500", "095959.742500", "100000.202500", "100000.662500", "100001.122500", "100001.582500", "100002.042500", "100002.502500", "100002.962500", "100003.422500", "100003.882500", "100004.342500", "100004.802500", "100005.262500", "100005.722500", "100006.182500", "100006.642500", "100007.102500", "100007.562500", "100008.022500", "100008.482500", "100008.942500", "100009.402500", "100009.862500", "100010.322500", "100010.782500", "100011.242500", "100011.702500", "100012.162500", "100012.622500", "100013.082500", "100013.542500", "100014.002500", "100014.462500", "100014.922500", "100015.382500", "100015.842500", "100016.302500", "100016.762500", "100017.222500", "100017.682500", "100018.142500", "100018.602500", "100019.062500", "100019.522500", "100019.982500", "100020.442500", "100020.902500", "100021.362500", "100021.822500", "100022.282500", "100022.742500", "100023.202500", "100023.662500", "100024.122500", "100024.582500", "100025.042500", "100025.502500", "100025.962500", "100026.422500", "100026.882500", "100027.342500", "100027.802500", "100028.262500", "100028.722500", "100029.182500", "100029.642500", "100030.102500", "100030.562500", "100031.022500", "100031.482500", "100031.942500", "100032.402500", "100032.862500", "100033.322500", "100033.782500", "100034.242500", "100034.702500", "100035.162500", "100035.622500", "100036.082500", "100036.542500", "100037.002500", "100037.462500", "100037.922500", "100038.382500", "100038.842500", "100039.302500", "100039.762500", "100040.222500", "100040.682500", "100041.142500", "100041.602500", "100042.062500", "100042.522500", "100042.982500", "100043.442500", "100043.902500", "100044.362500", "100044.822500", "100045.282500", "100045.742500", "100046.202500", "100046.662500", "100047.122500", "100047.582500", "100048.042500", "100048.502500", "100048.962500", "100049.422500", "100049.882500", "100050.342500", "100050.802500", "100051.262500", "100051.722500", "100052.182500", "100052.642500", "100053.102500", "100053.562500", "100054.022500", "100054.482500", "100054.942500", "100055.402500", "100055.862500", "100056.322500", "100056.782500", "100057.242500", "100057.702500", "100058.162500", "100058.622500", "100059.082500", "100059.542500", "100100.002500", "100100.462500", "100100.922500", "100101.382500", "100101.842500", "100102.302500", "100102.762500", "100103.222500", "100103.682500", "100104.142500", "100104.602500", "100105.062500", "100105.522500", "100105.982500", "100106.442500", "100106.902500", "100107.362500", "100107.822500", "100108.282500", "100108.742500", "100109.202500", "100109.662500", "100110.122500", "100110.582500", "100111.042500", "100111.502500", "100111.962500", "100112.422500", "100112.882500", "100113.342500", "100113.802500", "100114.262500", "100114.722500", "100115.182500", "100115.642500", "100116.102500", "100116.562500", "100117.022500", "100117.482500", "100117.942500", "100118.402500", "100118.862500", "100119.322500", "100119.782500", "100120.242500", "100120.702500", "100121.162500", "100121.622500", "100122.082500", "100122.542500", "100123.002500", "100123.462500", "100123.922500", "100124.382500", "100124.842500", "100125.302500", "100125.762500", "100126.222500", "100126.682500", "100127.142500", "100127.602500", "100128.062500", "100128.522500", "100128.982500", "100129.442500", "100129.902500", "100130.362500", "100130.822500", "100131.282500", "100131.742500", "100132.202500", "100132.662500", "100133.122500", "100133.582500", "100134.042500", "100134.502500", "100134.962500", "100135.422500", "100135.882500", "100136.342500", "100136.802500", "100137.262500", "100137.722500", "100138.182500", "100138.642500", "100139.102500", "100139.562500", "100140.022500", "100140.482500", "100140.942500", "100141.402500", "100141.862500", "100142.322500", "100142.782500", "100143.242500", "100143.702500", "100144.162500", "100144.622500", "100145.082500", "100145.542500", "100146.002500", "100146.462500", "100146.922500", "100147.382500", "100147.842500", "100148.302500", "100148.762500", "100149.222500", "100149.682500", "100150.142500", "100150.602500", "100151.062500", "100151.522500", "100151.982500", "100152.442500", "100152.902500", "100153.362500", "100153.822500", "100154.282500", "100154.742500", "100155.202500", "100155.662500", "100156.122500", "100156.582500", "100157.042500", "100157.502500", "100157.962500", "100158.422500", "100158.882500", "100159.342500", "100159.802500", "100200.262500", "100200.722500", "100201.182500", "100201.642500", "100202.102500", "100202.562500", "100203.022500", "100203.482500", "100203.942500", "100204.402500", "100204.862500", "100205.322500", "100205.782500", "100206.242500", "100206.702500", "100207.162500", "100207.622500", "100208.082500", "100208.542500", "100209.002500", "100209.462500", "100209.922500", "100210.382500", "100210.842500", "100211.302500", "100211.762500", "100212.222500", "100212.682500", "100213.142500", "100213.602500", "100214.062500", "100214.522500", "100214.982500", "100215.442500", "100215.902500", "100216.362500", "100216.822500", "100217.282500", "100217.742500", "100218.202500", "100218.662500", "100219.122500", "100219.582500", "100220.042500", "100220.502500", "100220.962500", "100221.422500", "100221.882500", "100222.342500", "100222.802500", "100223.262500", "100223.722500", "100224.182500", "100224.642500", "100225.102500", "100225.562500", "100226.022500", "100226.482500", "100226.942500", "100227.402500", "100227.862500", "100228.322500", "100228.782500", "100229.242500", "100229.702500", "100230.162500", "100230.622500", "100231.082500", "100231.542500", "100232.002500", "100232.462500", "100232.922500", "100233.382500", "100233.842500", "100234.302500", "100234.762500", "100235.222500", "100235.682500", "100236.142500", "100236.602500", "100237.062500", "100237.522500", "100237.982500", "100238.442500", "100238.902500", "100239.362500", "100239.822500", "100240.282500", "100240.742500", "100241.202500", "100241.662500", "100242.122500", "100242.582500", "100243.042500", "100243.502500", "100243.962500", "100244.422500", "100244.882500", "100245.342500", "100245.802500", "100246.262500", "100246.722500", "100247.182500", "100247.642500", "100248.102500", "100248.562500", "100249.022500", "100249.482500", "100249.942500", "100250.402500", "100250.862500", "100251.322500", "100251.782500", "100252.242500", "100252.702500", "100253.162500", "100253.622500", "100254.082500", "100254.542500", "100255.002500", "100255.462500", "100255.922500", "100256.382500", "100256.842500", "100257.302500", "100257.762500", "100258.222500", "100258.682500", "100259.142500", "100259.602500", "100300.062500", "100300.522500", "100300.982500", "100301.442500", "100301.902500", "100302.362500", "100302.822500", "100303.282500", "100303.742500", "100304.202500", "100304.662500", "100305.122500", "100305.582500", "100306.042500", "100306.502500", "100306.962500", "100307.422500", "100307.882500", "100308.342500", "100308.802500", "100309.262500", "100309.722500", "100310.182500", "100310.642500", "100311.102500", "100311.562500", "100312.022500", "100312.482500", "100312.942500", "100313.402500", "100313.862500", "100314.322500", "100314.782500", "100315.242500", "100315.702500", "100316.162500", "100316.622500", "100317.082500", "100317.542500", "100318.002500", "100318.462500", "100318.922500", "100319.382500", "100319.842500", "100320.302500", "100320.762500", "100321.222500", "100321.682500", "100322.142500", "100322.602500", "100323.062500", "100323.522500", "100323.982500", "100324.442500", "100324.902500", "100325.362500", "100325.822500", "100326.282500", "100326.742500", "100327.202500", "100327.662500", "100328.122500", "100328.582500"],
