{
  "AcquisitionMatrixPE": 82,
  "AcquisitionNumber": 1,
  "AcquisitionTime": "09:32:18.615000",
  "BandwidthPerPixelPhaseEncode": 24.888,
  "BaseResolution": 82,
  "BodyPartExamined": "BRAIN",
  "ConsistencyInfo": "N4_VE11C_LATEST_20160120",
  "ConversionSoftware": "dcm2niix",
  "ConversionSoftwareVersion": "v1.0.20201102",
  "DerivedVendorReportedEchoSpacing": 0.00049,
  "DeviceSerialNumber": "66112",
  "DwellTime": 2e-06,
  "EchoTime": 0.0272,
  "EchoTrainLength": 82,
  "EffectiveEchoSpacing": 0.00049,
  "FlipAngle": 44,
  "ImageComments": "Unaliased MB8/PE3",
  "ImageOrientationPatientDICOM": [0.998947, 0.0454138, -0.0065307, -0.0429162, 0.97522, 0.217034],
  "ImageType": [
    "ORIGINAL",
    "PRIMARY",
    "M",
    "MB",
    "ND",
    "NORM",
    "MOSAIC"
],
  "ImagingFrequency": 123.252,
  "InPlanePhaseEncodingDirectionDICOM": "COL",
  "InstitutionAddress": "Maynard 3,Hanover,NH,US,03755",
  "InstitutionName": "Dartmouth College - PBS",
  "InstitutionalDepartmentName": "Department",
  "MRAcquisitionType": "2D",
  "MagneticFieldStrength": 3,
  "Manufacturer": "Siemens",
  "ManufacturersModelName": "Prisma",
  "Modality": "MR",
  "MultibandAccelerationFactor": 8,
  "PartialFourier": 1,
  "PatientPosition": "HFS",
  "PercentPhaseFOV": 100,
  "PercentSampling": 100,
  "PhaseEncodingDirection": "j-",
  "PhaseEncodingSteps": 82,
  "PhaseResolution": 1,
  "PixelBandwidth": 3050,
  "ProcedureStepDescription": "Wager_Wager^1076_spacetop",
  "ProtocolName": "func_run-03_task-social_acq-ap-mb8",
  "PulseSequenceDetails": "%CustomerSeq%\\cmrr_mbep2d_bold",
  "ReceiveCoilActiveElements": "HEA;HEP",
  "ReceiveCoilName": "Head_32",
  "ReconMatrixPE": 82,
  "RepetitionTime": 0.46,
  "SAR": 0.109236,
  "ScanOptions": "FS",
  "ScanningSequence": "EP",
  "SequenceName": "epfid2d1_82",
  "SequenceVariant": "SK\\SS",
  "SeriesDescription": "func_run-03_task-social_acq-ap-mb8",
  "SeriesNumber": 18,
  "ShimSetting": [4142, -7783, -7228, 504, -51, -227, 58, 80],
  "SliceThickness": 2.7,
  "SliceTiming": [0, 0.25, 0.0625, 0.3125, 0.125, 0.375, 0.1875, 0, 0.25, 0.0625, 0.3125, 0.125, 0.375, 0.1875, 0, 0.25, 0.0625, 0.3125, 0.125, 0.375, 0.1875, 0, 0.25, 0.0625, 0.3125, 0.125, 0.375, 0.1875, 0, 0.25, 0.0625, 0.3125, 0.125, 0.375, 0.1875, 0, 0.25, 0.0625, 0.3125, 0.125, 0.375, 0.1875, 0, 0.25, 0.0625, 0.3125, 0.125, 0.375, 0.1875, 0, 0.25, 0.0625, 0.3125, 0.125, 0.375, 0.1875],
  "SoftwareVersions": "syngo MR E11",
  "SpacingBetweenSlices": 2.7,
  "StationName": "AWP66112",
  "TaskName": "social",
  "TotalReadoutTime": 0.03969,
  "TxRefAmp": 237.188,
  "WipMemBlock": "a4c5bfd9-14c5-4c9b-9c33-744b813ff927||Sequence: R016 ve11c/master r/e634e98; Dec 19 2017 11:00:25 by eja",
  "dcmmeta_affine": [
    [-2.6801016330718994, -0.1151411384344101, -0.04380802810192108, 119.96361541748047],
    [-0.12184182554483414, 2.6164445877075195, 0.5846174359321594, -95.18283081054688],
    [-0.017521392554044724, -0.5822858810424805, 2.6355841159820557, -10.338409423828125],
    [0.0, 0.0, 0.0, 1.0]
],
  "dcmmeta_reorient_transform": [
    [0.0, -1.0, 0.0, 81.0],
    [1.0, 0.0, 0.0, 0.0],
    [0.0, 0.0, 1.0, 0.0],
    [0.0, 0.0, 0.0, 1.0]
],
  "dcmmeta_shape": [82, 82, 56, 872],
  "dcmmeta_slice_dim": 2,
  "dcmmeta_version": 0.6,
  "global": {
    "const": {
      "AccessionNumber": "A003455",
      "AcquisitionMatrix": [82, 0, 0, 82],
      "AngioFlag": "N",
      "BitsAllocated": 16,
      "BitsStored": 16,
      "BodyPartExamined": "BRAIN",
      "Columns": 656,
      "EchoNumbers": 1,
      "EchoTime": 27.2,
      "EchoTrainLength": 82,
      "FlipAngle": 44.0,
      "HighBit": 15,
      "ImageOrientationPatient": [0.99894691515821, 0.04541377147698, -0.0065307010439, -0.0429162406814, 0.97522024168596, 0.2170338141667],
      "ImagePositionPatient": [-846.7808223633, -902.63739130204, -219.59096478976],
      "ImageType": [
        "ORIGINAL",
        "PRIMARY",
        "M",
        "MB",
        "ND",
        "NORM",
        "MOSAIC"
],
      "ImagedNucleus": "1H",
      "ImagingFrequency": 123.252115,
      "InPlanePhaseEncodingDirection": "COL",
      "MRAcquisitionType": "2D",
      "MagneticFieldStrength": 3.0,
      "Manufacturer": "SIEMENS",
      "ManufacturerModelName": "Prisma",
      "Modality": "MR",
      "NumberOfAverages": 1.0,
      "NumberOfPhaseEncodingSteps": 82,
      "PercentPhaseFieldOfView": 100.0,
      "PercentSampling": 100.0,
      "PerformedProcedureStepStartTime": "081555.761000",
      "PhotometricInterpretation": "MONOCHROME2",
      "PixelBandwidth": 3050.0,
      "PixelRepresentation": 0,
      "PixelSpacing": [2.6829268932343, 2.6829268932343],
      "ProtocolName": "func_run-03_task-social_acq-ap-mb8",
      "RepetitionTime": 460.0,
      "Rows": 656,
      "SAR": 0.10923634566804,
      "SamplesPerPixel": 1,
      "ScanOptions": "FS",
      "ScanningSequence": "EP",
      "SequenceName": "epfid2d1_82",
      "SequenceVariant": [
        "SK",
        "SS"
],
      "SeriesDescription": "func_run-03_task-social_acq-ap-mb8",
      "SeriesNumber": 18,
      "SeriesTime": "093247.831000",
      "SliceLocation": -32.647652532524,
      "SliceThickness": 2.7000000476837,
      "SmallestImagePixelValue": 0,
      "SoftwareVersions": "syngo MR E11",
      "SpacingBetweenSlices": 2.7000000069318,
      "SpecificCharacterSet": "ISO_IR 100",
      "StudyID": "1",
      "StudyTime": "081555.637000",
      "TransmitCoilName": "Body",
      "VariableFlipAngleFlag": "N",
      "WindowCenterWidthExplanation": "Algo1",
      "dBdt": 0.0},
    "slices": {}
  },
  "time": {
    "samples": {
      "AcquisitionNumber": [1, 2, 3, 4, 5, 6, 7, 8, 9, 10, 11, 12, 13, 14, 15, 16, 17, 18, 19, 20, 21, 22, 23, 24, 25, 26, 27, 28, 29, 30, 31, 32, 33, 34, 35, 36, 37, 38, 39, 40, 41, 42, 43, 44, 45, 46, 47, 48, 49, 50, 51, 52, 53, 54, 55, 56, 57, 58, 59, 60, 61, 62, 63, 64, 65, 66, 67, 68, 69, 70, 71, 72, 73, 74, 75, 76, 77, 78, 79, 80, 81, 82, 83, 84, 85, 86, 87, 88, 89, 90, 91, 92, 93, 94, 95, 96, 97, 98, 99, 100, 101, 102, 103, 104, 105, 106, 107, 108, 109, 110, 111, 112, 113, 114, 115, 116, 117, 118, 119, 120, 121, 122, 123, 124, 125, 126, 127, 128, 129, 130, 131, 132, 133, 134, 135, 136, 137, 138, 139, 140, 141, 142, 143, 144, 145, 146, 147, 148, 149, 150, 151, 152, 153, 154, 155, 156, 157, 158, 159, 160, 161, 162, 163, 164, 165, 166, 167, 168, 169, 170, 171, 172, 173, 174, 175, 176, 177, 178, 179, 180, 181, 182, 183, 184, 185, 186, 187, 188, 189, 190, 191, 192, 193, 194, 195, 196, 197, 198, 199, 200, 201, 202, 203, 204, 205, 206, 207, 208, 209, 210, 211, 212, 213, 214, 215, 216, 217, 218, 219, 220, 221, 222, 223, 224, 225, 226, 227, 228, 229, 230, 231, 232, 233, 234, 235, 236, 237, 238, 239, 240, 241, 242, 243, 244, 245, 246, 247, 248, 249, 250, 251, 252, 253, 254, 255, 256, 257, 258, 259, 260, 261, 262, 263, 264, 265, 266, 267, 268, 269, 270, 271, 272, 273, 274, 275, 276, 277, 278, 279, 280, 281, 282, 283, 284, 285, 286, 287, 288, 289, 290, 291, 292, 293, 294, 295, 296, 297, 298, 299, 300, 301, 302, 303, 304, 305, 306, 307, 308, 309, 310, 311, 312, 313, 314, 315, 316, 317, 318, 319, 320, 321, 322, 323, 324, 325, 326, 327, 328, 329, 330, 331, 332, 333, 334, 335, 336, 337, 338, 339, 340, 341, 342, 343, 344, 345, 346, 347, 348, 349, 350, 351, 352, 353, 354, 355, 356, 357, 358, 359, 360, 361, 362, 363, 364, 365, 366, 367, 368, 369, 370, 371, 372, 373, 374, 375, 376, 377, 378, 379, 380, 381, 382, 383, 384, 385, 386, 387, 388, 389, 390, 391, 392, 393, 394, 395, 396, 397, 398, 399, 400, 401, 402, 403, 404, 405, 406, 407, 408, 409, 410, 411, 412, 413, 414, 415, 416, 417, 418, 419, 420, 421, 422, 423, 424, 425, 426, 427, 428, 429, 430, 431, 432, 433, 434, 435, 436, 437, 438, 439, 440, 441, 442, 443, 444, 445, 446, 447, 448, 449, 450, 451, 452, 453, 454, 455, 456, 457, 458, 459, 460, 461, 462, 463, 464, 465, 466, 467, 468, 469, 470, 471, 472, 473, 474, 475, 476, 477, 478, 479, 480, 481, 482, 483, 484, 485, 486, 487, 488, 489, 490, 491, 492, 493, 494, 495, 496, 497, 498, 499, 500, 501, 502, 503, 504, 505, 506, 507, 508, 509, 510, 511, 512, 513, 514, 515, 516, 517, 518, 519, 520, 521, 522, 523, 524, 525, 526, 527, 528, 529, 530, 531, 532, 533, 534, 535, 536, 537, 538, 539, 540, 541, 542, 543, 544, 545, 546, 547, 548, 549, 550, 551, 552, 553, 554, 555, 556, 557, 558, 559, 560, 561, 562, 563, 564, 565, 566, 567, 568, 569, 570, 571, 572, 573, 574, 575, 576, 577, 578, 579, 580, 581, 582, 583, 584, 585, 586, 587, 588, 589, 590, 591, 592, 593, 594, 595, 596, 597, 598, 599, 600, 601, 602, 603, 604, 605, 606, 607, 608, 609, 610, 611, 612, 613, 614, 615, 616, 617, 618, 619, 620, 621, 622, 623, 624, 625, 626, 627, 628, 629, 630, 631, 632, 633, 634, 635, 636, 637, 638, 639, 640, 641, 642, 643, 644, 645, 646, 647, 648, 649, 650, 651, 652, 653, 654, 655, 656, 657, 658, 659, 660, 661, 662, 663, 664, 665, 666, 667, 668, 669, 670, 671, 672, 673, 674, 675, 676, 677, 678, 679, 680, 681, 682, 683, 684, 685, 686, 687, 688, 689, 690, 691, 692, 693, 694, 695, 696, 697, 698, 699, 700, 701, 702, 703, 704, 705, 706, 707, 708, 709, 710, 711, 712, 713, 714, 715, 716, 717, 718, 719, 720, 721, 722, 723, 724, 725, 726, 727, 728, 729, 730, 731, 732, 733, 734, 735, 736, 737, 738, 739, 740, 741, 742, 743, 744, 745, 746, 747, 748, 749, 750, 751, 752, 753, 754, 755, 756, 757, 758, 759, 760, 761, 762, 763, 764, 765, 766, 767, 768, 769, 770, 771, 772, 773, 774, 775, 776, 777, 778, 779, 780, 781, 782, 783, 784, 785, 786, 787, 788, 789, 790, 791, 792, 793, 794, 795, 796, 797, 798, 799, 800, 801, 802, 803, 804, 805, 806, 807, 808, 809, 810, 811, 812, 813, 814, 815, 816, 817, 818, 819, 820, 821, 822, 823, 824, 825, 826, 827, 828, 829, 830, 831, 832, 833, 834, 835, 836, 837, 838, 839, 840, 841, 842, 843, 844, 845, 846, 847, 848, 849, 850, 851, 852, 853, 854, 855, 856, 857, 858, 859, 860, 861, 862, 863, 864, 865, 866, 867, 868, 869, 870, 871, 872],
      "AcquisitionTime": ["093218.615000", "093219.075000", "093219.535000", "093219.995000", "093220.455000", "093220.915000", "093221.375000", "093221.835000", "093222.295000", "093222.755000", "093223.215000", "093223.675000", "093224.135000", "093224.595000", "093225.055000", "093225.515000", "093225.975000", "093226.435000", "093226.895000", "093227.355000", "093227.815000", "093228.275000", "093228.735000", "093229.195000", "093229.655000", "093230.115000", "093230.575000", "093231.035000", "093231.495000", "093231.955000", "093232.415000", "093232.875000", "093233.335000", "093233.795000", "093234.255000", "093234.715000", "093235.175000", "093235.635000", "093236.095000", "093236.555000", "093237.015000", "093237.475000", "093237.935000", "093238.395000", "093238.855000", "093239.315000", "093239.775000", "093240.235000", "093240.695000", "093241.155000", "093241.615000", "093242.075000", "093242.535000", "093242.995000", "093243.455000", "093243.915000", "093244.375000", "093244.835000", "093245.295000", "093245.755000", "093246.215000", "093246.675000", "093247.135000", "093247.595000", "093248.055000", "093248.515000", "093248.975000", "093249.435000", "093249.895000", "093250.355000", "093250.815000", "093251.275000", "093251.735000", "093252.195000", "093252.655000", "093253.115000", "093253.575000", "093254.035000", "093254.495000", "093254.955000", "093255.415000", "093255.875000", "093256.335000", "093256.795000", "093257.255000", "093257.715000", "093258.175000", "093258.635000", "093259.095000", "093259.555000", "093300.015000", "093300.475000", "093300.935000", "093301.395000", "093301.855000", "093302.315000", "093302.775000", "093303.235000", "093303.695000", "093304.155000", "093304.615000", "093305.075000", "093305.535000", "093305.995000", "093306.455000", "093306.915000", "093307.375000", "093307.835000", "093308.295000", "093308.755000", "093309.215000", "093309.675000", "093310.135000", "093310.595000", "093311.055000", "093311.515000", "093311.975000", "093312.435000", "093312.895000", "093313.355000", "093313.815000", "093314.275000", "093314.735000", "093315.195000", "093315.655000", "093316.115000", "093316.575000", "093317.035000", "093317.495000", "093317.955000", "093318.415000", "093318.875000", "093319.335000", "093319.795000", "093320.255000", "093320.715000", "093321.175000", "093321.635000", "093322.095000", "093322.555000", "093323.015000", "093323.475000", "093323.935000", "093324.395000", "093324.855000", "093325.315000", "093325.775000", "093326.235000", "093326.695000", "093327.155000", "093327.615000", "093328.075000", "093328.535000", "093328.995000", "093329.455000", "093329.915000", "093330.375000", "093330.835000", "093331.295000", "093331.755000", "093332.215000", "093332.675000", "093333.135000", "093333.595000", "093334.055000", "093334.515000", "093334.975000", "093335.435000", "093335.895000", "093336.355000", "093336.815000", "093337.275000", "093337.735000", "093338.195000", "093338.655000", "093339.115000", "093339.575000", "093340.035000", "093340.495000", "093340.955000", "093341.415000", "093341.875000", "093342.335000", "093342.795000", "093343.255000", "093343.715000", "093344.175000", "093344.635000", "093345.095000", "093345.555000", "093346.015000", "093346.475000", "093346.935000", "093347.395000", "093347.855000", "093348.315000", "093348.775000", "093349.235000", "093349.695000", "093350.155000", "093350.615000", "093351.075000", "093351.535000", "093351.995000", "093352.455000", "093352.915000", "093353.375000", "093353.835000", "093354.295000", "093354.755000", "093355.215000", "093355.675000", "093356.135000", "093356.595000", "093357.055000", "093357.515000", "093357.975000", "093358.435000", "093358.895000", "093359.355000", "093359.815000", "093400.275000", "093400.735000", "093401.195000", "093401.655000", "093402.115000", "093402.575000", "093403.035000", "093403.495000", "093403.955000", "093404.415000", "093404.875000", "093405.335000", "093405.795000", "093406.255000", "093406.715000", "093407.175000", "093407.635000", "093408.095000", "093408.555000", "093409.015000", "093409.475000", "093409.935000", "093410.395000", "093410.855000", "093411.315000", "093411.775000", "093412.235000", "093412.695000", "093413.155000", "093413.615000", "093414.075000", "093414.535000", "093414.995000", "093415.455000", "093415.915000", "093416.375000", "093416.835000", "093417.295000", "093417.755000", "093418.215000", "093418.675000", "093419.135000", "093419.595000", "093420.055000", "093420.515000", "093420.975000", "093421.435000", "093421.895000", "093422.355000", "093422.815000", "093423.275000", "093423.735000", "093424.195000", "093424.655000", "093425.115000", "093425.575000", "093426.035000", "093426.495000", "093426.955000", "093427.415000", "093427.875000", "093428.335000", "093428.795000", "093429.255000", "093429.715000", "093430.175000", "093430.635000", "093431.095000", "093431.555000", "093432.015000", "093432.475000", "093432.935000", "093433.395000", "093433.855000", "093434.315000", "093434.775000", "093435.235000", "093435.695000", "093436.155000", "093436.615000", "093437.075000", "093437.535000", "093437.995000", "093438.455000", "093438.915000", "093439.375000", "093439.835000", "093440.295000", "093440.755000", "093441.215000", "093441.675000", "093442.135000", "093442.595000", "093443.055000", "093443.515000", "093443.975000", "093444.435000", "093444.895000", "093445.355000", "093445.815000", "093446.275000", "093446.735000", "093447.195000", "093447.655000", "093448.115000", "093448.575000", "093449.035000", "093449.495000", "093449.955000", "093450.415000", "093450.875000", "093451.335000", "093451.795000", "093452.255000", "093452.715000", "093453.175000", "093453.635000", "093454.095000", "093454.555000", "093455.015000", "093455.475000", "093455.935000", "093456.395000", "093456.855000", "093457.315000", "093457.775000", "093458.235000", "093458.695000", "093459.155000", "093459.615000", "093500.075000", "093500.535000", "093500.995000", "093501.455000", "093501.915000", "093502.375000", "093502.835000", "093503.295000", "093503.755000", "093504.215000", "093504.675000", "093505.135000", "093505.595000", "093506.055000", "093506.515000", "093506.975000", "093507.435000", "093507.895000", "093508.355000", "093508.815000", "093509.275000", "093509.735000", "093510.195000", "093510.655000", "093511.115000", "093511.575000", "093512.035000", "093512.495000", "093512.955000", "093513.415000", "093513.875000", "093514.335000", "093514.795000", "093515.255000", "093515.715000", "093516.175000", "093516.635000", "093517.095000", "093517.555000", "093518.015000", "093518.475000", "093518.935000", "093519.395000", "093519.855000", "093520.315000", "093520.775000", "093521.235000", "093521.695000", "093522.155000", "093522.615000", "093523.075000", "093523.535000", "093523.995000", "093524.455000", "093524.915000", "093525.375000", "093525.835000", "093526.295000", "093526.755000", "093527.215000", "093527.675000", "093528.135000", "093528.595000", "093529.055000", "093529.515000", "093529.975000", "093530.435000", "093530.895000", "093531.355000", "093531.815000", "093532.275000", "093532.735000", "093533.195000", "093533.655000", "093534.115000", "093534.575000", "093535.035000", "093535.495000", "093535.955000", "093536.415000", "093536.875000", "093537.335000", "093537.795000", "093538.255000", "093538.715000", "093539.175000", "093539.635000", "093540.095000", "093540.555000", "093541.015000", "093541.475000", "093541.935000", "093542.395000", "093542.855000", "093543.315000", "093543.775000", "093544.235000", "093544.695000", "093545.155000", "093545.615000", "093546.075000", "093546.535000", "093546.995000", "093547.455000", "093547.915000", "093548.375000", "093548.835000", "093549.295000", "093549.755000", "093550.215000", "093550.675000", "093551.135000", "093551.595000", "093552.055000", "093552.515000", "093552.975000", "093553.435000", "093553.895000", "093554.355000", "093554.815000", "093555.275000", "093555.735000", "093556.195000", "093556.655000", "093557.115000", "093557.575000", "093558.035000", "093558.495000", "093558.955000", "093559.415000", "093559.875000", "093600.335000", "093600.795000", "093601.255000", "093601.715000", "093602.175000", "093602.635000", "093603.095000", "093603.555000", "093604.015000", "093604.475000", "093604.935000", "093605.395000", "093605.855000", "093606.315000", "093606.775000", "093607.235000", "093607.695000", "093608.155000", "093608.615000", "093609.075000", "093609.535000", "093609.995000", "093610.455000", "093610.915000", "093611.375000", "093611.835000", "093612.295000", "093612.755000", "093613.215000", "093613.675000", "093614.135000", "093614.595000", "093615.055000", "093615.515000", "093615.975000", "093616.435000", "093616.895000", "093617.355000", "093617.815000", "093618.275000", "093618.735000", "093619.195000", "093619.655000", "093620.115000", "093620.575000", "093621.035000", "093621.495000", "093621.955000", "093622.415000", "093622.875000", "093623.335000", "093623.795000", "093624.255000", "093624.715000", "093625.175000", "093625.635000", "093626.095000", "093626.555000", "093627.015000", "093627.475000", "093627.935000", "093628.395000", "093628.855000", "093629.315000", "093629.775000", "093630.235000", "093630.695000", "093631.155000", "093631.615000", "093632.075000", "093632.535000", "093632.995000", "093633.455000", "093633.915000", "093634.375000", "093634.835000", "093635.295000", "093635.755000", "093636.215000", "093636.675000", "093637.135000", "093637.595000", "093638.055000", "093638.515000", "093638.975000", "093639.435000", "093639.895000", "093640.355000", "093640.815000", "093641.275000", "093641.735000", "093642.195000", "093642.655000", "093643.115000", "093643.575000", "093644.035000", "093644.495000", "093644.955000", "093645.415000", "093645.875000", "093646.335000", "093646.795000", "093647.255000", "093647.715000", "093648.175000", "093648.635000", "093649.095000", "093649.555000", "093650.015000", "093650.475000", "093650.935000", "093651.395000", "093651.855000", "093652.315000", "093652.775000", "093653.235000", "093653.695000", "093654.155000", "093654.615000", "093655.075000", "093655.535000", "093655.995000", "093656.455000", "093656.915000", "093657.375000", "093657.835000", "093658.295000", "093658.755000", "093659.215000", "093659.675000", "093700.135000", "093700.595000", "093701.055000", "093701.515000", "093701.975000", "093702.435000", "093702.895000", "093703.355000", "093703.815000", "093704.275000", "093704.735000", "093705.195000", "093705.655000", "093706.115000", "093706.575000", "093707.035000", "093707.495000", "093707.955000", "093708.415000", "093708.875000", "093709.335000", "093709.795000", "093710.255000", "093710.715000", "093711.175000", "093711.635000", "093712.095000", "093712.555000", "093713.015000", "093713.475000", "093713.935000", "093714.395000", "093714.855000", "093715.315000", "093715.775000", "093716.235000", "093716.695000", "093717.155000", "093717.615000", "093718.075000", "093718.535000", "093718.995000", "093719.455000", "093719.915000", "093720.375000", "093720.835000", "093721.295000", "093721.755000", "093722.215000", "093722.675000", "093723.135000", "093723.595000", "093724.055000", "093724.515000", "093724.975000", "093725.435000", "093725.895000", "093726.355000", "093726.815000", "093727.275000", "093727.735000", "093728.195000", "093728.655000", "093729.115000", "093729.575000", "093730.035000", "093730.495000", "093730.955000", "093731.415000", "093731.875000", "093732.335000", "093732.795000", "093733.255000", "093733.715000", "093734.175000", "093734.635000", "093735.095000", "093735.555000", "093736.015000", "093736.475000", "093736.935000", "093737.395000", "093737.855000", "093738.315000", "093738.775000", "093739.235000", "093739.695000", "093740.155000", "093740.615000", "093741.075000", "093741.535000", "093741.995000", "093742.455000", "093742.915000", "093743.375000", "093743.835000", "093744.295000", "093744.755000", "093745.215000", "093745.675000", "093746.135000", "093746.595000", "093747.055000", "093747.515000", "093747.975000", "093748.435000", "093748.895000", "093749.355000", "093749.815000", "093750.275000", "093750.735000", "093751.195000", "093751.655000", "093752.115000", "093752.575000", "093753.035000", "093753.495000", "093753.955000", "093754.415000", "093754.875000", "093755.335000", "093755.795000", "093756.255000", "093756.715000", "093757.175000", "093757.635000", "093758.095000", "093758.555000", "093759.015000", "093759.475000", "093759.935000", "093800.395000", "093800.855000", "093801.315000", "093801.775000", "093802.235000", "093802.695000", "093803.155000", "093803.615000", "093804.075000", "093804.535000", "093804.995000", "093805.455000", "093805.915000", "093806.375000", "093806.835000", "093807.295000", "093807.755000", "093808.215000", "093808.675000", "093809.135000", "093809.595000", "093810.055000", "093810.515000", "093810.975000", "093811.435000", "093811.895000", "093812.355000", "093812.815000", "093813.275000", "093813.735000", "093814.195000", "093814.655000", "093815.115000", "093815.575000", "093816.035000", "093816.495000", "093816.955000", "093817.415000", "093817.875000", "093818.335000", "093818.795000", "093819.255000", "093819.715000", "093820.175000", "093820.635000", "093821.095000", "093821.555000", "093822.015000", "093822.475000", "093822.935000", "093823.395000", "093823.855000", "093824.315000", "093824.775000", "093825.235000", "093825.695000", "093826.155000", "093826.615000", "093827.075000", "093827.535000", "093827.995000", "093828.455000", "093828.915000", "093829.375000", "093829.835000", "093830.295000", "093830.755000", "093831.215000", "093831.675000", "093832.135000", "093832.595000", "093833.055000", "093833.515000", "093833.975000", "093834.435000", "093834.895000", "093835.355000", "093835.815000", "093836.275000", "093836.735000", "093837.195000", "093837.655000", "093838.115000", "093838.575000", "093839.035000", "093839.495000", "093839.955000", "093840.415000", "093840.875000", "093841.335000", "093841.795000", "093842.255000", "093842.715000", "093843.175000", "093843.635000", "093844.095000", "093844.555000", "093845.015000", "093845.475000", "093845.935000", "093846.395000", "093846.855000", "093847.315000", "093847.775000", "093848.235000", "093848.695000", "093849.155000", "093849.615000", "093850.075000", "093850.535000", "093850.995000", "093851.455000", "093851.915000", "093852.375000", "093852.835000", "093853.295000", "093853.755000", "093854.215000", "093854.675000", "093855.135000", "093855.595000", "093856.055000", "093856.515000", "093856.975000", "093857.435000", "093857.895000", "093858.355000", "093858.815000", "093859.275000"],
