{
  "AcquisitionMatrixPE": 82,
  "AcquisitionNumber": 1,
  "AcquisitionTime": "10:17:4.002500",
  "BandwidthPerPixelPhaseEncode": 24.888,
  "BaseResolution": 82,
  "BodyPartExamined": "BRAIN",
  "ConsistencyInfo": "N4_VE11C_LATEST_20160120",
  "ConversionSoftware": "dcm2niix",
  "ConversionSoftwareVersion": "v1.0.20201102",
  "DerivedVendorReportedEchoSpacing": 0.00049,
  "DeviceSerialNumber": "66112",
  "DwellTime": 2e-06,
  "EchoTime": 0.0272,
  "EchoTrainLength": 82,
  "EffectiveEchoSpacing": 0.00049,
  "FlipAngle": 44,
  "ImageComments": "Unaliased MB8/PE3",
  "ImageOrientationPatientDICOM": [0.999145, 0.0158279, 0.0381909, -0.00732421, 0.976964, -0.213279],
  "ImageType": [
    "ORIGINAL",
    "PRIMARY",
    "M",
    "MB",
    "ND",
    "NORM",
    "MOSAIC"
],
  "ImagingFrequency": 123.252,
  "InPlanePhaseEncodingDirectionDICOM": "COL",
  "InstitutionAddress": "Maynard 3,Hanover,NH,US,03755",
  "InstitutionName": "Dartmouth College - PBS",
  "InstitutionalDepartmentName": "Department",
  "MRAcquisitionType": "2D",
  "MagneticFieldStrength": 3,
  "Manufacturer": "Siemens",
  "ManufacturersModelName": "Prisma",
  "Modality": "MR",
  "MultibandAccelerationFactor": 8,
  "PartialFourier": 1,
  "PatientPosition": "HFS",
  "PercentPhaseFOV": 100,
  "PercentSampling": 100,
  "PhaseEncodingDirection": "j-",
  "PhaseEncodingSteps": 82,
  "PhaseResolution": 1,
  "PixelBandwidth": 3050,
  "ProcedureStepDescription": "Wager_Wager^1076_spacetop",
  "ProtocolName": "func_run-03_task-faces_acq-ap-mb8",
  "PulseSequenceDetails": "%CustomerSeq%\\cmrr_mbep2d_bold",
  "ReceiveCoilActiveElements": "HEA;HEP",
  "ReceiveCoilName": "Head_32",
  "ReconMatrixPE": 82,
  "RepetitionTime": 0.46,
  "SAR": 0.109008,
  "ScanOptions": "FS",
  "ScanningSequence": "EP",
  "SequenceName": "epfid2d1_82",
  "SequenceVariant": "SK\\SS",
  "SeriesDescription": "func_run-03_task-faces_acq-ap-mb8",
  "SeriesNumber": 20,
  "ShimSetting": [4150, -7689, -7255, 567, -49, 0, -10, 77],
  "SliceThickness": 2.7,
  "SliceTiming": [0, 0.25, 0.0625, 0.3125, 0.125, 0.375, 0.1875, 0, 0.25, 0.0625, 0.3125, 0.125, 0.375, 0.1875, 0, 0.25, 0.0625, 0.3125, 0.125, 0.375, 0.1875, 0, 0.25, 0.0625, 0.3125, 0.125, 0.375, 0.1875, 0, 0.25, 0.0625, 0.3125, 0.125, 0.375, 0.1875, 0, 0.25, 0.0625, 0.3125, 0.125, 0.375, 0.1875, 0, 0.25, 0.0625, 0.3125, 0.125, 0.375, 0.1875, 0, 0.25, 0.0625, 0.3125, 0.125, 0.375, 0.1875],
  "SoftwareVersions": "syngo MR E11",
  "SpacingBetweenSlices": 2.7,
  "StationName": "AWP66112",
  "TaskName": "faces",
  "TotalReadoutTime": 0.03969,
  "TxRefAmp": 246.275,
  "WipMemBlock": "0f5ebd1d-b834-4050-9e78-a787b3bc2779||Sequence: R016 ve11c/master r/e634e98; Dec 19 2017 11:00:25 by eja",
  "dcmmeta_affine": [
    [-2.680633306503296, -0.019650310277938843, 0.1098545491695404, 114.83248138427734],
    [-0.0424649715423584, 2.6211228370666504, -0.5746044516563416, -75.30205535888672],
    [0.10246337205171585, 0.5722106695175171, 2.6358606815338135, -71.75321960449219],
    [0.0, 0.0, 0.0, 1.0]
],
  "dcmmeta_reorient_transform": [
    [0.0, -1.0, 0.0, 81.0],
    [1.0, 0.0, 0.0, 0.0],
    [0.0, 0.0, 1.0, 0.0],
    [0.0, 0.0, 0.0, 1.0]
],
  "dcmmeta_shape": [82, 82, 56, 914],
  "dcmmeta_slice_dim": 2,
  "dcmmeta_version": 0.6,
  "global": {
    "const": {
      "AccessionNumber": "A003470",
      "AcquisitionMatrix": [82, 0, 0, 82],
      "AngioFlag": "N",
      "BitsAllocated": 16,
      "BitsStored": 16,
      "BodyPartExamined": "BRAIN",
      "Columns": 656,
      "EchoNumbers": 1,
      "EchoTime": 27.2,
      "EchoTrainLength": 82,
      "FlipAngle": 44.0,
      "HighBit": 15,
      "ImageOrientationPatient": [0.9991451019516, 0.01582785248135, 0.03819089331194, -0.0073242062483, 0.97696398631119, -0.2132785161562],
      "ImagePositionPatient": [-876.94291767986, -901.45863492651, 109.41331630522],
      "ImageType": [
        "ORIGINAL",
        "PRIMARY",
        "M",
        "MB",
        "ND",
        "NORM",
        "MOSAIC"
],
      "ImagedNucleus": "1H",
      "ImagingFrequency": 123.252167,
      "InPlanePhaseEncodingDirection": "COL",
      "MRAcquisitionType": "2D",
      "MagneticFieldStrength": 3.0,
      "Manufacturer": "SIEMENS",
      "ManufacturerModelName": "Prisma",
      "Modality": "MR",
      "NumberOfAverages": 1.0,
      "NumberOfPhaseEncodingSteps": 82,
      "PercentPhaseFieldOfView": 100.0,
      "PercentSampling": 100.0,
      "PerformedProcedureStepStartTime": "090551.290000",
      "PhotometricInterpretation": "MONOCHROME2",
      "PixelBandwidth": 3050.0,
      "PixelRepresentation": 0,
      "PixelSpacing": [2.6829268932343, 2.6829268932343],
      "ProtocolName": "func_run-03_task-faces_acq-ap-mb8",
      "RepetitionTime": 460.0,
      "Rows": 656,
      "SAR": 0.10900804105612,
      "SamplesPerPixel": 1,
      "ScanOptions": "FS",
      "ScanningSequence": "EP",
      "SequenceName": "epfid2d1_82",
      "SequenceVariant": [
        "SK",
        "SS"
],
      "SeriesDescription": "func_run-03_task-faces_acq-ap-mb8",
      "SeriesNumber": 20,
      "SeriesTime": "101719.206000",
      "SliceLocation": -49.351009631627,
      "SliceThickness": 2.7000000476837,
      "SmallestImagePixelValue": 0,
      "SoftwareVersions": "syngo MR E11",
      "SpacingBetweenSlices": 2.7000000727135,
      "SpecificCharacterSet": "ISO_IR 100",
      "StudyID": "3",
      "StudyTime": "090551.246000",
      "TransmitCoilName": "Body",
      "VariableFlipAngleFlag": "N",
      "WindowCenterWidthExplanation": "Algo1",
      "dBdt": 0.0},
    "slices": {}
  },
  "time": {
    "samples": {
      "AcquisitionNumber": [1, 2, 3, 4, 5, 6, 7, 8, 9, 10, 11, 12, 13, 14, 15, 16, 17, 18, 19, 20, 21, 22, 23, 24, 25, 26, 27, 28, 29, 30, 31, 32, 33, 34, 35, 36, 37, 38, 39, 40, 41, 42, 43, 44, 45, 46, 47, 48, 49, 50, 51, 52, 53, 54, 55, 56, 57, 58, 59, 60, 61, 62, 63, 64, 65, 66, 67, 68, 69, 70, 71, 72, 73, 74, 75, 76, 77, 78, 79, 80, 81, 82, 83, 84, 85, 86, 87, 88, 89, 90, 91, 92, 93, 94, 95, 96, 97, 98, 99, 100, 101, 102, 103, 104, 105, 106, 107, 108, 109, 110, 111, 112, 113, 114, 115, 116, 117, 118, 119, 120, 121, 122, 123, 124, 125, 126, 127, 128, 129, 130, 131, 132, 133, 134, 135, 136, 137, 138, 139, 140, 141, 142, 143, 144, 145, 146, 147, 148, 149, 150, 151, 152, 153, 154, 155, 156, 157, 158, 159, 160, 161, 162, 163, 164, 165, 166, 167, 168, 169, 170, 171, 172, 173, 174, 175, 176, 177, 178, 179, 180, 181, 182, 183, 184, 185, 186, 187, 188, 189, 190, 191, 192, 193, 194, 195, 196, 197, 198, 199, 200, 201, 202, 203, 204, 205, 206, 207, 208, 209, 210, 211, 212, 213, 214, 215, 216, 217, 218, 219, 220, 221, 222, 223, 224, 225, 226, 227, 228, 229, 230, 231, 232, 233, 234, 235, 236, 237, 238, 239, 240, 241, 242, 243, 244, 245, 246, 247, 248, 249, 250, 251, 252, 253, 254, 255, 256, 257, 258, 259, 260, 261, 262, 263, 264, 265, 266, 267, 268, 269, 270, 271, 272, 273, 274, 275, 276, 277, 278, 279, 280, 281, 282, 283, 284, 285, 286, 287, 288, 289, 290, 291, 292, 293, 294, 295, 296, 297, 298, 299, 300, 301, 302, 303, 304, 305, 306, 307, 308, 309, 310, 311, 312, 313, 314, 315, 316, 317, 318, 319, 320, 321, 322, 323, 324, 325, 326, 327, 328, 329, 330, 331, 332, 333, 334, 335, 336, 337, 338, 339, 340, 341, 342, 343, 344, 345, 346, 347, 348, 349, 350, 351, 352, 353, 354, 355, 356, 357, 358, 359, 360, 361, 362, 363, 364, 365, 366, 367, 368, 369, 370, 371, 372, 373, 374, 375, 376, 377, 378, 379, 380, 381, 382, 383, 384, 385, 386, 387, 388, 389, 390, 391, 392, 393, 394, 395, 396, 397, 398, 399, 400, 401, 402, 403, 404, 405, 406, 407, 408, 409, 410, 411, 412, 413, 414, 415, 416, 417, 418, 419, 420, 421, 422, 423, 424, 425, 426, 427, 428, 429, 430, 431, 432, 433, 434, 435, 436, 437, 438, 439, 440, 441, 442, 443, 444, 445, 446, 447, 448, 449, 450, 451, 452, 453, 454, 455, 456, 457, 458, 459, 460, 461, 462, 463, 464, 465, 466, 467, 468, 469, 470, 471, 472, 473, 474, 475, 476, 477, 478, 479, 480, 481, 482, 483, 484, 485, 486, 487, 488, 489, 490, 491, 492, 493, 494, 495, 496, 497, 498, 499, 500, 501, 502, 503, 504, 505, 506, 507, 508, 509, 510, 511, 512, 513, 514, 515, 516, 517, 518, 519, 520, 521, 522, 523, 524, 525, 526, 527, 528, 529, 530, 531, 532, 533, 534, 535, 536, 537, 538, 539, 540, 541, 542, 543, 544, 545, 546, 547, 548, 549, 550, 551, 552, 553, 554, 555, 556, 557, 558, 559, 560, 561, 562, 563, 564, 565, 566, 567, 568, 569, 570, 571, 572, 573, 574, 575, 576, 577, 578, 579, 580, 581, 582, 583, 584, 585, 586, 587, 588, 589, 590, 591, 592, 593, 594, 595, 596, 597, 598, 599, 600, 601, 602, 603, 604, 605, 606, 607, 608, 609, 610, 611, 612, 613, 614, 615, 616, 617, 618, 619, 620, 621, 622, 623, 624, 625, 626, 627, 628, 629, 630, 631, 632, 633, 634, 635, 636, 637, 638, 639, 640, 641, 642, 643, 644, 645, 646, 647, 648, 649, 650, 651, 652, 653, 654, 655, 656, 657, 658, 659, 660, 661, 662, 663, 664, 665, 666, 667, 668, 669, 670, 671, 672, 673, 674, 675, 676, 677, 678, 679, 680, 681, 682, 683, 684, 685, 686, 687, 688, 689, 690, 691, 692, 693, 694, 695, 696, 697, 698, 699, 700, 701, 702, 703, 704, 705, 706, 707, 708, 709, 710, 711, 712, 713, 714, 715, 716, 717, 718, 719, 720, 721, 722, 723, 724, 725, 726, 727, 728, 729, 730, 731, 732, 733, 734, 735, 736, 737, 738, 739, 740, 741, 742, 743, 744, 745, 746, 747, 748, 749, 750, 751, 752, 753, 754, 755, 756, 757, 758, 759, 760, 761, 762, 763, 764, 765, 766, 767, 768, 769, 770, 771, 772, 773, 774, 775, 776, 777, 778, 779, 780, 781, 782, 783, 784, 785, 786, 787, 788, 789, 790, 791, 792, 793, 794, 795, 796, 797, 798, 799, 800, 801, 802, 803, 804, 805, 806, 807, 808, 809, 810, 811, 812, 813, 814, 815, 816, 817, 818, 819, 820, 821, 822, 823, 824, 825, 826, 827, 828, 829, 830, 831, 832, 833, 834, 835, 836, 837, 838, 839, 840, 841, 842, 843, 844, 845, 846, 847, 848, 849, 850, 851, 852, 853, 854, 855, 856, 857, 858, 859, 860, 861, 862, 863, 864, 865, 866, 867, 868, 869, 870, 871, 872, 873, 874, 875, 876, 877, 878, 879, 880, 881, 882, 883, 884, 885, 886, 887, 888, 889, 890, 891, 892, 893, 894, 895, 896, 897, 898, 899, 900, 901, 902, 903, 904, 905, 906, 907, 908, 909, 910, 911, 912, 913, 914],
      "AcquisitionTime": ["101704.002500", "101704.462500", "101704.922500", "101705.382500", "101705.842500", "101706.302500", "101706.762500", "101707.222500", "101707.682500", "101708.142500", "101708.602500", "101709.062500", "101709.522500", "101709.982500", "101710.442500", "101710.902500", "101711.362500", "101711.822500", "101712.282500", "101712.742500", "101713.202500", "101713.662500", "101714.122500", "101714.582500", "101715.042500", "101715.502500", "101715.962500", "101716.422500", "101716.882500", "101717.342500", "101717.802500", "101718.262500", "101718.722500", "101719.182500", "101719.642500", "101720.102500", "101720.562500", "101721.022500", "101721.482500", "101721.942500", "101722.402500", "101722.862500", "101723.322500", "101723.782500", "101724.242500", "101724.702500", "101725.162500", "101725.622500", "101726.082500", "101726.542500", "101727.002500", "101727.462500", "101727.922500", "101728.382500", "101728.842500", "101729.302500", "101729.762500", "101730.222500", "101730.682500", "101731.142500", "101731.602500", "101732.062500", "101732.522500", "101732.982500", "101733.442500", "101733.902500", "101734.362500", "101734.822500", "101735.282500", "101735.742500", "101736.202500", "101736.662500", "101737.122500", "101737.582500", "101738.042500", "101738.502500", "101738.962500", "101739.422500", "101739.882500", "101740.342500", "101740.802500", "101741.262500", "101741.722500", "101742.182500", "101742.642500", "101743.102500", "101743.562500", "101744.022500", "101744.482500", "101744.942500", "101745.402500", "101745.862500", "101746.322500", "101746.782500", "101747.242500", "101747.702500", "101748.162500", "101748.622500", "101749.082500", "101749.542500", "101750.002500", "101750.462500", "101750.922500", "101751.382500", "101751.842500", "101752.302500", "101752.762500", "101753.222500", "101753.682500", "101754.142500", "101754.602500", "101755.062500", "101755.522500", "101755.982500", "101756.442500", "101756.902500", "101757.362500", "101757.822500", "101758.282500", "101758.742500", "101759.202500", "101759.662500", "101800.122500", "101800.582500", "101801.042500", "101801.502500", "101801.962500", "101802.422500", "101802.882500", "101803.342500", "101803.802500", "101804.262500", "101804.722500", "101805.182500", "101805.642500", "101806.102500", "101806.562500", "101807.022500", "101807.482500", "101807.942500", "101808.402500", "101808.862500", "101809.322500", "101809.782500", "101810.242500", "101810.702500", "101811.162500", "101811.622500", "101812.082500", "101812.542500", "101813.002500", "101813.462500", "101813.922500", "101814.382500", "101814.842500", "101815.302500", "101815.762500", "101816.222500", "101816.682500", "101817.142500", "101817.602500", "101818.062500", "101818.522500", "101818.982500", "101819.442500", "101819.902500", "101820.362500", "101820.822500", "101821.282500", "101821.742500", "101822.202500", "101822.662500", "101823.122500", "101823.582500", "101824.042500", "101824.502500", "101824.962500", "101825.422500", "101825.882500", "101826.342500", "101826.802500", "101827.262500", "101827.722500", "101828.182500", "101828.642500", "101829.102500", "101829.562500", "101830.022500", "101830.482500", "101830.942500", "101831.402500", "101831.862500", "101832.322500", "101832.782500", "101833.242500", "101833.702500", "101834.162500", "101834.622500", "101835.082500", "101835.542500", "101836.002500", "101836.462500", "101836.922500", "101837.382500", "101837.842500", "101838.302500", "101838.762500", "101839.222500", "101839.682500", "101840.142500", "101840.602500", "101841.062500", "101841.522500", "101841.982500", "101842.442500", "101842.902500", "101843.362500", "101843.822500", "101844.282500", "101844.742500", "101845.202500", "101845.662500", "101846.122500", "101846.582500", "101847.042500", "101847.502500", "101847.962500", "101848.422500", "101848.882500", "101849.342500", "101849.802500", "101850.262500", "101850.722500", "101851.182500", "101851.642500", "101852.102500", "101852.562500", "101853.022500", "101853.482500", "101853.942500", "101854.402500", "101854.862500", "101855.322500", "101855.782500", "101856.242500", "101856.702500", "101857.162500", "101857.622500", "101858.082500", "101858.542500", "101859.002500", "101859.462500", "101859.922500", "101900.382500", "101900.842500", "101901.302500", "101901.762500", "101902.222500", "101902.682500", "101903.142500", "101903.602500", "101904.062500", "101904.522500", "101904.982500", "101905.442500", "101905.902500", "101906.362500", "101906.822500", "101907.282500", "101907.742500", "101908.202500", "101908.662500", "101909.122500", "101909.582500", "101910.042500", "101910.502500", "101910.962500", "101911.422500", "101911.882500", "101912.342500", "101912.802500", "101913.262500", "101913.722500", "101914.182500", "101914.642500", "101915.102500", "101915.562500", "101916.022500", "101916.482500", "101916.942500", "101917.402500", "101917.862500", "101918.322500", "101918.782500", "101919.242500", "101919.702500", "101920.162500", "101920.622500", "101921.082500", "101921.542500", "101922.002500", "101922.462500", "101922.922500", "101923.382500", "101923.842500", "101924.302500", "101924.762500", "101925.222500", "101925.682500", "101926.142500", "101926.602500", "101927.062500", "101927.522500", "101927.982500", "101928.442500", "101928.902500", "101929.362500", "101929.822500", "101930.282500", "101930.742500", "101931.202500", "101931.662500", "101932.122500", "101932.582500", "101933.042500", "101933.502500", "101933.962500", "101934.422500", "101934.882500", "101935.342500", "101935.802500", "101936.262500", "101936.722500", "101937.182500", "101937.642500", "101938.102500", "101938.562500", "101939.022500", "101939.482500", "101939.942500", "101940.402500", "101940.862500", "101941.322500", "101941.782500", "101942.242500", "101942.702500", "101943.162500", "101943.622500", "101944.082500", "101944.542500", "101945.002500", "101945.462500", "101945.922500", "101946.382500", "101946.842500", "101947.302500", "101947.762500", "101948.222500", "101948.682500", "101949.142500", "101949.602500", "101950.062500", "101950.522500", "101950.982500", "101951.442500", "101951.902500", "101952.362500", "101952.822500", "101953.282500", "101953.742500", "101954.202500", "101954.662500", "101955.122500", "101955.582500", "101956.042500", "101956.502500", "101956.962500", "101957.422500", "101957.882500", "101958.342500", "101958.802500", "101959.262500", "101959.722500", "102000.182500", "102000.642500", "102001.102500", "102001.562500", "102002.022500", "102002.482500", "102002.942500", "102003.402500", "102003.862500", "102004.322500", "102004.782500", "102005.242500", "102005.702500", "102006.162500", "102006.622500", "102007.082500", "102007.542500", "102008.002500", "102008.462500", "102008.922500", "102009.382500", "102009.842500", "102010.302500", "102010.762500", "102011.222500", "102011.682500", "102012.142500", "102012.602500", "102013.062500", "102013.522500", "102013.982500", "102014.442500", "102014.902500", "102015.362500", "102015.822500", "102016.282500", "102016.742500", "102017.202500", "102017.662500", "102018.122500", "102018.582500", "102019.042500", "102019.502500", "102019.962500", "102020.422500", "102020.882500", "102021.342500", "102021.802500", "102022.262500", "102022.722500", "102023.182500", "102023.642500", "102024.102500", "102024.562500", "102025.022500", "102025.482500", "102025.942500", "102026.402500", "102026.862500", "102027.322500", "102027.782500", "102028.242500", "102028.702500", "102029.162500", "102029.622500", "102030.082500", "102030.542500", "102031.002500", "102031.462500", "102031.922500", "102032.382500", "102032.842500", "102033.302500", "102033.762500", "102034.222500", "102034.682500", "102035.142500", "102035.602500", "102036.062500", "102036.522500", "102036.982500", "102037.442500", "102037.902500", "102038.362500", "102038.822500", "102039.282500", "102039.742500", "102040.202500", "102040.662500", "102041.122500", "102041.582500", "102042.042500", "102042.502500", "102042.962500", "102043.422500", "102043.882500", "102044.342500", "102044.802500", "102045.262500", "102045.722500", "102046.182500", "102046.642500", "102047.102500", "102047.562500", "102048.022500", "102048.482500", "102048.942500", "102049.402500", "102049.862500", "102050.322500", "102050.782500", "102051.242500", "102051.702500", "102052.162500", "102052.622500", "102053.082500", "102053.542500", "102054.002500", "102054.462500", "102054.922500", "102055.382500", "102055.842500", "102056.302500", "102056.762500", "102057.222500", "102057.682500", "102058.142500", "102058.602500", "102059.062500", "102059.522500", "102059.982500", "102100.442500", "102100.902500", "102101.362500", "102101.822500", "102102.282500", "102102.742500", "102103.202500", "102103.662500", "102104.122500", "102104.582500", "102105.042500", "102105.502500", "102105.962500", "102106.422500", "102106.882500", "102107.342500", "102107.802500", "102108.262500", "102108.722500", "102109.182500", "102109.642500", "102110.102500", "102110.562500", "102111.022500", "102111.482500", "102111.942500", "102112.402500", "102112.862500", "102113.322500", "102113.782500", "102114.242500", "102114.702500", "102115.162500", "102115.622500", "102116.082500", "102116.542500", "102117.002500", "102117.462500", "102117.922500", "102118.382500", "102118.842500", "102119.302500", "102119.762500", "102120.222500", "102120.682500", "102121.142500", "102121.602500", "102122.062500", "102122.522500", "102122.982500", "102123.442500", "102123.902500", "102124.362500", "102124.822500", "102125.282500", "102125.742500", "102126.202500", "102126.662500", "102127.122500", "102127.582500", "102128.042500", "102128.502500", "102128.962500", "102129.422500", "102129.882500", "102130.342500", "102130.802500", "102131.262500", "102131.722500", "102132.182500", "102132.642500", "102133.102500", "102133.562500", "102134.022500", "102134.482500", "102134.942500", "102135.402500", "102135.862500", "102136.322500", "102136.782500", "102137.242500", "102137.702500", "102138.162500", "102138.622500", "102139.082500", "102139.542500", "102140.002500", "102140.462500", "102140.922500", "102141.382500", "102141.842500", "102142.302500", "102142.762500", "102143.222500", "102143.682500", "102144.142500", "102144.602500", "102145.062500", "102145.522500", "102145.982500", "102146.442500", "102146.902500", "102147.362500", "102147.822500", "102148.282500", "102148.742500", "102149.202500", "102149.662500", "102150.122500", "102150.582500", "102151.042500", "102151.502500", "102151.962500", "102152.422500", "102152.882500", "102153.342500", "102153.802500", "102154.262500", "102154.722500", "102155.182500", "102155.642500", "102156.102500", "102156.562500", "102157.022500", "102157.482500", "102157.942500", "102158.402500", "102158.862500", "102159.322500", "102159.782500", "102200.242500", "102200.702500", "102201.162500", "102201.622500", "102202.082500", "102202.542500", "102203.002500", "102203.462500", "102203.922500", "102204.382500", "102204.842500", "102205.302500", "102205.762500", "102206.222500", "102206.682500", "102207.142500", "102207.602500", "102208.062500", "102208.522500", "102208.982500", "102209.442500", "102209.902500", "102210.362500", "102210.822500", "102211.282500", "102211.742500", "102212.202500", "102212.662500", "102213.122500", "102213.582500", "102214.042500", "102214.502500", "102214.962500", "102215.422500", "102215.882500", "102216.342500", "102216.802500", "102217.262500", "102217.722500", "102218.182500", "102218.642500", "102219.102500", "102219.562500", "102220.022500", "102220.482500", "102220.942500", "102221.402500", "102221.862500", "102222.322500", "102222.782500", "102223.242500", "102223.702500", "102224.162500", "102224.622500", "102225.082500", "102225.542500", "102226.002500", "102226.462500", "102226.922500", "102227.382500", "102227.842500", "102228.302500", "102228.762500", "102229.222500", "102229.682500", "102230.142500", "102230.602500", "102231.062500", "102231.522500", "102231.982500", "102232.442500", "102232.902500", "102233.362500", "102233.822500", "102234.282500", "102234.742500", "102235.202500", "102235.662500", "102236.122500", "102236.582500", "102237.042500", "102237.502500", "102237.962500", "102238.422500", "102238.882500", "102239.342500", "102239.802500", "102240.262500", "102240.722500", "102241.182500", "102241.642500", "102242.102500", "102242.562500", "102243.022500", "102243.482500", "102243.942500", "102244.402500", "102244.862500", "102245.322500", "102245.782500", "102246.242500", "102246.702500", "102247.162500", "102247.622500", "102248.082500", "102248.542500", "102249.002500", "102249.462500", "102249.922500", "102250.382500", "102250.842500", "102251.302500", "102251.762500", "102252.222500", "102252.682500", "102253.142500", "102253.602500", "102254.062500", "102254.522500", "102254.982500", "102255.442500", "102255.902500", "102256.362500", "102256.822500", "102257.282500", "102257.742500", "102258.202500", "102258.662500", "102259.122500", "102259.582500", "102300.042500", "102300.502500", "102300.962500", "102301.422500", "102301.882500", "102302.342500", "102302.802500", "102303.262500", "102303.722500", "102304.182500", "102304.642500", "102305.102500", "102305.562500", "102306.022500", "102306.482500", "102306.942500", "102307.402500", "102307.862500", "102308.322500", "102308.782500", "102309.242500", "102309.702500", "102310.162500", "102310.622500", "102311.082500", "102311.542500", "102312.002500", "102312.462500", "102312.922500", "102313.382500", "102313.842500", "102314.302500", "102314.762500", "102315.222500", "102315.682500", "102316.142500", "102316.602500", "102317.062500", "102317.522500", "102317.982500", "102318.442500", "102318.902500", "102319.362500", "102319.822500", "102320.282500", "102320.742500", "102321.202500", "102321.662500", "102322.122500", "102322.582500", "102323.042500", "102323.502500", "102323.962500", "102324.422500", "102324.882500", "102325.342500", "102325.802500", "102326.262500", "102326.722500", "102327.182500", "102327.642500", "102328.102500", "102328.562500", "102329.022500", "102329.482500", "102329.942500", "102330.402500", "102330.862500", "102331.322500", "102331.782500", "102332.242500", "102332.702500", "102333.162500", "102333.622500", "102334.082500", "102334.542500", "102335.002500", "102335.462500", "102335.922500", "102336.382500", "102336.842500", "102337.302500", "102337.762500", "102338.222500", "102338.682500", "102339.142500", "102339.602500", "102340.062500", "102340.522500", "102340.982500", "102341.442500", "102341.902500", "102342.362500", "102342.822500", "102343.282500", "102343.742500", "102344.202500", "102344.662500", "102345.122500", "102345.582500", "102346.042500", "102346.502500", "102346.962500", "102347.422500", "102347.882500", "102348.342500", "102348.802500", "102349.262500", "102349.722500", "102350.182500", "102350.642500", "102351.102500", "102351.562500", "102352.022500", "102352.482500", "102352.942500", "102353.402500", "102353.862500", "102354.322500", "102354.782500", "102355.242500", "102355.702500", "102356.162500", "102356.622500", "102357.082500", "102357.542500", "102358.002500", "102358.462500", "102358.922500", "102359.382500", "102359.842500", "102400.302500", "102400.762500", "102401.222500", "102401.682500", "102402.142500", "102402.602500", "102403.062500", "102403.522500", "102403.982500"],
