{
  "AcquisitionMatrixPE": 82,
  "AcquisitionNumber": 1,
  "AcquisitionTime": "09:22:51.302500",
  "BandwidthPerPixelPhaseEncode": 24.888,
  "BaseResolution": 82,
  "BodyPartExamined": "BRAIN",
  "ConsistencyInfo": "N4_VE11C_LATEST_20160120",
  "ConversionSoftware": "dcm2niix",
  "ConversionSoftwareVersion": "v1.0.20201102",
  "DerivedVendorReportedEchoSpacing": 0.00049,
  "DeviceSerialNumber": "66112",
  "DwellTime": 2e-06,
  "EchoTime": 0.0272,
  "EchoTrainLength": 82,
  "EffectiveEchoSpacing": 0.00049,
  "FlipAngle": 44,
  "ImageComments": "Unaliased MB8/PE3",
  "ImageOrientationPatientDICOM": [0.999145, 0.0158279, 0.0381909, -0.00732421, 0.976964, -0.213279],
  "ImageType": [
    "ORIGINAL",
    "PRIMARY",
    "M",
    "MB",
    "ND",
    "NORM",
    "MOSAIC"
],
  "ImagingFrequency": 123.252,
  "InPlanePhaseEncodingDirectionDICOM": "COL",
  "InstitutionAddress": "Maynard 3,Hanover,NH,US,03755",
  "InstitutionName": "Dartmouth College - PBS",
  "InstitutionalDepartmentName": "Department",
  "MRAcquisitionType": "2D",
  "MagneticFieldStrength": 3,
  "Manufacturer": "Siemens",
  "ManufacturersModelName": "Prisma",
  "Modality": "MR",
  "MultibandAccelerationFactor": 8,
  "PartialFourier": 1,
  "PatientPosition": "HFS",
  "PercentPhaseFOV": 100,
  "PercentSampling": 100,
  "PhaseEncodingDirection": "j-",
  "PhaseEncodingSteps": 82,
  "PhaseResolution": 1,
  "PixelBandwidth": 3050,
  "ProcedureStepDescription": "Wager_Wager^1076_spacetop",
  "ProtocolName": "func_run-01_task-narratives_acq-ap-mb8",
  "PulseSequenceDetails": "%CustomerSeq%\\cmrr_mbep2d_bold",
  "ReceiveCoilActiveElements": "HEA;HEP",
  "ReceiveCoilName": "Head_32",
  "ReconMatrixPE": 82,
  "RepetitionTime": 0.46,
  "SAR": 0.109043,
  "ScanOptions": "FS",
  "ScanningSequence": "EP",
  "SequenceName": "epfid2d1_82",
  "SequenceVariant": "SK\\SS",
  "SeriesDescription": "func_run-01_task-narratives_acq-ap-mb8",
  "SeriesNumber": 8,
  "ShimSetting": [4150, -7689, -7255, 567, -49, 0, -10, 77],
  "SliceThickness": 2.7,
  "SliceTiming": [0, 0.25, 0.0625, 0.3125, 0.125, 0.375, 0.1875, 0, 0.25, 0.0625, 0.3125, 0.125, 0.375, 0.1875, 0, 0.25, 0.0625, 0.3125, 0.125, 0.375, 0.1875, 0, 0.25, 0.0625, 0.3125, 0.125, 0.375, 0.1875, 0, 0.25, 0.0625, 0.3125, 0.125, 0.375, 0.1875, 0, 0.25, 0.0625, 0.3125, 0.125, 0.375, 0.1875, 0, 0.25, 0.0625, 0.3125, 0.125, 0.375, 0.1875, 0, 0.25, 0.0625, 0.3125, 0.125, 0.375, 0.1875],
  "SoftwareVersions": "syngo MR E11",
  "SpacingBetweenSlices": 2.7,
  "StationName": "AWP66112",
  "TaskName": "narratives",
  "TotalReadoutTime": 0.03969,
  "TxRefAmp": 246.275,
  "WipMemBlock": "4e3b721f-f265-4dcb-be0e-07d1714afe5a||Sequence: R016 ve11c/master r/e634e98; Dec 19 2017 11:00:25 by eja",
  "dcmmeta_affine": [
    [-2.680633306503296, -0.019650310277938843, 0.1098545491695404, 114.83248138427734],
    [-0.0424649715423584, 2.6211228370666504, -0.5746044516563416, -75.30205535888672],
    [0.10246337205171585, 0.5722106695175171, 2.6358606815338135, -71.75321960449219],
    [0.0, 0.0, 0.0, 1.0]
],
  "dcmmeta_reorient_transform": [
    [0.0, -1.0, 0.0, 81.0],
    [1.0, 0.0, 0.0, 0.0],
    [0.0, 0.0, 1.0, 0.0],
    [0.0, 0.0, 0.0, 1.0]
],
  "dcmmeta_shape": [82, 82, 56, 967],
  "dcmmeta_slice_dim": 2,
  "dcmmeta_version": 0.6,
  "global": {
    "const": {
      "AccessionNumber": "A003470",
      "AcquisitionMatrix": [82, 0, 0, 82],
      "AngioFlag": "N",
      "BitsAllocated": 16,
      "BitsStored": 16,
      "BodyPartExamined": "BRAIN",
      "Columns": 656,
      "EchoNumbers": 1,
      "EchoTime": 27.2,
      "EchoTrainLength": 82,
      "FlipAngle": 44.0,
      "HighBit": 15,
      "ImageOrientationPatient": [0.9991451019516, 0.01582785248135, 0.03819089331194, -0.0073242062483, 0.97696398631119, -0.2132785161562],
      "ImagePositionPatient": [-876.94291767986, -901.45863492651, 109.41331630522],
      "ImageType": [
        "ORIGINAL",
        "PRIMARY",
        "M",
        "MB",
        "ND",
        "NORM",
        "MOSAIC"
],
      "ImagedNucleus": "1H",
      "ImagingFrequency": 123.252157,
      "InPlanePhaseEncodingDirection": "COL",
      "MRAcquisitionType": "2D",
      "MagneticFieldStrength": 3.0,
      "Manufacturer": "SIEMENS",
      "ManufacturerModelName": "Prisma",
      "Modality": "MR",
      "NumberOfAverages": 1.0,
      "NumberOfPhaseEncodingSteps": 82,
      "PercentPhaseFieldOfView": 100.0,
      "PercentSampling": 100.0,
      "PerformedProcedureStepStartTime": "090551.290000",
      "PhotometricInterpretation": "MONOCHROME2",
      "PixelBandwidth": 3050.0,
      "PixelRepresentation": 0,
      "PixelSpacing": [2.6829268932343, 2.6829268932343],
      "ProtocolName": "func_run-01_task-narratives_acq-ap-mb8",
      "RepetitionTime": 460.0,
      "Rows": 656,
      "SAR": 0.10904349185062,
      "SamplesPerPixel": 1,
      "ScanOptions": "FS",
      "ScanningSequence": "EP",
      "SequenceName": "epfid2d1_82",
      "SequenceVariant": [
        "SK",
        "SS"
],
      "SeriesDescription": "func_run-01_task-narratives_acq-ap-mb8",
      "SeriesNumber": 8,
      "SeriesTime": "092319.227000",
      "SliceLocation": -49.351009631627,
      "SliceThickness": 2.7000000476837,
      "SmallestImagePixelValue": 0,
      "SoftwareVersions": "syngo MR E11",
      "SpacingBetweenSlices": 2.7000000727135,
      "SpecificCharacterSet": "ISO_IR 100",
      "StudyID": "3",
      "StudyTime": "090551.246000",
      "TransmitCoilName": "Body",
      "VariableFlipAngleFlag": "N",
      "WindowCenterWidthExplanation": "Algo1",
      "dBdt": 0.0},
    "slices": {}
  },
  "time": {
    "samples": {
      "AcquisitionNumber": [1, 2, 3, 4, 5, 6, 7, 8, 9, 10, 11, 12, 13, 14, 15, 16, 17, 18, 19, 20, 21, 22, 23, 24, 25, 26, 27, 28, 29, 30, 31, 32, 33, 34, 35, 36, 37, 38, 39, 40, 41, 42, 43, 44, 45, 46, 47, 48, 49, 50, 51, 52, 53, 54, 55, 56, 57, 58, 59, 60, 61, 62, 63, 64, 65, 66, 67, 68, 69, 70, 71, 72, 73, 74, 75, 76, 77, 78, 79, 80, 81, 82, 83, 84, 85, 86, 87, 88, 89, 90, 91, 92, 93, 94, 95, 96, 97, 98, 99, 100, 101, 102, 103, 104, 105, 106, 107, 108, 109, 110, 111, 112, 113, 114, 115, 116, 117, 118, 119, 120, 121, 122, 123, 124, 125, 126, 127, 128, 129, 130, 131, 132, 133, 134, 135, 136, 137, 138, 139, 140, 141, 142, 143, 144, 145, 146, 147, 148, 149, 150, 151, 152, 153, 154, 155, 156, 157, 158, 159, 160, 161, 162, 163, 164, 165, 166, 167, 168, 169, 170, 171, 172, 173, 174, 175, 176, 177, 178, 179, 180, 181, 182, 183, 184, 185, 186, 187, 188, 189, 190, 191, 192, 193, 194, 195, 196, 197, 198, 199, 200, 201, 202, 203, 204, 205, 206, 207, 208, 209, 210, 211, 212, 213, 214, 215, 216, 217, 218, 219, 220, 221, 222, 223, 224, 225, 226, 227, 228, 229, 230, 231, 232, 233, 234, 235, 236, 237, 238, 239, 240, 241, 242, 243, 244, 245, 246, 247, 248, 249, 250, 251, 252, 253, 254, 255, 256, 257, 258, 259, 260, 261, 262, 263, 264, 265, 266, 267, 268, 269, 270, 271, 272, 273, 274, 275, 276, 277, 278, 279, 280, 281, 282, 283, 284, 285, 286, 287, 288, 289, 290, 291, 292, 293, 294, 295, 296, 297, 298, 299, 300, 301, 302, 303, 304, 305, 306, 307, 308, 309, 310, 311, 312, 313, 314, 315, 316, 317, 318, 319, 320, 321, 322, 323, 324, 325, 326, 327, 328, 329, 330, 331, 332, 333, 334, 335, 336, 337, 338, 339, 340, 341, 342, 343, 344, 345, 346, 347, 348, 349, 350, 351, 352, 353, 354, 355, 356, 357, 358, 359, 360, 361, 362, 363, 364, 365, 366, 367, 368, 369, 370, 371, 372, 373, 374, 375, 376, 377, 378, 379, 380, 381, 382, 383, 384, 385, 386, 387, 388, 389, 390, 391, 392, 393, 394, 395, 396, 397, 398, 399, 400, 401, 402, 403, 404, 405, 406, 407, 408, 409, 410, 411, 412, 413, 414, 415, 416, 417, 418, 419, 420, 421, 422, 423, 424, 425, 426, 427, 428, 429, 430, 431, 432, 433, 434, 435, 436, 437, 438, 439, 440, 441, 442, 443, 444, 445, 446, 447, 448, 449, 450, 451, 452, 453, 454, 455, 456, 457, 458, 459, 460, 461, 462, 463, 464, 465, 466, 467, 468, 469, 470, 471, 472, 473, 474, 475, 476, 477, 478, 479, 480, 481, 482, 483, 484, 485, 486, 487, 488, 489, 490, 491, 492, 493, 494, 495, 496, 497, 498, 499, 500, 501, 502, 503, 504, 505, 506, 507, 508, 509, 510, 511, 512, 513, 514, 515, 516, 517, 518, 519, 520, 521, 522, 523, 524, 525, 526, 527, 528, 529, 530, 531, 532, 533, 534, 535, 536, 537, 538, 539, 540, 541, 542, 543, 544, 545, 546, 547, 548, 549, 550, 551, 552, 553, 554, 555, 556, 557, 558, 559, 560, 561, 562, 563, 564, 565, 566, 567, 568, 569, 570, 571, 572, 573, 574, 575, 576, 577, 578, 579, 580, 581, 582, 583, 584, 585, 586, 587, 588, 589, 590, 591, 592, 593, 594, 595, 596, 597, 598, 599, 600, 601, 602, 603, 604, 605, 606, 607, 608, 609, 610, 611, 612, 613, 614, 615, 616, 617, 618, 619, 620, 621, 622, 623, 624, 625, 626, 627, 628, 629, 630, 631, 632, 633, 634, 635, 636, 637, 638, 639, 640, 641, 642, 643, 644, 645, 646, 647, 648, 649, 650, 651, 652, 653, 654, 655, 656, 657, 658, 659, 660, 661, 662, 663, 664, 665, 666, 667, 668, 669, 670, 671, 672, 673, 674, 675, 676, 677, 678, 679, 680, 681, 682, 683, 684, 685, 686, 687, 688, 689, 690, 691, 692, 693, 694, 695, 696, 697, 698, 699, 700, 701, 702, 703, 704, 705, 706, 707, 708, 709, 710, 711, 712, 713, 714, 715, 716, 717, 718, 719, 720, 721, 722, 723, 724, 725, 726, 727, 728, 729, 730, 731, 732, 733, 734, 735, 736, 737, 738, 739, 740, 741, 742, 743, 744, 745, 746, 747, 748, 749, 750, 751, 752, 753, 754, 755, 756, 757, 758, 759, 760, 761, 762, 763, 764, 765, 766, 767, 768, 769, 770, 771, 772, 773, 774, 775, 776, 777, 778, 779, 780, 781, 782, 783, 784, 785, 786, 787, 788, 789, 790, 791, 792, 793, 794, 795, 796, 797, 798, 799, 800, 801, 802, 803, 804, 805, 806, 807, 808, 809, 810, 811, 812, 813, 814, 815, 816, 817, 818, 819, 820, 821, 822, 823, 824, 825, 826, 827, 828, 829, 830, 831, 832, 833, 834, 835, 836, 837, 838, 839, 840, 841, 842, 843, 844, 845, 846, 847, 848, 849, 850, 851, 852, 853, 854, 855, 856, 857, 858, 859, 860, 861, 862, 863, 864, 865, 866, 867, 868, 869, 870, 871, 872, 873, 874, 875, 876, 877, 878, 879, 880, 881, 882, 883, 884, 885, 886, 887, 888, 889, 890, 891, 892, 893, 894, 895, 896, 897, 898, 899, 900, 901, 902, 903, 904, 905, 906, 907, 908, 909, 910, 911, 912, 913, 914, 915, 916, 917, 918, 919, 920, 921, 922, 923, 924, 925, 926, 927, 928, 929, 930, 931, 932, 933, 934, 935, 936, 937, 938, 939, 940, 941, 942, 943, 944, 945, 946, 947, 948, 949, 950, 951, 952, 953, 954, 955, 956, 957, 958, 959, 960, 961, 962, 963, 964, 965, 966, 967],
      "AcquisitionTime": ["092251.302500", "092251.762500", "092252.222500", "092252.682500", "092253.142500", "092253.602500", "092254.062500", "092254.522500", "092254.982500", "092255.442500", "092255.902500", "092256.362500", "092256.822500", "092257.282500", "092257.742500", "092258.202500", "092258.662500", "092259.122500", "092259.582500", "092300.042500", "092300.502500", "092300.962500", "092301.422500", "092301.882500", "092302.342500", "092302.802500", "092303.262500", "092303.722500", "092304.182500", "092304.642500", "092305.102500", "092305.562500", "092306.022500", "092306.482500", "092306.942500", "092307.402500", "092307.862500", "092308.322500", "092308.782500", "092309.242500", "092309.702500", "092310.162500", "092310.622500", "092311.082500", "092311.542500", "092312.002500", "092312.462500", "092312.922500", "092313.382500", "092313.842500", "092314.302500", "092314.762500", "092315.222500", "092315.682500", "092316.142500", "092316.602500", "092317.062500", "092317.522500", "092317.982500", "092318.442500", "092318.902500", "092319.362500", "092319.822500", "092320.282500", "092320.742500", "092321.202500", "092321.662500", "092322.122500", "092322.582500", "092323.042500", "092323.502500", "092323.962500", "092324.422500", "092324.882500", "092325.342500", "092325.802500", "092326.262500", "092326.722500", "092327.182500", "092327.642500", "092328.102500", "092328.562500", "092329.022500", "092329.482500", "092329.942500", "092330.402500", "092330.862500", "092331.322500", "092331.782500", "092332.242500", "092332.702500", "092333.162500", "092333.622500", "092334.082500", "092334.542500", "092335.002500", "092335.462500", "092335.922500", "092336.382500", "092336.842500", "092337.302500", "092337.762500", "092338.222500", "092338.682500", "092339.142500", "092339.602500", "092340.062500", "092340.522500", "092340.982500", "092341.442500", "092341.902500", "092342.362500", "092342.822500", "092343.282500", "092343.742500", "092344.202500", "092344.662500", "092345.122500", "092345.582500", "092346.042500", "092346.502500", "092346.962500", "092347.422500", "092347.882500", "092348.342500", "092348.802500", "092349.262500", "092349.722500", "092350.182500", "092350.642500", "092351.102500", "092351.562500", "092352.022500", "092352.482500", "092352.942500", "092353.402500", "092353.862500", "092354.322500", "092354.782500", "092355.242500", "092355.702500", "092356.162500", "092356.622500", "092357.082500", "092357.542500", "092358.002500", "092358.462500", "092358.922500", "092359.382500", "092359.842500", "092400.302500", "092400.762500", "092401.222500", "092401.682500", "092402.142500", "092402.602500", "092403.062500", "092403.522500", "092403.982500", "092404.442500", "092404.902500", "092405.362500", "092405.822500", "092406.282500", "092406.742500", "092407.202500", "092407.662500", "092408.122500", "092408.582500", "092409.042500", "092409.502500", "092409.962500", "092410.422500", "092410.882500", "092411.342500", "092411.802500", "092412.262500", "092412.722500", "092413.182500", "092413.642500", "092414.102500", "092414.562500", "092415.022500", "092415.482500", "092415.942500", "092416.402500", "092416.862500", "092417.322500", "092417.782500", "092418.242500", "092418.702500", "092419.162500", "092419.622500", "092420.082500", "092420.542500", "092421.002500", "092421.462500", "092421.922500", "092422.382500", "092422.842500", "092423.302500", "092423.762500", "092424.222500", "092424.682500", "092425.142500", "092425.602500", "092426.062500", "092426.522500", "092426.982500", "092427.442500", "092427.902500", "092428.362500", "092428.822500", "092429.282500", "092429.742500", "092430.202500", "092430.662500", "092431.122500", "092431.582500", "092432.042500", "092432.502500", "092432.962500", "092433.422500", "092433.882500", "092434.342500", "092434.802500", "092435.262500", "092435.722500", "092436.182500", "092436.642500", "092437.102500", "092437.562500", "092438.022500", "092438.482500", "092438.942500", "092439.402500", "092439.862500", "092440.322500", "092440.782500", "092441.242500", "092441.702500", "092442.162500", "092442.622500", "092443.082500", "092443.542500", "092444.002500", "092444.462500", "092444.922500", "092445.382500", "092445.842500", "092446.302500", "092446.762500", "092447.222500", "092447.682500", "092448.142500", "092448.602500", "092449.062500", "092449.522500", "092449.982500", "092450.442500", "092450.902500", "092451.362500", "092451.822500", "092452.282500", "092452.742500", "092453.202500", "092453.662500", "092454.122500", "092454.582500", "092455.042500", "092455.502500", "092455.962500", "092456.422500", "092456.882500", "092457.342500", "092457.802500", "092458.262500", "092458.722500", "092459.182500", "092459.642500", "092500.102500", "092500.562500", "092501.022500", "092501.482500", "092501.942500", "092502.402500", "092502.862500", "092503.322500", "092503.782500", "092504.242500", "092504.702500", "092505.162500", "092505.622500", "092506.082500", "092506.542500", "092507.002500", "092507.462500", "092507.922500", "092508.382500", "092508.842500", "092509.302500", "092509.762500", "092510.222500", "092510.682500", "092511.142500", "092511.602500", "092512.062500", "092512.522500", "092512.982500", "092513.442500", "092513.902500", "092514.362500", "092514.822500", "092515.282500", "092515.742500", "092516.202500", "092516.662500", "092517.122500", "092517.582500", "092518.042500", "092518.502500", "092518.962500", "092519.422500", "092519.882500", "092520.342500", "092520.802500", "092521.262500", "092521.722500", "092522.182500", "092522.642500", "092523.102500", "092523.562500", "092524.022500", "092524.482500", "092524.942500", "092525.402500", "092525.862500", "092526.322500", "092526.782500", "092527.242500", "092527.702500", "092528.162500", "092528.622500", "092529.082500", "092529.542500", "092530.002500", "092530.462500", "092530.922500", "092531.382500", "092531.842500", "092532.302500", "092532.762500", "092533.222500", "092533.682500", "092534.142500", "092534.602500", "092535.062500", "092535.522500", "092535.982500", "092536.442500", "092536.902500", "092537.362500", "092537.822500", "092538.282500", "092538.742500", "092539.202500", "092539.662500", "092540.122500", "092540.582500", "092541.042500", "092541.502500", "092541.962500", "092542.422500", "092542.882500", "092543.342500", "092543.802500", "092544.262500", "092544.722500", "092545.182500", "092545.642500", "092546.102500", "092546.562500", "092547.022500", "092547.482500", "092547.942500", "092548.402500", "092548.862500", "092549.322500", "092549.782500", "092550.242500", "092550.702500", "092551.162500", "092551.622500", "092552.082500", "092552.542500", "092553.002500", "092553.462500", "092553.922500", "092554.382500", "092554.842500", "092555.302500", "092555.762500", "092556.222500", "092556.682500", "092557.142500", "092557.602500", "092558.062500", "092558.522500", "092558.982500", "092559.442500", "092559.902500", "092600.362500", "092600.822500", "092601.282500", "092601.742500", "092602.202500", "092602.662500", "092603.122500", "092603.582500", "092604.042500", "092604.502500", "092604.962500", "092605.422500", "092605.882500", "092606.342500", "092606.802500", "092607.262500", "092607.722500", "092608.182500", "092608.642500", "092609.102500", "092609.562500", "092610.022500", "092610.482500", "092610.942500", "092611.402500", "092611.862500", "092612.322500", "092612.782500", "092613.242500", "092613.702500", "092614.162500", "092614.622500", "092615.082500", "092615.542500", "092616.002500", "092616.462500", "092616.922500", "092617.382500", "092617.842500", "092618.302500", "092618.762500", "092619.222500", "092619.682500", "092620.142500", "092620.602500", "092621.062500", "092621.522500", "092621.982500", "092622.442500", "092622.902500", "092623.362500", "092623.822500", "092624.282500", "092624.742500", "092625.202500", "092625.662500", "092626.122500", "092626.582500", "092627.042500", "092627.502500", "092627.962500", "092628.422500", "092628.882500", "092629.342500", "092629.802500", "092630.262500", "092630.722500", "092631.182500", "092631.642500", "092632.102500", "092632.562500", "092633.022500", "092633.482500", "092633.942500", "092634.402500", "092634.862500", "092635.322500", "092635.782500", "092636.242500", "092636.702500", "092637.162500", "092637.622500", "092638.082500", "092638.542500", "092639.002500", "092639.462500", "092639.922500", "092640.382500", "092640.842500", "092641.302500", "092641.762500", "092642.222500", "092642.682500", "092643.142500", "092643.602500", "092644.062500", "092644.522500", "092644.982500", "092645.442500", "092645.902500", "092646.362500", "092646.822500", "092647.282500", "092647.742500", "092648.202500", "092648.662500", "092649.122500", "092649.582500", "092650.042500", "092650.502500", "092650.962500", "092651.422500", "092651.882500", "092652.342500", "092652.802500", "092653.262500", "092653.722500", "092654.182500", "092654.642500", "092655.102500", "092655.562500", "092656.022500", "092656.482500", "092656.942500", "092657.402500", "092657.862500", "092658.322500", "092658.782500", "092659.242500", "092659.702500", "092700.162500", "092700.622500", "092701.082500", "092701.542500", "092702.002500", "092702.462500", "092702.922500", "092703.382500", "092703.842500", "092704.302500", "092704.762500", "092705.222500", "092705.682500", "092706.142500", "092706.602500", "092707.062500", "092707.522500", "092707.982500", "092708.442500", "092708.902500", "092709.362500", "092709.822500", "092710.282500", "092710.742500", "092711.202500", "092711.662500", "092712.122500", "092712.582500", "092713.042500", "092713.502500", "092713.962500", "092714.422500", "092714.882500", "092715.342500", "092715.802500", "092716.262500", "092716.722500", "092717.182500", "092717.642500", "092718.102500", "092718.562500", "092719.022500", "092719.482500", "092719.942500", "092720.402500", "092720.862500", "092721.322500", "092721.782500", "092722.242500", "092722.702500", "092723.162500", "092723.622500", "092724.082500", "092724.542500", "092725.002500", "092725.462500", "092725.922500", "092726.382500", "092726.842500", "092727.302500", "092727.762500", "092728.222500", "092728.682500", "092729.142500", "092729.602500", "092730.062500", "092730.522500", "092730.982500", "092731.442500", "092731.902500", "092732.362500", "092732.822500", "092733.282500", "092733.742500", "092734.202500", "092734.662500", "092735.122500", "092735.582500", "092736.042500", "092736.502500", "092736.962500", "092737.422500", "092737.882500", "092738.342500", "092738.802500", "092739.262500", "092739.722500", "092740.182500", "092740.642500", "092741.102500", "092741.562500", "092742.022500", "092742.482500", "092742.942500", "092743.402500", "092743.862500", "092744.322500", "092744.782500", "092745.242500", "092745.702500", "092746.162500", "092746.622500", "092747.082500", "092747.542500", "092748.002500", "092748.462500", "092748.922500", "092749.382500", "092749.842500", "092750.302500", "092750.762500", "092751.222500", "092751.682500", "092752.142500", "092752.602500", "092753.062500", "092753.522500", "092753.982500", "092754.442500", "092754.902500", "092755.362500", "092755.822500", "092756.282500", "092756.742500", "092757.202500", "092757.662500", "092758.122500", "092758.582500", "092759.042500", "092759.502500", "092759.962500", "092800.422500", "092800.882500", "092801.342500", "092801.802500", "092802.262500", "092802.722500", "092803.182500", "092803.642500", "092804.102500", "092804.562500", "092805.022500", "092805.482500", "092805.942500", "092806.402500", "092806.862500", "092807.322500", "092807.782500", "092808.242500", "092808.702500", "092809.162500", "092809.622500", "092810.082500", "092810.542500", "092811.002500", "092811.462500", "092811.922500", "092812.382500", "092812.842500", "092813.302500", "092813.762500", "092814.222500", "092814.682500", "092815.142500", "092815.602500", "092816.062500", "092816.522500", "092816.982500", "092817.442500", "092817.902500", "092818.362500", "092818.822500", "092819.282500", "092819.742500", "092820.202500", "092820.662500", "092821.122500", "092821.582500", "092822.042500", "092822.502500", "092822.962500", "092823.422500", "092823.882500", "092824.342500", "092824.802500", "092825.262500", "092825.722500", "092826.182500", "092826.642500", "092827.102500", "092827.562500", "092828.022500", "092828.482500", "092828.942500", "092829.402500", "092829.862500", "092830.322500", "092830.782500", "092831.242500", "092831.702500", "092832.162500", "092832.622500", "092833.082500", "092833.542500", "092834.002500", "092834.462500", "092834.922500", "092835.382500", "092835.842500", "092836.302500", "092836.762500", "092837.222500", "092837.682500", "092838.142500", "092838.602500", "092839.062500", "092839.522500", "092839.982500", "092840.442500", "092840.902500", "092841.362500", "092841.822500", "092842.282500", "092842.742500", "092843.202500", "092843.662500", "092844.122500", "092844.582500", "092845.042500", "092845.502500", "092845.962500", "092846.422500", "092846.882500", "092847.342500", "092847.802500", "092848.262500", "092848.722500", "092849.182500", "092849.642500", "092850.102500", "092850.562500", "092851.022500", "092851.482500", "092851.942500", "092852.402500", "092852.862500", "092853.322500", "092853.782500", "092854.242500", "092854.702500", "092855.162500", "092855.622500", "092856.082500", "092856.542500", "092857.002500", "092857.462500", "092857.922500", "092858.382500", "092858.842500", "092859.302500", "092859.762500", "092900.222500", "092900.682500", "092901.142500", "092901.602500", "092902.062500", "092902.522500", "092902.982500", "092903.442500", "092903.902500", "092904.362500", "092904.822500", "092905.282500", "092905.742500", "092906.202500", "092906.662500", "092907.122500", "092907.582500", "092908.042500", "092908.502500", "092908.962500", "092909.422500", "092909.882500", "092910.342500", "092910.802500", "092911.262500", "092911.722500", "092912.182500", "092912.642500", "092913.102500", "092913.562500", "092914.022500", "092914.482500", "092914.942500", "092915.402500", "092915.862500", "092916.322500", "092916.782500", "092917.242500", "092917.702500", "092918.162500", "092918.622500", "092919.082500", "092919.542500", "092920.002500", "092920.462500", "092920.922500", "092921.382500", "092921.842500", "092922.302500", "092922.762500", "092923.222500", "092923.682500", "092924.142500", "092924.602500", "092925.062500", "092925.522500", "092925.982500", "092926.442500", "092926.902500", "092927.362500", "092927.822500", "092928.282500", "092928.742500", "092929.202500", "092929.662500", "092930.122500", "092930.582500", "092931.042500", "092931.502500", "092931.962500", "092932.422500", "092932.882500", "092933.342500", "092933.802500", "092934.262500", "092934.722500", "092935.182500", "092935.642500", "092936.102500", "092936.562500", "092937.022500", "092937.482500", "092937.942500", "092938.402500", "092938.862500", "092939.322500", "092939.782500", "092940.242500", "092940.702500", "092941.162500", "092941.622500", "092942.082500", "092942.542500", "092943.002500", "092943.462500", "092943.922500", "092944.382500", "092944.842500", "092945.302500", "092945.762500", "092946.222500", "092946.682500", "092947.142500", "092947.602500", "092948.062500", "092948.522500", "092948.982500", "092949.442500", "092949.902500", "092950.362500", "092950.822500", "092951.282500", "092951.742500", "092952.202500", "092952.662500", "092953.122500", "092953.582500", "092954.042500", "092954.502500", "092954.962500", "092955.422500", "092955.882500", "092956.342500", "092956.802500", "092957.262500", "092957.722500", "092958.182500", "092958.642500", "092959.102500", "092959.562500", "093000.022500", "093000.482500", "093000.942500", "093001.402500", "093001.862500", "093002.322500", "093002.782500", "093003.242500", "093003.702500", "093004.162500", "093004.622500", "093005.082500", "093005.542500", "093006.002500", "093006.462500", "093006.922500", "093007.382500", "093007.842500", "093008.302500", "093008.762500", "093009.222500", "093009.682500", "093010.142500", "093010.602500", "093011.062500", "093011.522500", "093011.982500", "093012.442500", "093012.902500", "093013.362500", "093013.822500", "093014.282500", "093014.742500", "093015.202500", "093015.662500"],
