{
  "AcquisitionMatrixPE": 82,
  "AcquisitionNumber": 1,
  "AcquisitionTime": "10:01:13.265000",
  "BandwidthPerPixelPhaseEncode": 24.888,
  "BaseResolution": 82,
  "BodyPartExamined": "BRAIN",
  "ConsistencyInfo": "N4_VE11C_LATEST_20160120",
  "ConversionSoftware": "dcm2niix",
  "ConversionSoftwareVersion": "v1.0.20201102",
  "DerivedVendorReportedEchoSpacing": 0.00049,
  "DeviceSerialNumber": "66112",
  "DwellTime": 2e-06,
  "EchoTime": 0.0272,
  "EchoTrainLength": 82,
  "EffectiveEchoSpacing": 0.00049,
  "FlipAngle": 44,
  "ImageComments": "Unaliased MB8/PE3",
  "ImageOrientationPatientDICOM": [0.999145, 0.0158279, 0.0381909, -0.00732421, 0.976964, -0.213279],
  "ImageType": [
    "ORIGINAL",
    "PRIMARY",
    "M",
    "MB",
    "ND",
    "NORM",
    "MOSAIC"
],
  "ImagingFrequency": 123.252,
  "InPlanePhaseEncodingDirectionDICOM": "COL",
  "InstitutionAddress": "Maynard 3,Hanover,NH,US,03755",
  "InstitutionName": "Dartmouth College - PBS",
  "InstitutionalDepartmentName": "Department",
  "MRAcquisitionType": "2D",
  "MagneticFieldStrength": 3,
  "Manufacturer": "Siemens",
  "ManufacturersModelName": "Prisma",
  "Modality": "MR",
  "MultibandAccelerationFactor": 8,
  "PartialFourier": 1,
  "PatientPosition": "HFS",
  "PercentPhaseFOV": 100,
  "PercentSampling": 100,
  "PhaseEncodingDirection": "j-",
  "PhaseEncodingSteps": 82,
  "PhaseResolution": 1,
  "PixelBandwidth": 3050,
  "ProcedureStepDescription": "Wager_Wager^1076_spacetop",
  "ProtocolName": "func_run-01_task-faces_acq-ap-mb8",
  "PulseSequenceDetails": "%CustomerSeq%\\cmrr_mbep2d_bold",
  "ReceiveCoilActiveElements": "HEA;HEP",
  "ReceiveCoilName": "Head_32",
  "ReconMatrixPE": 82,
  "RepetitionTime": 0.46,
  "SAR": 0.109008,
  "ScanOptions": "FS",
  "ScanningSequence": "EP",
  "SequenceName": "epfid2d1_82",
  "SequenceVariant": "SK\\SS",
  "SeriesDescription": "func_run-01_task-faces_acq-ap-mb8",
  "SeriesNumber": 16,
  "ShimSetting": [4150, -7689, -7255, 567, -49, 0, -10, 77],
  "SliceThickness": 2.7,
  "SliceTiming": [0, 0.25, 0.0625, 0.3125, 0.125, 0.3775, 0.1875, 0, 0.25, 0.0625, 0.3125, 0.125, 0.3775, 0.1875, 0, 0.25, 0.0625, 0.3125, 0.125, 0.3775, 0.1875, 0, 0.25, 0.0625, 0.3125, 0.125, 0.3775, 0.1875, 0, 0.25, 0.0625, 0.3125, 0.125, 0.3775, 0.1875, 0, 0.25, 0.0625, 0.3125, 0.125, 0.3775, 0.1875, 0, 0.25, 0.0625, 0.3125, 0.125, 0.3775, 0.1875, 0, 0.25, 0.0625, 0.3125, 0.125, 0.3775, 0.1875],
  "SoftwareVersions": "syngo MR E11",
  "SpacingBetweenSlices": 2.7,
  "StationName": "AWP66112",
  "TaskName": "faces",
  "TotalReadoutTime": 0.03969,
  "TxRefAmp": 246.275,
  "WipMemBlock": "faca045b-350a-4cf1-8f16-c976c1968d11||Sequence: R016 ve11c/master r/e634e98; Dec 19 2017 11:00:25 by eja",
  "dcmmeta_affine": [
    [-2.680633306503296, -0.019650310277938843, 0.1098545491695404, 114.83248138427734],
    [-0.0424649715423584, 2.6211228370666504, -0.5746044516563416, -75.30205535888672],
    [0.10246337205171585, 0.5722106695175171, 2.6358606815338135, -71.75321960449219],
    [0.0, 0.0, 0.0, 1.0]
],
  "dcmmeta_reorient_transform": [
    [0.0, -1.0, 0.0, 81.0],
    [1.0, 0.0, 0.0, 0.0],
    [0.0, 0.0, 1.0, 0.0],
    [0.0, 0.0, 0.0, 1.0]
],
  "dcmmeta_shape": [82, 82, 56, 914],
  "dcmmeta_slice_dim": 2,
  "dcmmeta_version": 0.6,
  "global": {
    "const": {
      "AccessionNumber": "A003470",
      "AcquisitionMatrix": [82, 0, 0, 82],
      "AngioFlag": "N",
      "BitsAllocated": 16,
      "BitsStored": 16,
      "BodyPartExamined": "BRAIN",
      "Columns": 656,
      "EchoNumbers": 1,
      "EchoTime": 27.2,
      "EchoTrainLength": 82,
      "FlipAngle": 44.0,
      "HighBit": 15,
      "ImageOrientationPatient": [0.9991451019516, 0.01582785248135, 0.03819089331194, -0.0073242062483, 0.97696398631119, -0.2132785161562],
      "ImagePositionPatient": [-876.94291767986, -901.45863492651, 109.41331630522],
      "ImageType": [
        "ORIGINAL",
        "PRIMARY",
        "M",
        "MB",
        "ND",
        "NORM",
        "MOSAIC"
],
      "ImagedNucleus": "1H",
      "ImagingFrequency": 123.252169,
      "InPlanePhaseEncodingDirection": "COL",
      "MRAcquisitionType": "2D",
      "MagneticFieldStrength": 3.0,
      "Manufacturer": "SIEMENS",
      "ManufacturerModelName": "Prisma",
      "Modality": "MR",
      "NumberOfAverages": 1.0,
      "NumberOfPhaseEncodingSteps": 82,
      "PercentPhaseFieldOfView": 100.0,
      "PercentSampling": 100.0,
      "PerformedProcedureStepStartTime": "090551.290000",
      "PhotometricInterpretation": "MONOCHROME2",
      "PixelBandwidth": 3050.0,
      "PixelRepresentation": 0,
      "PixelSpacing": [2.6829268932343, 2.6829268932343],
      "ProtocolName": "func_run-01_task-faces_acq-ap-mb8",
      "RepetitionTime": 460.0,
      "Rows": 656,
      "SAR": 0.10900804105612,
      "SamplesPerPixel": 1,
      "ScanOptions": "FS",
      "ScanningSequence": "EP",
      "SequenceName": "epfid2d1_82",
      "SequenceVariant": [
        "SK",
        "SS"
],
      "SeriesDescription": "func_run-01_task-faces_acq-ap-mb8",
      "SeriesNumber": 16,
      "SeriesTime": "100139.289000",
      "SliceLocation": -49.351009631627,
      "SliceThickness": 2.7000000476837,
      "SmallestImagePixelValue": 0,
      "SoftwareVersions": "syngo MR E11",
      "SpacingBetweenSlices": 2.7000000727135,
      "SpecificCharacterSet": "ISO_IR 100",
      "StudyID": "3",
      "StudyTime": "090551.246000",
      "TransmitCoilName": "Body",
      "VariableFlipAngleFlag": "N",
      "WindowCenterWidthExplanation": "Algo1",
      "dBdt": 0.0},
    "slices": {}
  },
  "time": {
    "samples": {
      "AcquisitionNumber": [1, 2, 3, 4, 5, 6, 7, 8, 9, 10, 11, 12, 13, 14, 15, 16, 17, 18, 19, 20, 21, 22, 23, 24, 25, 26, 27, 28, 29, 30, 31, 32, 33, 34, 35, 36, 37, 38, 39, 40, 41, 42, 43, 44, 45, 46, 47, 48, 49, 50, 51, 52, 53, 54, 55, 56, 57, 58, 59, 60, 61, 62, 63, 64, 65, 66, 67, 68, 69, 70, 71, 72, 73, 74, 75, 76, 77, 78, 79, 80, 81, 82, 83, 84, 85, 86, 87, 88, 89, 90, 91, 92, 93, 94, 95, 96, 97, 98, 99, 100, 101, 102, 103, 104, 105, 106, 107, 108, 109, 110, 111, 112, 113, 114, 115, 116, 117, 118, 119, 120, 121, 122, 123, 124, 125, 126, 127, 128, 129, 130, 131, 132, 133, 134, 135, 136, 137, 138, 139, 140, 141, 142, 143, 144, 145, 146, 147, 148, 149, 150, 151, 152, 153, 154, 155, 156, 157, 158, 159, 160, 161, 162, 163, 164, 165, 166, 167, 168, 169, 170, 171, 172, 173, 174, 175, 176, 177, 178, 179, 180, 181, 182, 183, 184, 185, 186, 187, 188, 189, 190, 191, 192, 193, 194, 195, 196, 197, 198, 199, 200, 201, 202, 203, 204, 205, 206, 207, 208, 209, 210, 211, 212, 213, 214, 215, 216, 217, 218, 219, 220, 221, 222, 223, 224, 225, 226, 227, 228, 229, 230, 231, 232, 233, 234, 235, 236, 237, 238, 239, 240, 241, 242, 243, 244, 245, 246, 247, 248, 249, 250, 251, 252, 253, 254, 255, 256, 257, 258, 259, 260, 261, 262, 263, 264, 265, 266, 267, 268, 269, 270, 271, 272, 273, 274, 275, 276, 277, 278, 279, 280, 281, 282, 283, 284, 285, 286, 287, 288, 289, 290, 291, 292, 293, 294, 295, 296, 297, 298, 299, 300, 301, 302, 303, 304, 305, 306, 307, 308, 309, 310, 311, 312, 313, 314, 315, 316, 317, 318, 319, 320, 321, 322, 323, 324, 325, 326, 327, 328, 329, 330, 331, 332, 333, 334, 335, 336, 337, 338, 339, 340, 341, 342, 343, 344, 345, 346, 347, 348, 349, 350, 351, 352, 353, 354, 355, 356, 357, 358, 359, 360, 361, 362, 363, 364, 365, 366, 367, 368, 369, 370, 371, 372, 373, 374, 375, 376, 377, 378, 379, 380, 381, 382, 383, 384, 385, 386, 387, 388, 389, 390, 391, 392, 393, 394, 395, 396, 397, 398, 399, 400, 401, 402, 403, 404, 405, 406, 407, 408, 409, 410, 411, 412, 413, 414, 415, 416, 417, 418, 419, 420, 421, 422, 423, 424, 425, 426, 427, 428, 429, 430, 431, 432, 433, 434, 435, 436, 437, 438, 439, 440, 441, 442, 443, 444, 445, 446, 447, 448, 449, 450, 451, 452, 453, 454, 455, 456, 457, 458, 459, 460, 461, 462, 463, 464, 465, 466, 467, 468, 469, 470, 471, 472, 473, 474, 475, 476, 477, 478, 479, 480, 481, 482, 483, 484, 485, 486, 487, 488, 489, 490, 491, 492, 493, 494, 495, 496, 497, 498, 499, 500, 501, 502, 503, 504, 505, 506, 507, 508, 509, 510, 511, 512, 513, 514, 515, 516, 517, 518, 519, 520, 521, 522, 523, 524, 525, 526, 527, 528, 529, 530, 531, 532, 533, 534, 535, 536, 537, 538, 539, 540, 541, 542, 543, 544, 545, 546, 547, 548, 549, 550, 551, 552, 553, 554, 555, 556, 557, 558, 559, 560, 561, 562, 563, 564, 565, 566, 567, 568, 569, 570, 571, 572, 573, 574, 575, 576, 577, 578, 579, 580, 581, 582, 583, 584, 585, 586, 587, 588, 589, 590, 591, 592, 593, 594, 595, 596, 597, 598, 599, 600, 601, 602, 603, 604, 605, 606, 607, 608, 609, 610, 611, 612, 613, 614, 615, 616, 617, 618, 619, 620, 621, 622, 623, 624, 625, 626, 627, 628, 629, 630, 631, 632, 633, 634, 635, 636, 637, 638, 639, 640, 641, 642, 643, 644, 645, 646, 647, 648, 649, 650, 651, 652, 653, 654, 655, 656, 657, 658, 659, 660, 661, 662, 663, 664, 665, 666, 667, 668, 669, 670, 671, 672, 673, 674, 675, 676, 677, 678, 679, 680, 681, 682, 683, 684, 685, 686, 687, 688, 689, 690, 691, 692, 693, 694, 695, 696, 697, 698, 699, 700, 701, 702, 703, 704, 705, 706, 707, 708, 709, 710, 711, 712, 713, 714, 715, 716, 717, 718, 719, 720, 721, 722, 723, 724, 725, 726, 727, 728, 729, 730, 731, 732, 733, 734, 735, 736, 737, 738, 739, 740, 741, 742, 743, 744, 745, 746, 747, 748, 749, 750, 751, 752, 753, 754, 755, 756, 757, 758, 759, 760, 761, 762, 763, 764, 765, 766, 767, 768, 769, 770, 771, 772, 773, 774, 775, 776, 777, 778, 779, 780, 781, 782, 783, 784, 785, 786, 787, 788, 789, 790, 791, 792, 793, 794, 795, 796, 797, 798, 799, 800, 801, 802, 803, 804, 805, 806, 807, 808, 809, 810, 811, 812, 813, 814, 815, 816, 817, 818, 819, 820, 821, 822, 823, 824, 825, 826, 827, 828, 829, 830, 831, 832, 833, 834, 835, 836, 837, 838, 839, 840, 841, 842, 843, 844, 845, 846, 847, 848, 849, 850, 851, 852, 853, 854, 855, 856, 857, 858, 859, 860, 861, 862, 863, 864, 865, 866, 867, 868, 869, 870, 871, 872, 873, 874, 875, 876, 877, 878, 879, 880, 881, 882, 883, 884, 885, 886, 887, 888, 889, 890, 891, 892, 893, 894, 895, 896, 897, 898, 899, 900, 901, 902, 903, 904, 905, 906, 907, 908, 909, 910, 911, 912, 913, 914],
      "AcquisitionTime": ["100113.265000", "100113.725000", "100114.185000", "100114.645000", "100115.105000", "100115.565000", "100116.025000", "100116.485000", "100116.945000", "100117.405000", "100117.865000", "100118.325000", "100118.785000", "100119.245000", "100119.705000", "100120.165000", "100120.625000", "100121.085000", "100121.545000", "100122.005000", "100122.465000", "100122.925000", "100123.385000", "100123.845000", "100124.305000", "100124.765000", "100125.225000", "100125.685000", "100126.145000", "100126.605000", "100127.065000", "100127.525000", "100127.985000", "100128.445000", "100128.905000", "100129.365000", "100129.825000", "100130.285000", "100130.745000", "100131.205000", "100131.665000", "100132.125000", "100132.585000", "100133.045000", "100133.505000", "100133.965000", "100134.425000", "100134.885000", "100135.345000", "100135.805000", "100136.265000", "100136.725000", "100137.185000", "100137.645000", "100138.105000", "100138.565000", "100139.025000", "100139.485000", "100139.945000", "100140.405000", "100140.865000", "100141.325000", "100141.785000", "100142.245000", "100142.705000", "100143.165000", "100143.625000", "100144.085000", "100144.545000", "100145.005000", "100145.465000", "100145.925000", "100146.385000", "100146.845000", "100147.305000", "100147.765000", "100148.225000", "100148.685000", "100149.145000", "100149.605000", "100150.065000", "100150.525000", "100150.985000", "100151.445000", "100151.905000", "100152.365000", "100152.825000", "100153.285000", "100153.745000", "100154.205000", "100154.665000", "100155.125000", "100155.585000", "100156.045000", "100156.505000", "100156.965000", "100157.425000", "100157.885000", "100158.345000", "100158.805000", "100159.265000", "100159.725000", "100200.185000", "100200.645000", "100201.105000", "100201.565000", "100202.025000", "100202.485000", "100202.945000", "100203.405000", "100203.865000", "100204.325000", "100204.785000", "100205.245000", "100205.705000", "100206.165000", "100206.625000", "100207.085000", "100207.545000", "100208.005000", "100208.465000", "100208.925000", "100209.385000", "100209.845000", "100210.305000", "100210.765000", "100211.225000", "100211.685000", "100212.145000", "100212.605000", "100213.065000", "100213.525000", "100213.985000", "100214.445000", "100214.905000", "100215.365000", "100215.825000", "100216.285000", "100216.745000", "100217.205000", "100217.665000", "100218.125000", "100218.585000", "100219.045000", "100219.505000", "100219.965000", "100220.425000", "100220.885000", "100221.345000", "100221.805000", "100222.265000", "100222.725000", "100223.185000", "100223.645000", "100224.105000", "100224.565000", "100225.025000", "100225.485000", "100225.945000", "100226.405000", "100226.865000", "100227.325000", "100227.785000", "100228.245000", "100228.705000", "100229.165000", "100229.625000", "100230.085000", "100230.545000", "100231.005000", "100231.465000", "100231.925000", "100232.385000", "100232.845000", "100233.305000", "100233.765000", "100234.225000", "100234.685000", "100235.145000", "100235.605000", "100236.065000", "100236.525000", "100236.985000", "100237.445000", "100237.905000", "100238.365000", "100238.825000", "100239.285000", "100239.745000", "100240.205000", "100240.665000", "100241.125000", "100241.585000", "100242.045000", "100242.505000", "100242.965000", "100243.425000", "100243.885000", "100244.345000", "100244.805000", "100245.265000", "100245.725000", "100246.185000", "100246.645000", "100247.105000", "100247.565000", "100248.025000", "100248.485000", "100248.945000", "100249.405000", "100249.865000", "100250.325000", "100250.785000", "100251.245000", "100251.705000", "100252.165000", "100252.625000", "100253.085000", "100253.545000", "100254.005000", "100254.465000", "100254.925000", "100255.385000", "100255.845000", "100256.305000", "100256.765000", "100257.225000", "100257.685000", "100258.145000", "100258.605000", "100259.065000", "100259.525000", "100259.985000", "100300.445000", "100300.905000", "100301.365000", "100301.825000", "100302.285000", "100302.745000", "100303.205000", "100303.665000", "100304.125000", "100304.585000", "100305.045000", "100305.505000", "100305.965000", "100306.425000", "100306.885000", "100307.345000", "100307.805000", "100308.265000", "100308.725000", "100309.185000", "100309.645000", "100310.105000", "100310.565000", "100311.025000", "100311.485000", "100311.945000", "100312.405000", "100312.865000", "100313.325000", "100313.785000", "100314.245000", "100314.705000", "100315.165000", "100315.625000", "100316.085000", "100316.545000", "100317.005000", "100317.465000", "100317.925000", "100318.385000", "100318.845000", "100319.305000", "100319.765000", "100320.225000", "100320.685000", "100321.145000", "100321.605000", "100322.065000", "100322.525000", "100322.985000", "100323.445000", "100323.905000", "100324.365000", "100324.825000", "100325.285000", "100325.745000", "100326.205000", "100326.665000", "100327.125000", "100327.585000", "100328.045000", "100328.505000", "100328.965000", "100329.425000", "100329.885000", "100330.345000", "100330.805000", "100331.265000", "100331.725000", "100332.185000", "100332.645000", "100333.105000", "100333.565000", "100334.025000", "100334.485000", "100334.945000", "100335.405000", "100335.865000", "100336.325000", "100336.785000", "100337.245000", "100337.705000", "100338.165000", "100338.625000", "100339.085000", "100339.545000", "100340.005000", "100340.465000", "100340.925000", "100341.385000", "100341.845000", "100342.305000", "100342.765000", "100343.225000", "100343.685000", "100344.145000", "100344.605000", "100345.065000", "100345.525000", "100345.985000", "100346.445000", "100346.905000", "100347.365000", "100347.825000", "100348.285000", "100348.745000", "100349.205000", "100349.665000", "100350.125000", "100350.585000", "100351.045000", "100351.505000", "100351.965000", "100352.425000", "100352.885000", "100353.345000", "100353.805000", "100354.265000", "100354.725000", "100355.185000", "100355.645000", "100356.105000", "100356.565000", "100357.025000", "100357.485000", "100357.945000", "100358.405000", "100358.865000", "100359.325000", "100359.785000", "100400.245000", "100400.705000", "100401.165000", "100401.625000", "100402.085000", "100402.545000", "100403.005000", "100403.465000", "100403.925000", "100404.385000", "100404.845000", "100405.305000", "100405.765000", "100406.225000", "100406.685000", "100407.145000", "100407.605000", "100408.065000", "100408.525000", "100408.985000", "100409.445000", "100409.905000", "100410.365000", "100410.825000", "100411.285000", "100411.745000", "100412.205000", "100412.665000", "100413.125000", "100413.585000", "100414.045000", "100414.505000", "100414.965000", "100415.425000", "100415.885000", "100416.345000", "100416.805000", "100417.265000", "100417.725000", "100418.185000", "100418.645000", "100419.105000", "100419.565000", "100420.025000", "100420.485000", "100420.945000", "100421.405000", "100421.865000", "100422.325000", "100422.785000", "100423.245000", "100423.705000", "100424.165000", "100424.625000", "100425.085000", "100425.545000", "100426.005000", "100426.465000", "100426.925000", "100427.385000", "100427.845000", "100428.305000", "100428.765000", "100429.225000", "100429.685000", "100430.145000", "100430.605000", "100431.065000", "100431.525000", "100431.985000", "100432.445000", "100432.905000", "100433.365000", "100433.825000", "100434.285000", "100434.745000", "100435.205000", "100435.665000", "100436.125000", "100436.585000", "100437.045000", "100437.505000", "100437.965000", "100438.425000", "100438.885000", "100439.345000", "100439.805000", "100440.265000", "100440.725000", "100441.185000", "100441.645000", "100442.105000", "100442.565000", "100443.025000", "100443.485000", "100443.945000", "100444.405000", "100444.865000", "100445.325000", "100445.785000", "100446.245000", "100446.705000", "100447.165000", "100447.625000", "100448.085000", "100448.545000", "100449.005000", "100449.465000", "100449.925000", "100450.385000", "100450.845000", "100451.305000", "100451.765000", "100452.225000", "100452.685000", "100453.145000", "100453.605000", "100454.065000", "100454.525000", "100454.985000", "100455.445000", "100455.905000", "100456.365000", "100456.825000", "100457.285000", "100457.745000", "100458.205000", "100458.665000", "100459.125000", "100459.585000", "100500.045000", "100500.505000", "100500.965000", "100501.425000", "100501.885000", "100502.345000", "100502.805000", "100503.265000", "100503.725000", "100504.185000", "100504.645000", "100505.105000", "100505.565000", "100506.025000", "100506.485000", "100506.945000", "100507.405000", "100507.865000", "100508.325000", "100508.785000", "100509.245000", "100509.705000", "100510.165000", "100510.625000", "100511.085000", "100511.545000", "100512.005000", "100512.465000", "100512.925000", "100513.385000", "100513.845000", "100514.305000", "100514.765000", "100515.225000", "100515.685000", "100516.145000", "100516.605000", "100517.065000", "100517.525000", "100517.985000", "100518.445000", "100518.905000", "100519.365000", "100519.825000", "100520.285000", "100520.745000", "100521.205000", "100521.665000", "100522.125000", "100522.585000", "100523.045000", "100523.505000", "100523.965000", "100524.425000", "100524.885000", "100525.345000", "100525.805000", "100526.265000", "100526.725000", "100527.185000", "100527.645000", "100528.105000", "100528.565000", "100529.025000", "100529.485000", "100529.945000", "100530.405000", "100530.865000", "100531.325000", "100531.785000", "100532.245000", "100532.705000", "100533.165000", "100533.625000", "100534.085000", "100534.545000", "100535.005000", "100535.465000", "100535.925000", "100536.385000", "100536.845000", "100537.305000", "100537.765000", "100538.225000", "100538.685000", "100539.145000", "100539.605000", "100540.065000", "100540.525000", "100540.985000", "100541.445000", "100541.905000", "100542.365000", "100542.825000", "100543.285000", "100543.745000", "100544.205000", "100544.665000", "100545.125000", "100545.585000", "100546.045000", "100546.505000", "100546.965000", "100547.425000", "100547.885000", "100548.345000", "100548.805000", "100549.265000", "100549.725000", "100550.185000", "100550.645000", "100551.105000", "100551.565000", "100552.025000", "100552.485000", "100552.945000", "100553.405000", "100553.865000", "100554.325000", "100554.785000", "100555.245000", "100555.705000", "100556.165000", "100556.625000", "100557.085000", "100557.545000", "100558.005000", "100558.465000", "100558.925000", "100559.385000", "100559.845000", "100600.305000", "100600.765000", "100601.225000", "100601.685000", "100602.145000", "100602.605000", "100603.065000", "100603.525000", "100603.985000", "100604.445000", "100604.905000", "100605.365000", "100605.825000", "100606.285000", "100606.745000", "100607.205000", "100607.665000", "100608.125000", "100608.585000", "100609.045000", "100609.505000", "100609.965000", "100610.425000", "100610.885000", "100611.345000", "100611.805000", "100612.265000", "100612.725000", "100613.185000", "100613.645000", "100614.105000", "100614.565000", "100615.025000", "100615.485000", "100615.945000", "100616.405000", "100616.865000", "100617.325000", "100617.785000", "100618.245000", "100618.705000", "100619.165000", "100619.625000", "100620.085000", "100620.545000", "100621.005000", "100621.465000", "100621.925000", "100622.385000", "100622.845000", "100623.305000", "100623.765000", "100624.225000", "100624.685000", "100625.145000", "100625.605000", "100626.065000", "100626.525000", "100626.985000", "100627.445000", "100627.905000", "100628.365000", "100628.825000", "100629.285000", "100629.745000", "100630.205000", "100630.665000", "100631.125000", "100631.585000", "100632.045000", "100632.505000", "100632.965000", "100633.425000", "100633.885000", "100634.345000", "100634.805000", "100635.265000", "100635.725000", "100636.185000", "100636.645000", "100637.105000", "100637.565000", "100638.025000", "100638.485000", "100638.945000", "100639.405000", "100639.865000", "100640.325000", "100640.785000", "100641.245000", "100641.705000", "100642.165000", "100642.625000", "100643.085000", "100643.545000", "100644.005000", "100644.465000", "100644.925000", "100645.385000", "100645.845000", "100646.305000", "100646.765000", "100647.225000", "100647.685000", "100648.145000", "100648.605000", "100649.065000", "100649.525000", "100649.985000", "100650.445000", "100650.905000", "100651.365000", "100651.825000", "100652.285000", "100652.745000", "100653.205000", "100653.665000", "100654.125000", "100654.585000", "100655.045000", "100655.505000", "100655.965000", "100656.425000", "100656.885000", "100657.345000", "100657.805000", "100658.265000", "100658.725000", "100659.185000", "100659.645000", "100700.105000", "100700.565000", "100701.025000", "100701.485000", "100701.945000", "100702.405000", "100702.865000", "100703.325000", "100703.785000", "100704.245000", "100704.705000", "100705.165000", "100705.625000", "100706.085000", "100706.545000", "100707.005000", "100707.465000", "100707.925000", "100708.385000", "100708.845000", "100709.305000", "100709.765000", "100710.225000", "100710.685000", "100711.145000", "100711.605000", "100712.065000", "100712.525000", "100712.985000", "100713.445000", "100713.905000", "100714.365000", "100714.825000", "100715.285000", "100715.745000", "100716.205000", "100716.665000", "100717.125000", "100717.585000", "100718.045000", "100718.505000", "100718.965000", "100719.425000", "100719.885000", "100720.345000", "100720.805000", "100721.265000", "100721.725000", "100722.185000", "100722.645000", "100723.105000", "100723.565000", "100724.025000", "100724.485000", "100724.945000", "100725.405000", "100725.865000", "100726.325000", "100726.785000", "100727.245000", "100727.705000", "100728.165000", "100728.625000", "100729.085000", "100729.545000", "100730.005000", "100730.465000", "100730.925000", "100731.385000", "100731.845000", "100732.305000", "100732.765000", "100733.225000", "100733.685000", "100734.145000", "100734.605000", "100735.065000", "100735.525000", "100735.985000", "100736.445000", "100736.905000", "100737.365000", "100737.825000", "100738.285000", "100738.745000", "100739.205000", "100739.665000", "100740.125000", "100740.585000", "100741.045000", "100741.505000", "100741.965000", "100742.425000", "100742.885000", "100743.345000", "100743.805000", "100744.265000", "100744.725000", "100745.185000", "100745.645000", "100746.105000", "100746.565000", "100747.025000", "100747.485000", "100747.945000", "100748.405000", "100748.865000", "100749.325000", "100749.785000", "100750.245000", "100750.705000", "100751.165000", "100751.625000", "100752.085000", "100752.545000", "100753.005000", "100753.465000", "100753.925000", "100754.385000", "100754.845000", "100755.305000", "100755.765000", "100756.225000", "100756.685000", "100757.145000", "100757.605000", "100758.065000", "100758.525000", "100758.985000", "100759.445000", "100759.905000", "100800.365000", "100800.825000", "100801.285000", "100801.745000", "100802.205000", "100802.665000", "100803.125000", "100803.585000", "100804.045000", "100804.505000", "100804.965000", "100805.425000", "100805.885000", "100806.345000", "100806.805000", "100807.265000", "100807.725000", "100808.185000", "100808.645000", "100809.105000", "100809.565000", "100810.025000", "100810.485000", "100810.945000", "100811.405000", "100811.865000", "100812.325000", "100812.785000", "100813.245000"],
