{
  "AcquisitionMatrixPE": 82,
  "AcquisitionNumber": 1,
  "AcquisitionTime": "10:09:42.872500",
  "BandwidthPerPixelPhaseEncode": 24.888,
  "BaseResolution": 82,
  "BodyPartExamined": "BRAIN",
  "ConsistencyInfo": "N4_VE11C_LATEST_20160120",
  "ConversionSoftware": "dcm2niix",
  "ConversionSoftwareVersion": "v1.0.20201102",
  "DerivedVendorReportedEchoSpacing": 0.00049,
  "DeviceSerialNumber": "66112",
  "DwellTime": 2e-06,
  "EchoTime": 0.0272,
  "EchoTrainLength": 82,
  "EffectiveEchoSpacing": 0.00049,
  "FlipAngle": 44,
  "ImageComments": "Unaliased MB8/PE3",
  "ImageOrientationPatientDICOM": [0.999145, 0.0158279, 0.0381909, -0.00732421, 0.976964, -0.213279],
  "ImageType": [
    "ORIGINAL",
    "PRIMARY",
    "M",
    "MB",
    "ND",
    "NORM",
    "MOSAIC"
],
  "ImagingFrequency": 123.252,
  "InPlanePhaseEncodingDirectionDICOM": "COL",
  "InstitutionAddress": "Maynard 3,Hanover,NH,US,03755",
  "InstitutionName": "Dartmouth College - PBS",
  "InstitutionalDepartmentName": "Department",
  "MRAcquisitionType": "2D",
  "MagneticFieldStrength": 3,
  "Manufacturer": "Siemens",
  "ManufacturersModelName": "Prisma",
  "Modality": "MR",
  "MultibandAccelerationFactor": 8,
  "PartialFourier": 1,
  "PatientPosition": "HFS",
  "PercentPhaseFOV": 100,
  "PercentSampling": 100,
  "PhaseEncodingDirection": "j-",
  "PhaseEncodingSteps": 82,
  "PhaseResolution": 1,
  "PixelBandwidth": 3050,
  "ProcedureStepDescription": "Wager_Wager^1076_spacetop",
  "ProtocolName": "func_run-02_task-faces_acq-ap-mb8",
  "PulseSequenceDetails": "%CustomerSeq%\\cmrr_mbep2d_bold",
  "ReceiveCoilActiveElements": "HEA;HEP",
  "ReceiveCoilName": "Head_32",
  "ReconMatrixPE": 82,
  "RepetitionTime": 0.46,
  "SAR": 0.109008,
  "ScanOptions": "FS",
  "ScanningSequence": "EP",
  "SequenceName": "epfid2d1_82",
  "SequenceVariant": "SK\\SS",
  "SeriesDescription": "func_run-02_task-faces_acq-ap-mb8",
  "SeriesNumber": 18,
  "ShimSetting": [4150, -7689, -7255, 567, -49, 0, -10, 77],
  "SliceThickness": 2.7,
  "SliceTiming": [0, 0.25, 0.0625, 0.3125, 0.125, 0.375, 0.1875, 0, 0.25, 0.0625, 0.3125, 0.125, 0.375, 0.1875, 0, 0.25, 0.0625, 0.3125, 0.125, 0.375, 0.1875, 0, 0.25, 0.0625, 0.3125, 0.125, 0.375, 0.1875, 0, 0.25, 0.0625, 0.3125, 0.125, 0.375, 0.1875, 0, 0.25, 0.0625, 0.3125, 0.125, 0.375, 0.1875, 0, 0.25, 0.0625, 0.3125, 0.125, 0.375, 0.1875, 0, 0.25, 0.0625, 0.3125, 0.125, 0.375, 0.1875],
  "SoftwareVersions": "syngo MR E11",
  "SpacingBetweenSlices": 2.7,
  "StationName": "AWP66112",
  "TaskName": "faces",
  "TotalReadoutTime": 0.03969,
  "TxRefAmp": 246.275,
  "WipMemBlock": "d571dc74-c4c1-4abb-8c1b-eb5b18992eb7||Sequence: R016 ve11c/master r/e634e98; Dec 19 2017 11:00:25 by eja",
  "dcmmeta_affine": [
    [-2.680633306503296, -0.019650310277938843, 0.1098545491695404, 114.83248138427734],
    [-0.0424649715423584, 2.6211228370666504, -0.5746044516563416, -75.30205535888672],
    [0.10246337205171585, 0.5722106695175171, 2.6358606815338135, -71.75321960449219],
    [0.0, 0.0, 0.0, 1.0]
],
  "dcmmeta_reorient_transform": [
    [0.0, -1.0, 0.0, 81.0],
    [1.0, 0.0, 0.0, 0.0],
    [0.0, 0.0, 1.0, 0.0],
    [0.0, 0.0, 0.0, 1.0]
],
  "dcmmeta_shape": [82, 82, 56, 914],
  "dcmmeta_slice_dim": 2,
  "dcmmeta_version": 0.6,
  "global": {
    "const": {
      "AccessionNumber": "A003470",
      "AcquisitionMatrix": [82, 0, 0, 82],
      "AngioFlag": "N",
      "BitsAllocated": 16,
      "BitsStored": 16,
      "BodyPartExamined": "BRAIN",
      "Columns": 656,
      "EchoNumbers": 1,
      "EchoTime": 27.2,
      "EchoTrainLength": 82,
      "FlipAngle": 44.0,
      "HighBit": 15,
      "ImageOrientationPatient": [0.9991451019516, 0.01582785248135, 0.03819089331194, -0.0073242062483, 0.97696398631119, -0.2132785161562],
      "ImagePositionPatient": [-876.94291767986, -901.45863492651, 109.41331630522],
      "ImageType": [
        "ORIGINAL",
        "PRIMARY",
        "M",
        "MB",
        "ND",
        "NORM",
        "MOSAIC"
],
      "ImagedNucleus": "1H",
      "ImagingFrequency": 123.252173,
      "InPlanePhaseEncodingDirection": "COL",
      "MRAcquisitionType": "2D",
      "MagneticFieldStrength": 3.0,
      "Manufacturer": "SIEMENS",
      "ManufacturerModelName": "Prisma",
      "Modality": "MR",
      "NumberOfAverages": 1.0,
      "NumberOfPhaseEncodingSteps": 82,
      "PercentPhaseFieldOfView": 100.0,
      "PercentSampling": 100.0,
      "PerformedProcedureStepStartTime": "090551.290000",
      "PhotometricInterpretation": "MONOCHROME2",
      "PixelBandwidth": 3050.0,
      "PixelRepresentation": 0,
      "PixelSpacing": [2.6829268932343, 2.6829268932343],
      "ProtocolName": "func_run-02_task-faces_acq-ap-mb8",
      "RepetitionTime": 460.0,
      "Rows": 656,
      "SAR": 0.10900804105612,
      "SamplesPerPixel": 1,
      "ScanOptions": "FS",
      "ScanningSequence": "EP",
      "SequenceName": "epfid2d1_82",
      "SequenceVariant": [
        "SK",
        "SS"
],
      "SeriesDescription": "func_run-02_task-faces_acq-ap-mb8",
      "SeriesNumber": 18,
      "SeriesTime": "100959.146000",
      "SliceLocation": -49.351009631627,
      "SliceThickness": 2.7000000476837,
      "SmallestImagePixelValue": 0,
      "SoftwareVersions": "syngo MR E11",
      "SpacingBetweenSlices": 2.7000000727135,
      "SpecificCharacterSet": "ISO_IR 100",
      "StudyID": "3",
      "StudyTime": "090551.246000",
      "TransmitCoilName": "Body",
      "VariableFlipAngleFlag": "N",
      "WindowCenterWidthExplanation": "Algo1",
      "dBdt": 0.0},
    "slices": {}
  },
  "time": {
    "samples": {
      "AcquisitionNumber": [1, 2, 3, 4, 5, 6, 7, 8, 9, 10, 11, 12, 13, 14, 15, 16, 17, 18, 19, 20, 21, 22, 23, 24, 25, 26, 27, 28, 29, 30, 31, 32, 33, 34, 35, 36, 37, 38, 39, 40, 41, 42, 43, 44, 45, 46, 47, 48, 49, 50, 51, 52, 53, 54, 55, 56, 57, 58, 59, 60, 61, 62, 63, 64, 65, 66, 67, 68, 69, 70, 71, 72, 73, 74, 75, 76, 77, 78, 79, 80, 81, 82, 83, 84, 85, 86, 87, 88, 89, 90, 91, 92, 93, 94, 95, 96, 97, 98, 99, 100, 101, 102, 103, 104, 105, 106, 107, 108, 109, 110, 111, 112, 113, 114, 115, 116, 117, 118, 119, 120, 121, 122, 123, 124, 125, 126, 127, 128, 129, 130, 131, 132, 133, 134, 135, 136, 137, 138, 139, 140, 141, 142, 143, 144, 145, 146, 147, 148, 149, 150, 151, 152, 153, 154, 155, 156, 157, 158, 159, 160, 161, 162, 163, 164, 165, 166, 167, 168, 169, 170, 171, 172, 173, 174, 175, 176, 177, 178, 179, 180, 181, 182, 183, 184, 185, 186, 187, 188, 189, 190, 191, 192, 193, 194, 195, 196, 197, 198, 199, 200, 201, 202, 203, 204, 205, 206, 207, 208, 209, 210, 211, 212, 213, 214, 215, 216, 217, 218, 219, 220, 221, 222, 223, 224, 225, 226, 227, 228, 229, 230, 231, 232, 233, 234, 235, 236, 237, 238, 239, 240, 241, 242, 243, 244, 245, 246, 247, 248, 249, 250, 251, 252, 253, 254, 255, 256, 257, 258, 259, 260, 261, 262, 263, 264, 265, 266, 267, 268, 269, 270, 271, 272, 273, 274, 275, 276, 277, 278, 279, 280, 281, 282, 283, 284, 285, 286, 287, 288, 289, 290, 291, 292, 293, 294, 295, 296, 297, 298, 299, 300, 301, 302, 303, 304, 305, 306, 307, 308, 309, 310, 311, 312, 313, 314, 315, 316, 317, 318, 319, 320, 321, 322, 323, 324, 325, 326, 327, 328, 329, 330, 331, 332, 333, 334, 335, 336, 337, 338, 339, 340, 341, 342, 343, 344, 345, 346, 347, 348, 349, 350, 351, 352, 353, 354, 355, 356, 357, 358, 359, 360, 361, 362, 363, 364, 365, 366, 367, 368, 369, 370, 371, 372, 373, 374, 375, 376, 377, 378, 379, 380, 381, 382, 383, 384, 385, 386, 387, 388, 389, 390, 391, 392, 393, 394, 395, 396, 397, 398, 399, 400, 401, 402, 403, 404, 405, 406, 407, 408, 409, 410, 411, 412, 413, 414, 415, 416, 417, 418, 419, 420, 421, 422, 423, 424, 425, 426, 427, 428, 429, 430, 431, 432, 433, 434, 435, 436, 437, 438, 439, 440, 441, 442, 443, 444, 445, 446, 447, 448, 449, 450, 451, 452, 453, 454, 455, 456, 457, 458, 459, 460, 461, 462, 463, 464, 465, 466, 467, 468, 469, 470, 471, 472, 473, 474, 475, 476, 477, 478, 479, 480, 481, 482, 483, 484, 485, 486, 487, 488, 489, 490, 491, 492, 493, 494, 495, 496, 497, 498, 499, 500, 501, 502, 503, 504, 505, 506, 507, 508, 509, 510, 511, 512, 513, 514, 515, 516, 517, 518, 519, 520, 521, 522, 523, 524, 525, 526, 527, 528, 529, 530, 531, 532, 533, 534, 535, 536, 537, 538, 539, 540, 541, 542, 543, 544, 545, 546, 547, 548, 549, 550, 551, 552, 553, 554, 555, 556, 557, 558, 559, 560, 561, 562, 563, 564, 565, 566, 567, 568, 569, 570, 571, 572, 573, 574, 575, 576, 577, 578, 579, 580, 581, 582, 583, 584, 585, 586, 587, 588, 589, 590, 591, 592, 593, 594, 595, 596, 597, 598, 599, 600, 601, 602, 603, 604, 605, 606, 607, 608, 609, 610, 611, 612, 613, 614, 615, 616, 617, 618, 619, 620, 621, 622, 623, 624, 625, 626, 627, 628, 629, 630, 631, 632, 633, 634, 635, 636, 637, 638, 639, 640, 641, 642, 643, 644, 645, 646, 647, 648, 649, 650, 651, 652, 653, 654, 655, 656, 657, 658, 659, 660, 661, 662, 663, 664, 665, 666, 667, 668, 669, 670, 671, 672, 673, 674, 675, 676, 677, 678, 679, 680, 681, 682, 683, 684, 685, 686, 687, 688, 689, 690, 691, 692, 693, 694, 695, 696, 697, 698, 699, 700, 701, 702, 703, 704, 705, 706, 707, 708, 709, 710, 711, 712, 713, 714, 715, 716, 717, 718, 719, 720, 721, 722, 723, 724, 725, 726, 727, 728, 729, 730, 731, 732, 733, 734, 735, 736, 737, 738, 739, 740, 741, 742, 743, 744, 745, 746, 747, 748, 749, 750, 751, 752, 753, 754, 755, 756, 757, 758, 759, 760, 761, 762, 763, 764, 765, 766, 767, 768, 769, 770, 771, 772, 773, 774, 775, 776, 777, 778, 779, 780, 781, 782, 783, 784, 785, 786, 787, 788, 789, 790, 791, 792, 793, 794, 795, 796, 797, 798, 799, 800, 801, 802, 803, 804, 805, 806, 807, 808, 809, 810, 811, 812, 813, 814, 815, 816, 817, 818, 819, 820, 821, 822, 823, 824, 825, 826, 827, 828, 829, 830, 831, 832, 833, 834, 835, 836, 837, 838, 839, 840, 841, 842, 843, 844, 845, 846, 847, 848, 849, 850, 851, 852, 853, 854, 855, 856, 857, 858, 859, 860, 861, 862, 863, 864, 865, 866, 867, 868, 869, 870, 871, 872, 873, 874, 875, 876, 877, 878, 879, 880, 881, 882, 883, 884, 885, 886, 887, 888, 889, 890, 891, 892, 893, 894, 895, 896, 897, 898, 899, 900, 901, 902, 903, 904, 905, 906, 907, 908, 909, 910, 911, 912, 913, 914],
      "AcquisitionTime": ["100942.872500", "100943.332500", "100943.792500", "100944.252500", "100944.712500", "100945.172500", "100945.632500", "100946.092500", "100946.552500", "100947.012500", "100947.472500", "100947.932500", "100948.392500", "100948.852500", "100949.312500", "100949.772500", "100950.232500", "100950.692500", "100951.152500", "100951.612500", "100952.072500", "100952.532500", "100952.992500", "100953.452500", "100953.912500", "100954.372500", "100954.832500", "100955.292500", "100955.752500", "100956.212500", "100956.672500", "100957.132500", "100957.592500", "100958.052500", "100958.512500", "100958.972500", "100959.432500", "100959.892500", "101000.352500", "101000.812500", "101001.272500", "101001.732500", "101002.192500", "101002.652500", "101003.112500", "101003.572500", "101004.032500", "101004.492500", "101004.952500", "101005.412500", "101005.872500", "101006.332500", "101006.792500", "101007.252500", "101007.712500", "101008.172500", "101008.632500", "101009.092500", "101009.552500", "101010.012500", "101010.472500", "101010.932500", "101011.392500", "101011.852500", "101012.312500", "101012.772500", "101013.232500", "101013.692500", "101014.152500", "101014.612500", "101015.072500", "101015.532500", "101015.992500", "101016.452500", "101016.912500", "101017.372500", "101017.832500", "101018.292500", "101018.752500", "101019.212500", "101019.672500", "101020.132500", "101020.592500", "101021.052500", "101021.512500", "101021.972500", "101022.432500", "101022.892500", "101023.352500", "101023.812500", "101024.272500", "101024.732500", "101025.192500", "101025.652500", "101026.112500", "101026.572500", "101027.032500", "101027.492500", "101027.952500", "101028.412500", "101028.872500", "101029.332500", "101029.792500", "101030.252500", "101030.712500", "101031.172500", "101031.632500", "101032.092500", "101032.552500", "101033.012500", "101033.472500", "101033.932500", "101034.392500", "101034.852500", "101035.312500", "101035.772500", "101036.232500", "101036.692500", "101037.152500", "101037.612500", "101038.072500", "101038.532500", "101038.992500", "101039.452500", "101039.912500", "101040.372500", "101040.832500", "101041.292500", "101041.752500", "101042.212500", "101042.672500", "101043.132500", "101043.592500", "101044.052500", "101044.512500", "101044.972500", "101045.432500", "101045.892500", "101046.352500", "101046.812500", "101047.272500", "101047.732500", "101048.192500", "101048.652500", "101049.112500", "101049.572500", "101050.032500", "101050.492500", "101050.952500", "101051.412500", "101051.872500", "101052.332500", "101052.792500", "101053.252500", "101053.712500", "101054.172500", "101054.632500", "101055.092500", "101055.552500", "101056.012500", "101056.472500", "101056.932500", "101057.392500", "101057.852500", "101058.312500", "101058.772500", "101059.232500", "101059.692500", "101100.152500", "101100.612500", "101101.072500", "101101.532500", "101101.992500", "101102.452500", "101102.912500", "101103.372500", "101103.832500", "101104.292500", "101104.752500", "101105.212500", "101105.672500", "101106.132500", "101106.592500", "101107.052500", "101107.512500", "101107.972500", "101108.432500", "101108.892500", "101109.352500", "101109.812500", "101110.272500", "101110.732500", "101111.192500", "101111.652500", "101112.112500", "101112.572500", "101113.032500", "101113.492500", "101113.952500", "101114.412500", "101114.872500", "101115.332500", "101115.792500", "101116.252500", "101116.712500", "101117.172500", "101117.632500", "101118.092500", "101118.552500", "101119.012500", "101119.472500", "101119.932500", "101120.392500", "101120.852500", "101121.312500", "101121.772500", "101122.232500", "101122.692500", "101123.152500", "101123.612500", "101124.072500", "101124.532500", "101124.992500", "101125.452500", "101125.912500", "101126.372500", "101126.832500", "101127.292500", "101127.752500", "101128.212500", "101128.672500", "101129.132500", "101129.592500", "101130.052500", "101130.512500", "101130.972500", "101131.432500", "101131.892500", "101132.352500", "101132.812500", "101133.272500", "101133.732500", "101134.192500", "101134.652500", "101135.112500", "101135.572500", "101136.032500", "101136.492500", "101136.952500", "101137.412500", "101137.872500", "101138.332500", "101138.792500", "101139.252500", "101139.712500", "101140.172500", "101140.632500", "101141.092500", "101141.552500", "101142.012500", "101142.472500", "101142.932500", "101143.392500", "101143.852500", "101144.312500", "101144.772500", "101145.232500", "101145.692500", "101146.152500", "101146.612500", "101147.072500", "101147.532500", "101147.992500", "101148.452500", "101148.912500", "101149.372500", "101149.832500", "101150.292500", "101150.752500", "101151.212500", "101151.672500", "101152.132500", "101152.592500", "101153.052500", "101153.512500", "101153.972500", "101154.432500", "101154.892500", "101155.352500", "101155.812500", "101156.272500", "101156.732500", "101157.192500", "101157.652500", "101158.112500", "101158.572500", "101159.032500", "101159.492500", "101159.952500", "101200.412500", "101200.872500", "101201.332500", "101201.792500", "101202.252500", "101202.712500", "101203.172500", "101203.632500", "101204.092500", "101204.552500", "101205.012500", "101205.472500", "101205.932500", "101206.392500", "101206.852500", "101207.312500", "101207.772500", "101208.232500", "101208.692500", "101209.152500", "101209.612500", "101210.072500", "101210.532500", "101210.992500", "101211.452500", "101211.912500", "101212.372500", "101212.832500", "101213.292500", "101213.752500", "101214.212500", "101214.672500", "101215.132500", "101215.592500", "101216.052500", "101216.512500", "101216.972500", "101217.432500", "101217.892500", "101218.352500", "101218.812500", "101219.272500", "101219.732500", "101220.192500", "101220.652500", "101221.112500", "101221.572500", "101222.032500", "101222.492500", "101222.952500", "101223.412500", "101223.872500", "101224.332500", "101224.792500", "101225.252500", "101225.712500", "101226.172500", "101226.632500", "101227.092500", "101227.552500", "101228.012500", "101228.472500", "101228.932500", "101229.392500", "101229.852500", "101230.312500", "101230.772500", "101231.232500", "101231.692500", "101232.152500", "101232.612500", "101233.072500", "101233.532500", "101233.992500", "101234.452500", "101234.912500", "101235.372500", "101235.832500", "101236.292500", "101236.752500", "101237.212500", "101237.672500", "101238.132500", "101238.592500", "101239.052500", "101239.512500", "101239.972500", "101240.432500", "101240.892500", "101241.352500", "101241.812500", "101242.272500", "101242.732500", "101243.192500", "101243.652500", "101244.112500", "101244.572500", "101245.032500", "101245.492500", "101245.952500", "101246.412500", "101246.872500", "101247.332500", "101247.792500", "101248.252500", "101248.712500", "101249.172500", "101249.632500", "101250.092500", "101250.552500", "101251.012500", "101251.472500", "101251.932500", "101252.392500", "101252.852500", "101253.312500", "101253.772500", "101254.232500", "101254.692500", "101255.152500", "101255.612500", "101256.072500", "101256.532500", "101256.992500", "101257.452500", "101257.912500", "101258.372500", "101258.832500", "101259.292500", "101259.752500", "101300.212500", "101300.672500", "101301.132500", "101301.592500", "101302.052500", "101302.512500", "101302.972500", "101303.432500", "101303.892500", "101304.352500", "101304.812500", "101305.272500", "101305.732500", "101306.192500", "101306.652500", "101307.112500", "101307.572500", "101308.032500", "101308.492500", "101308.952500", "101309.412500", "101309.872500", "101310.332500", "101310.792500", "101311.252500", "101311.712500", "101312.172500", "101312.632500", "101313.092500", "101313.552500", "101314.012500", "101314.472500", "101314.932500", "101315.392500", "101315.852500", "101316.312500", "101316.772500", "101317.232500", "101317.692500", "101318.152500", "101318.612500", "101319.072500", "101319.532500", "101319.992500", "101320.452500", "101320.912500", "101321.372500", "101321.832500", "101322.292500", "101322.752500", "101323.212500", "101323.672500", "101324.132500", "101324.592500", "101325.052500", "101325.512500", "101325.972500", "101326.432500", "101326.892500", "101327.352500", "101327.812500", "101328.272500", "101328.732500", "101329.192500", "101329.652500", "101330.112500", "101330.572500", "101331.032500", "101331.492500", "101331.952500", "101332.412500", "101332.872500", "101333.332500", "101333.792500", "101334.252500", "101334.712500", "101335.172500", "101335.632500", "101336.092500", "101336.552500", "101337.012500", "101337.472500", "101337.932500", "101338.392500", "101338.852500", "101339.312500", "101339.772500", "101340.232500", "101340.692500", "101341.152500", "101341.612500", "101342.072500", "101342.532500", "101342.992500", "101343.452500", "101343.912500", "101344.372500", "101344.832500", "101345.292500", "101345.752500", "101346.212500", "101346.672500", "101347.132500", "101347.592500", "101348.052500", "101348.512500", "101348.972500", "101349.432500", "101349.892500", "101350.352500", "101350.812500", "101351.272500", "101351.732500", "101352.192500", "101352.652500", "101353.112500", "101353.572500", "101354.032500", "101354.492500", "101354.952500", "101355.412500", "101355.872500", "101356.332500", "101356.792500", "101357.252500", "101357.712500", "101358.172500", "101358.632500", "101359.092500", "101359.552500", "101400.012500", "101400.472500", "101400.932500", "101401.392500", "101401.852500", "101402.312500", "101402.772500", "101403.232500", "101403.692500", "101404.152500", "101404.612500", "101405.072500", "101405.532500", "101405.992500", "101406.452500", "101406.912500", "101407.372500", "101407.832500", "101408.292500", "101408.752500", "101409.212500", "101409.672500", "101410.132500", "101410.592500", "101411.052500", "101411.512500", "101411.972500", "101412.432500", "101412.892500", "101413.352500", "101413.812500", "101414.272500", "101414.732500", "101415.192500", "101415.652500", "101416.112500", "101416.572500", "101417.032500", "101417.492500", "101417.952500", "101418.412500", "101418.872500", "101419.332500", "101419.792500", "101420.252500", "101420.712500", "101421.172500", "101421.632500", "101422.092500", "101422.552500", "101423.012500", "101423.472500", "101423.932500", "101424.392500", "101424.852500", "101425.312500", "101425.772500", "101426.232500", "101426.692500", "101427.152500", "101427.612500", "101428.072500", "101428.532500", "101428.992500", "101429.452500", "101429.912500", "101430.372500", "101430.832500", "101431.292500", "101431.752500", "101432.212500", "101432.672500", "101433.132500", "101433.592500", "101434.052500", "101434.512500", "101434.972500", "101435.432500", "101435.892500", "101436.352500", "101436.812500", "101437.272500", "101437.732500", "101438.192500", "101438.652500", "101439.112500", "101439.572500", "101440.032500", "101440.492500", "101440.952500", "101441.412500", "101441.872500", "101442.332500", "101442.792500", "101443.252500", "101443.712500", "101444.172500", "101444.632500", "101445.092500", "101445.552500", "101446.012500", "101446.472500", "101446.932500", "101447.392500", "101447.852500", "101448.312500", "101448.772500", "101449.232500", "101449.692500", "101450.152500", "101450.612500", "101451.072500", "101451.532500", "101451.992500", "101452.452500", "101452.912500", "101453.372500", "101453.832500", "101454.292500", "101454.752500", "101455.212500", "101455.672500", "101456.132500", "101456.592500", "101457.052500", "101457.512500", "101457.972500", "101458.432500", "101458.892500", "101459.352500", "101459.812500", "101500.272500", "101500.732500", "101501.192500", "101501.652500", "101502.112500", "101502.572500", "101503.032500", "101503.492500", "101503.952500", "101504.412500", "101504.872500", "101505.332500", "101505.792500", "101506.252500", "101506.712500", "101507.172500", "101507.632500", "101508.092500", "101508.552500", "101509.012500", "101509.472500", "101509.932500", "101510.392500", "101510.852500", "101511.312500", "101511.772500", "101512.232500", "101512.692500", "101513.152500", "101513.612500", "101514.072500", "101514.532500", "101514.992500", "101515.452500", "101515.912500", "101516.372500", "101516.832500", "101517.292500", "101517.752500", "101518.212500", "101518.672500", "101519.132500", "101519.592500", "101520.052500", "101520.512500", "101520.972500", "101521.432500", "101521.892500", "101522.352500", "101522.812500", "101523.272500", "101523.732500", "101524.192500", "101524.652500", "101525.112500", "101525.572500", "101526.032500", "101526.492500", "101526.952500", "101527.412500", "101527.872500", "101528.332500", "101528.792500", "101529.252500", "101529.712500", "101530.172500", "101530.632500", "101531.092500", "101531.552500", "101532.012500", "101532.472500", "101532.932500", "101533.392500", "101533.852500", "101534.312500", "101534.772500", "101535.232500", "101535.692500", "101536.152500", "101536.612500", "101537.072500", "101537.532500", "101537.992500", "101538.452500", "101538.912500", "101539.372500", "101539.832500", "101540.292500", "101540.752500", "101541.212500", "101541.672500", "101542.132500", "101542.592500", "101543.052500", "101543.512500", "101543.972500", "101544.432500", "101544.892500", "101545.352500", "101545.812500", "101546.272500", "101546.732500", "101547.192500", "101547.652500", "101548.112500", "101548.572500", "101549.032500", "101549.492500", "101549.952500", "101550.412500", "101550.872500", "101551.332500", "101551.792500", "101552.252500", "101552.712500", "101553.172500", "101553.632500", "101554.092500", "101554.552500", "101555.012500", "101555.472500", "101555.932500", "101556.392500", "101556.852500", "101557.312500", "101557.772500", "101558.232500", "101558.692500", "101559.152500", "101559.612500", "101600.072500", "101600.532500", "101600.992500", "101601.452500", "101601.912500", "101602.372500", "101602.832500", "101603.292500", "101603.752500", "101604.212500", "101604.672500", "101605.132500", "101605.592500", "101606.052500", "101606.512500", "101606.972500", "101607.432500", "101607.892500", "101608.352500", "101608.812500", "101609.272500", "101609.732500", "101610.192500", "101610.652500", "101611.112500", "101611.572500", "101612.032500", "101612.492500", "101612.952500", "101613.412500", "101613.872500", "101614.332500", "101614.792500", "101615.252500", "101615.712500", "101616.172500", "101616.632500", "101617.092500", "101617.552500", "101618.012500", "101618.472500", "101618.932500", "101619.392500", "101619.852500", "101620.312500", "101620.772500", "101621.232500", "101621.692500", "101622.152500", "101622.612500", "101623.072500", "101623.532500", "101623.992500", "101624.452500", "101624.912500", "101625.372500", "101625.832500", "101626.292500", "101626.752500", "101627.212500", "101627.672500", "101628.132500", "101628.592500", "101629.052500", "101629.512500", "101629.972500", "101630.432500", "101630.892500", "101631.352500", "101631.812500", "101632.272500", "101632.732500", "101633.192500", "101633.652500", "101634.112500", "101634.572500", "101635.032500", "101635.492500", "101635.952500", "101636.412500", "101636.872500", "101637.332500", "101637.792500", "101638.252500", "101638.712500", "101639.172500", "101639.632500", "101640.092500", "101640.552500", "101641.012500", "101641.472500", "101641.932500", "101642.392500", "101642.852500"],
