{
  "AcquisitionMatrixPE": 82,
  "AcquisitionNumber": 1,
  "AcquisitionTime": "18:46:40.612500",
  "BandwidthPerPixelPhaseEncode": 24.888,
  "BaseResolution": 82,
  "BodyPartExamined": "BRAIN",
  "ConsistencyInfo": "N4_VE11E_LATEST_20181129",
  "ConversionSoftware": "dcm2niix",
  "ConversionSoftwareVersion": "v1.0.20201102",
  "DerivedVendorReportedEchoSpacing": 0.00049,
  "DeviceSerialNumber": "66112",
  "DwellTime": 2e-06,
  "EchoTime": 0.0272,
  "EchoTrainLength": 82,
  "EffectiveEchoSpacing": 0.00049,
  "FlipAngle": 44,
  "ImageComments": "Unaliased MB8/PE3",
  "ImageOrientationPatientDICOM": [0.999228, 0.0349686, -0.0178879, -0.0336716, 0.997097, 0.068286],
  "ImageType": [
    "ORIGINAL",
    "PRIMARY",
    "M",
    "MB",
    "ND",
    "NORM",
    "MOSAIC"
],
  "ImagingFrequency": 123.259,
  "InPlanePhaseEncodingDirectionDICOM": "COL",
  "InstitutionAddress": "Maynard 3,Hanover,NH,US,03755",
  "InstitutionName": "Dartmouth College - PBS",
  "InstitutionalDepartmentName": "Department",
  "MRAcquisitionType": "2D",
  "MagneticFieldStrength": 3,
  "Manufacturer": "Siemens",
  "ManufacturersModelName": "Prisma",
  "Modality": "MR",
  "MultibandAccelerationFactor": 8,
  "PartialFourier": 1,
  "PatientPosition": "HFS",
  "PercentPhaseFOV": 100,
  "PercentSampling": 100,
  "PhaseEncodingDirection": "j-",
  "PhaseEncodingSteps": 82,
  "PhaseResolution": 1,
  "PixelBandwidth": 3050,
  "ProcedureStepDescription": "Wager_Wager^1076_spacetop",
  "ProtocolName": "func_run-02_task-social_acq-ap-mb8",
  "PulseSequenceDetails": "%CustomerSeq%\\cmrr_mbep2d_bold",
  "ReceiveCoilActiveElements": "HEA;HEP",
  "ReceiveCoilName": "Head_32",
  "ReconMatrixPE": 82,
  "RepetitionTime": 0.46,
  "SAR": 0.0846848,
  "ScanOptions": "FS",
  "ScanningSequence": "EP",
  "SequenceName": "epfid2d1_82",
  "SequenceVariant": "SK\\SS",
  "SeriesDescription": "func_run-02_task-social_acq-ap-mb8",
  "SeriesNumber": 14,
  "ShimSetting": [4223, -7659, -7103, 778, -68, 199, -270, 59],
  "SliceThickness": 2.7,
  "SliceTiming": [0, 0.25, 0.0625, 0.3125, 0.125, 0.375, 0.1875, 0, 0.25, 0.0625, 0.3125, 0.125, 0.375, 0.1875, 0, 0.25, 0.0625, 0.3125, 0.125, 0.375, 0.1875, 0, 0.25, 0.0625, 0.3125, 0.125, 0.375, 0.1875, 0, 0.25, 0.0625, 0.3125, 0.125, 0.375, 0.1875, 0, 0.25, 0.0625, 0.3125, 0.125, 0.375, 0.1875, 0, 0.25, 0.0625, 0.3125, 0.125, 0.375, 0.1875, 0, 0.25, 0.0625, 0.3125, 0.125, 0.375, 0.1875],
  "SoftwareVersions": "syngo MR E11",
  "SpacingBetweenSlices": 2.7,
  "StationName": "AWP66112",
  "TaskName": "social",
  "TotalReadoutTime": 0.03969,
  "TxRefAmp": 233.418,
  "WipMemBlock": "4eb554b3-957e-40e0-b916-49ad12c117aa||Sequence: R016 ve11e/master r/434b28f1; Aug  7 2019 18:53:46 by eja",
  "dcmmeta_affine": [
    [-2.680856466293335, -0.0903383418917656, -0.0546044185757637, 118.17657470703125],
    [-0.09381812810897827, 2.6751394271850586, 0.18260374665260315, -101.6076889038086],
    [-0.04799196869134903, -0.18320642411708832, 2.6932644844055176, -47.46393966674805],
    [0.0, 0.0, 0.0, 1.0]
],
  "dcmmeta_reorient_transform": [
    [0.0, -1.0, 0.0, 81.0],
    [1.0, 0.0, 0.0, 0.0],
    [0.0, 0.0, 1.0, 0.0],
    [0.0, 0.0, 0.0, 1.0]
],
  "dcmmeta_shape": [82, 82, 56, 872],
  "dcmmeta_slice_dim": 2,
  "dcmmeta_version": 0.6,
  "global": {
    "const": {
      "AccessionNumber": "A004784",
      "AcquisitionMatrix": [82, 0, 0, 82],
      "AngioFlag": "N",
      "BitsAllocated": 16,
      "BitsStored": 16,
      "BodyPartExamined": "BRAIN",
      "Columns": 656,
      "EchoNumbers": 1,
      "EchoTime": 27.2,
      "EchoTrainLength": 82,
      "FlipAngle": 44.0,
      "HighBit": 15,
      "ImageOrientationPatient": [0.99922831292197, 0.03496857349912, -0.017887915545, -0.0336715632441, 0.99709740953026, 0.06828602885466],
      "ImagePositionPatient": [-854.33788535157, -909.76943135256, -101.1102093917],
      "ImageType": [
        "ORIGINAL",
        "PRIMARY",
        "M",
        "MB",
        "ND",
        "NORM",
        "MOSAIC"
],
      "ImagedNucleus": "1H",
      "ImagingFrequency": 123.25909,
      "InPlanePhaseEncodingDirection": "COL",
      "MRAcquisitionType": "2D",
      "MagneticFieldStrength": 3.0,
      "Manufacturer": "SIEMENS",
      "ManufacturerModelName": "Prisma",
      "Modality": "MR",
      "NumberOfAverages": 1.0,
      "NumberOfPhaseEncodingSteps": 82,
      "PercentPhaseFieldOfView": 100.0,
      "PercentSampling": 100.0,
      "PerformedProcedureStepStartTime": "174802.279000",
      "PhotometricInterpretation": "MONOCHROME2",
      "PixelBandwidth": 3050.0,
      "PixelRepresentation": 0,
      "PixelSpacing": [2.6829268932343, 2.6829268932343],
      "ProtocolName": "func_run-02_task-social_acq-ap-mb8",
      "RepetitionTime": 460.0,
      "Rows": 656,
      "SAR": 0.08468479279538,
      "SamplesPerPixel": 1,
      "ScanOptions": "FS",
      "ScanningSequence": "EP",
      "SequenceName": "epfid2d1_82",
      "SequenceVariant": [
        "SK",
        "SS"
],
      "SeriesDescription": "func_run-02_task-social_acq-ap-mb8",
      "SeriesNumber": 14,
      "SeriesTime": "184708.618000",
      "SliceLocation": -56.607355927328,
      "SliceThickness": 2.7000000476837,
      "SmallestImagePixelValue": 0,
      "SoftwareVersions": "syngo MR E11",
      "SpacingBetweenSlices": 2.6999999585324,
      "SpecificCharacterSet": "ISO_IR 100",
      "StudyID": "1",
      "StudyTime": "174802.199000",
      "TransmitCoilName": "Body",
      "VariableFlipAngleFlag": "N",
      "WindowCenterWidthExplanation": "Algo1"
    },
    "slices": {}
  },
  "time": {
    "samples": {
      "AcquisitionNumber": [1, 2, 3, 4, 5, 6, 7, 8, 9, 10, 11, 12, 13, 14, 15, 16, 17, 18, 19, 20, 21, 22, 23, 24, 25, 26, 27, 28, 29, 30, 31, 32, 33, 34, 35, 36, 37, 38, 39, 40, 41, 42, 43, 44, 45, 46, 47, 48, 49, 50, 51, 52, 53, 54, 55, 56, 57, 58, 59, 60, 61, 62, 63, 64, 65, 66, 67, 68, 69, 70, 71, 72, 73, 74, 75, 76, 77, 78, 79, 80, 81, 82, 83, 84, 85, 86, 87, 88, 89, 90, 91, 92, 93, 94, 95, 96, 97, 98, 99, 100, 101, 102, 103, 104, 105, 106, 107, 108, 109, 110, 111, 112, 113, 114, 115, 116, 117, 118, 119, 120, 121, 122, 123, 124, 125, 126, 127, 128, 129, 130, 131, 132, 133, 134, 135, 136, 137, 138, 139, 140, 141, 142, 143, 144, 145, 146, 147, 148, 149, 150, 151, 152, 153, 154, 155, 156, 157, 158, 159, 160, 161, 162, 163, 164, 165, 166, 167, 168, 169, 170, 171, 172, 173, 174, 175, 176, 177, 178, 179, 180, 181, 182, 183, 184, 185, 186, 187, 188, 189, 190, 191, 192, 193, 194, 195, 196, 197, 198, 199, 200, 201, 202, 203, 204, 205, 206, 207, 208, 209, 210, 211, 212, 213, 214, 215, 216, 217, 218, 219, 220, 221, 222, 223, 224, 225, 226, 227, 228, 229, 230, 231, 232, 233, 234, 235, 236, 237, 238, 239, 240, 241, 242, 243, 244, 245, 246, 247, 248, 249, 250, 251, 252, 253, 254, 255, 256, 257, 258, 259, 260, 261, 262, 263, 264, 265, 266, 267, 268, 269, 270, 271, 272, 273, 274, 275, 276, 277, 278, 279, 280, 281, 282, 283, 284, 285, 286, 287, 288, 289, 290, 291, 292, 293, 294, 295, 296, 297, 298, 299, 300, 301, 302, 303, 304, 305, 306, 307, 308, 309, 310, 311, 312, 313, 314, 315, 316, 317, 318, 319, 320, 321, 322, 323, 324, 325, 326, 327, 328, 329, 330, 331, 332, 333, 334, 335, 336, 337, 338, 339, 340, 341, 342, 343, 344, 345, 346, 347, 348, 349, 350, 351, 352, 353, 354, 355, 356, 357, 358, 359, 360, 361, 362, 363, 364, 365, 366, 367, 368, 369, 370, 371, 372, 373, 374, 375, 376, 377, 378, 379, 380, 381, 382, 383, 384, 385, 386, 387, 388, 389, 390, 391, 392, 393, 394, 395, 396, 397, 398, 399, 400, 401, 402, 403, 404, 405, 406, 407, 408, 409, 410, 411, 412, 413, 414, 415, 416, 417, 418, 419, 420, 421, 422, 423, 424, 425, 426, 427, 428, 429, 430, 431, 432, 433, 434, 435, 436, 437, 438, 439, 440, 441, 442, 443, 444, 445, 446, 447, 448, 449, 450, 451, 452, 453, 454, 455, 456, 457, 458, 459, 460, 461, 462, 463, 464, 465, 466, 467, 468, 469, 470, 471, 472, 473, 474, 475, 476, 477, 478, 479, 480, 481, 482, 483, 484, 485, 486, 487, 488, 489, 490, 491, 492, 493, 494, 495, 496, 497, 498, 499, 500, 501, 502, 503, 504, 505, 506, 507, 508, 509, 510, 511, 512, 513, 514, 515, 516, 517, 518, 519, 520, 521, 522, 523, 524, 525, 526, 527, 528, 529, 530, 531, 532, 533, 534, 535, 536, 537, 538, 539, 540, 541, 542, 543, 544, 545, 546, 547, 548, 549, 550, 551, 552, 553, 554, 555, 556, 557, 558, 559, 560, 561, 562, 563, 564, 565, 566, 567, 568, 569, 570, 571, 572, 573, 574, 575, 576, 577, 578, 579, 580, 581, 582, 583, 584, 585, 586, 587, 588, 589, 590, 591, 592, 593, 594, 595, 596, 597, 598, 599, 600, 601, 602, 603, 604, 605, 606, 607, 608, 609, 610, 611, 612, 613, 614, 615, 616, 617, 618, 619, 620, 621, 622, 623, 624, 625, 626, 627, 628, 629, 630, 631, 632, 633, 634, 635, 636, 637, 638, 639, 640, 641, 642, 643, 644, 645, 646, 647, 648, 649, 650, 651, 652, 653, 654, 655, 656, 657, 658, 659, 660, 661, 662, 663, 664, 665, 666, 667, 668, 669, 670, 671, 672, 673, 674, 675, 676, 677, 678, 679, 680, 681, 682, 683, 684, 685, 686, 687, 688, 689, 690, 691, 692, 693, 694, 695, 696, 697, 698, 699, 700, 701, 702, 703, 704, 705, 706, 707, 708, 709, 710, 711, 712, 713, 714, 715, 716, 717, 718, 719, 720, 721, 722, 723, 724, 725, 726, 727, 728, 729, 730, 731, 732, 733, 734, 735, 736, 737, 738, 739, 740, 741, 742, 743, 744, 745, 746, 747, 748, 749, 750, 751, 752, 753, 754, 755, 756, 757, 758, 759, 760, 761, 762, 763, 764, 765, 766, 767, 768, 769, 770, 771, 772, 773, 774, 775, 776, 777, 778, 779, 780, 781, 782, 783, 784, 785, 786, 787, 788, 789, 790, 791, 792, 793, 794, 795, 796, 797, 798, 799, 800, 801, 802, 803, 804, 805, 806, 807, 808, 809, 810, 811, 812, 813, 814, 815, 816, 817, 818, 819, 820, 821, 822, 823, 824, 825, 826, 827, 828, 829, 830, 831, 832, 833, 834, 835, 836, 837, 838, 839, 840, 841, 842, 843, 844, 845, 846, 847, 848, 849, 850, 851, 852, 853, 854, 855, 856, 857, 858, 859, 860, 861, 862, 863, 864, 865, 866, 867, 868, 869, 870, 871, 872],
      "AcquisitionTime": ["184640.612500", "184641.072500", "184641.532500", "184641.992500", "184642.452500", "184642.912500", "184643.372500", "184643.832500", "184644.292500", "184644.752500", "184645.212500", "184645.672500", "184646.132500", "184646.592500", "184647.052500", "184647.512500", "184647.972500", "184648.432500", "184648.892500", "184649.352500", "184649.812500", "184650.272500", "184650.732500", "184651.192500", "184651.652500", "184652.112500", "184652.572500", "184653.032500", "184653.492500", "184653.952500", "184654.412500", "184654.872500", "184655.332500", "184655.792500", "184656.252500", "184656.712500", "184657.172500", "184657.632500", "184658.092500", "184658.552500", "184659.012500", "184659.472500", "184659.932500", "184700.392500", "184700.852500", "184701.312500", "184701.772500", "184702.232500", "184702.692500", "184703.152500", "184703.612500", "184704.072500", "184704.532500", "184704.992500", "184705.452500", "184705.912500", "184706.372500", "184706.832500", "184707.292500", "184707.752500", "184708.212500", "184708.672500", "184709.132500", "184709.592500", "184710.052500", "184710.512500", "184710.972500", "184711.432500", "184711.892500", "184712.352500", "184712.812500", "184713.272500", "184713.732500", "184714.192500", "184714.652500", "184715.112500", "184715.572500", "184716.032500", "184716.492500", "184716.952500", "184717.412500", "184717.872500", "184718.332500", "184718.792500", "184719.252500", "184719.712500", "184720.172500", "184720.632500", "184721.092500", "184721.552500", "184722.012500", "184722.472500", "184722.932500", "184723.392500", "184723.852500", "184724.312500", "184724.772500", "184725.232500", "184725.692500", "184726.152500", "184726.612500", "184727.072500", "184727.532500", "184727.992500", "184728.452500", "184728.912500", "184729.372500", "184729.832500", "184730.292500", "184730.752500", "184731.212500", "184731.672500", "184732.132500", "184732.592500", "184733.052500", "184733.512500", "184733.972500", "184734.432500", "184734.892500", "184735.352500", "184735.812500", "184736.272500", "184736.732500", "184737.192500", "184737.652500", "184738.112500", "184738.572500", "184739.032500", "184739.492500", "184739.952500", "184740.412500", "184740.872500", "184741.332500", "184741.792500", "184742.252500", "184742.712500", "184743.172500", "184743.632500", "184744.092500", "184744.552500", "184745.012500", "184745.472500", "184745.932500", "184746.392500", "184746.852500", "184747.312500", "184747.772500", "184748.232500", "184748.692500", "184749.152500", "184749.612500", "184750.072500", "184750.532500", "184750.992500", "184751.452500", "184751.912500", "184752.372500", "184752.832500", "184753.292500", "184753.752500", "184754.212500", "184754.672500", "184755.132500", "184755.592500", "184756.052500", "184756.512500", "184756.972500", "184757.432500", "184757.892500", "184758.352500", "184758.812500", "184759.272500", "184759.732500", "184800.192500", "184800.652500", "184801.112500", "184801.572500", "184802.032500", "184802.492500", "184802.952500", "184803.412500", "184803.872500", "184804.332500", "184804.792500", "184805.252500", "184805.712500", "184806.172500", "184806.632500", "184807.092500", "184807.552500", "184808.012500", "184808.472500", "184808.932500", "184809.392500", "184809.852500", "184810.312500", "184810.772500", "184811.232500", "184811.692500", "184812.152500", "184812.612500", "184813.072500", "184813.532500", "184813.992500", "184814.452500", "184814.912500", "184815.372500", "184815.832500", "184816.292500", "184816.752500", "184817.212500", "184817.672500", "184818.132500", "184818.592500", "184819.052500", "184819.512500", "184819.972500", "184820.432500", "184820.892500", "184821.352500", "184821.812500", "184822.272500", "184822.732500", "184823.192500", "184823.652500", "184824.112500", "184824.572500", "184825.032500", "184825.492500", "184825.952500", "184826.412500", "184826.872500", "184827.332500", "184827.792500", "184828.252500", "184828.712500", "184829.172500", "184829.632500", "184830.092500", "184830.552500", "184831.012500", "184831.472500", "184831.932500", "184832.392500", "184832.852500", "184833.312500", "184833.772500", "184834.232500", "184834.692500", "184835.152500", "184835.612500", "184836.072500", "184836.532500", "184836.992500", "184837.452500", "184837.912500", "184838.372500", "184838.832500", "184839.292500", "184839.752500", "184840.212500", "184840.672500", "184841.132500", "184841.592500", "184842.052500", "184842.512500", "184842.972500", "184843.432500", "184843.892500", "184844.352500", "184844.812500", "184845.272500", "184845.732500", "184846.192500", "184846.652500", "184847.112500", "184847.572500", "184848.032500", "184848.492500", "184848.952500", "184849.412500", "184849.872500", "184850.332500", "184850.792500", "184851.252500", "184851.712500", "184852.172500", "184852.632500", "184853.092500", "184853.552500", "184854.012500", "184854.472500", "184854.932500", "184855.392500", "184855.852500", "184856.312500", "184856.772500", "184857.232500", "184857.692500", "184858.152500", "184858.612500", "184859.072500", "184859.532500", "184859.992500", "184900.452500", "184900.912500", "184901.372500", "184901.832500", "184902.292500", "184902.752500", "184903.212500", "184903.672500", "184904.132500", "184904.592500", "184905.052500", "184905.512500", "184905.972500", "184906.432500", "184906.892500", "184907.352500", "184907.812500", "184908.272500", "184908.732500", "184909.192500", "184909.652500", "184910.112500", "184910.572500", "184911.032500", "184911.492500", "184911.952500", "184912.412500", "184912.872500", "184913.332500", "184913.792500", "184914.252500", "184914.712500", "184915.172500", "184915.632500", "184916.092500", "184916.552500", "184917.012500", "184917.472500", "184917.932500", "184918.392500", "184918.852500", "184919.312500", "184919.772500", "184920.232500", "184920.692500", "184921.152500", "184921.612500", "184922.072500", "184922.532500", "184922.992500", "184923.452500", "184923.912500", "184924.372500", "184924.832500", "184925.292500", "184925.752500", "184926.212500", "184926.672500", "184927.132500", "184927.592500", "184928.052500", "184928.512500", "184928.972500", "184929.432500", "184929.892500", "184930.352500", "184930.812500", "184931.272500", "184931.732500", "184932.192500", "184932.652500", "184933.112500", "184933.572500", "184934.032500", "184934.492500", "184934.952500", "184935.412500", "184935.872500", "184936.332500", "184936.792500", "184937.252500", "184937.712500", "184938.172500", "184938.632500", "184939.092500", "184939.552500", "184940.012500", "184940.472500", "184940.932500", "184941.392500", "184941.852500", "184942.312500", "184942.772500", "184943.232500", "184943.692500", "184944.152500", "184944.612500", "184945.072500", "184945.532500", "184945.992500", "184946.452500", "184946.912500", "184947.372500", "184947.832500", "184948.292500", "184948.752500", "184949.212500", "184949.672500", "184950.132500", "184950.592500", "184951.052500", "184951.512500", "184951.972500", "184952.432500", "184952.892500", "184953.352500", "184953.812500", "184954.272500", "184954.732500", "184955.192500", "184955.652500", "184956.112500", "184956.572500", "184957.032500", "184957.492500", "184957.952500", "184958.412500", "184958.872500", "184959.332500", "184959.792500", "185000.252500", "185000.712500", "185001.172500", "185001.632500", "185002.092500", "185002.552500", "185003.012500", "185003.472500", "185003.932500", "185004.392500", "185004.852500", "185005.312500", "185005.772500", "185006.232500", "185006.692500", "185007.152500", "185007.612500", "185008.072500", "185008.532500", "185008.992500", "185009.452500", "185009.912500", "185010.372500", "185010.832500", "185011.292500", "185011.752500", "185012.212500", "185012.672500", "185013.132500", "185013.592500", "185014.052500", "185014.512500", "185014.972500", "185015.432500", "185015.892500", "185016.352500", "185016.812500", "185017.272500", "185017.732500", "185018.192500", "185018.652500", "185019.112500", "185019.572500", "185020.032500", "185020.492500", "185020.952500", "185021.412500", "185021.872500", "185022.332500", "185022.792500", "185023.252500", "185023.712500", "185024.172500", "185024.632500", "185025.092500", "185025.552500", "185026.012500", "185026.472500", "185026.932500", "185027.392500", "185027.852500", "185028.312500", "185028.772500", "185029.232500", "185029.692500", "185030.152500", "185030.612500", "185031.072500", "185031.532500", "185031.992500", "185032.452500", "185032.912500", "185033.372500", "185033.832500", "185034.292500", "185034.752500", "185035.212500", "185035.672500", "185036.132500", "185036.592500", "185037.052500", "185037.512500", "185037.972500", "185038.432500", "185038.892500", "185039.352500", "185039.812500", "185040.272500", "185040.732500", "185041.192500", "185041.652500", "185042.112500", "185042.572500", "185043.032500", "185043.492500", "185043.952500", "185044.412500", "185044.872500", "185045.332500", "185045.792500", "185046.252500", "185046.712500", "185047.172500", "185047.632500", "185048.092500", "185048.552500", "185049.012500", "185049.472500", "185049.932500", "185050.392500", "185050.852500", "185051.312500", "185051.772500", "185052.232500", "185052.692500", "185053.152500", "185053.612500", "185054.072500", "185054.532500", "185054.992500", "185055.452500", "185055.912500", "185056.372500", "185056.832500", "185057.292500", "185057.752500", "185058.212500", "185058.672500", "185059.132500", "185059.592500", "185100.052500", "185100.512500", "185100.972500", "185101.432500", "185101.892500", "185102.352500", "185102.812500", "185103.272500", "185103.732500", "185104.192500", "185104.652500", "185105.112500", "185105.572500", "185106.032500", "185106.492500", "185106.952500", "185107.412500", "185107.872500", "185108.332500", "185108.792500", "185109.252500", "185109.712500", "185110.172500", "185110.632500", "185111.092500", "185111.552500", "185112.012500", "185112.472500", "185112.932500", "185113.392500", "185113.852500", "185114.312500", "185114.772500", "185115.232500", "185115.692500", "185116.152500", "185116.612500", "185117.072500", "185117.532500", "185117.992500", "185118.452500", "185118.912500", "185119.372500", "185119.832500", "185120.292500", "185120.752500", "185121.212500", "185121.672500", "185122.132500", "185122.592500", "185123.052500", "185123.512500", "185123.972500", "185124.432500", "185124.892500", "185125.352500", "185125.812500", "185126.272500", "185126.732500", "185127.192500", "185127.652500", "185128.112500", "185128.572500", "185129.032500", "185129.492500", "185129.952500", "185130.412500", "185130.872500", "185131.332500", "185131.792500", "185132.252500", "185132.712500", "185133.172500", "185133.632500", "185134.092500", "185134.552500", "185135.012500", "185135.472500", "185135.932500", "185136.392500", "185136.852500", "185137.312500", "185137.772500", "185138.232500", "185138.692500", "185139.152500", "185139.612500", "185140.072500", "185140.532500", "185140.992500", "185141.452500", "185141.912500", "185142.372500", "185142.832500", "185143.292500", "185143.752500", "185144.212500", "185144.672500", "185145.132500", "185145.592500", "185146.052500", "185146.512500", "185146.972500", "185147.432500", "185147.892500", "185148.352500", "185148.812500", "185149.272500", "185149.732500", "185150.192500", "185150.652500", "185151.112500", "185151.572500", "185152.032500", "185152.492500", "185152.952500", "185153.412500", "185153.872500", "185154.332500", "185154.792500", "185155.252500", "185155.712500", "185156.172500", "185156.632500", "185157.092500", "185157.552500", "185158.012500", "185158.472500", "185158.932500", "185159.392500", "185159.852500", "185200.312500", "185200.772500", "185201.232500", "185201.692500", "185202.152500", "185202.612500", "185203.072500", "185203.532500", "185203.992500", "185204.452500", "185204.912500", "185205.372500", "185205.832500", "185206.292500", "185206.752500", "185207.212500", "185207.672500", "185208.132500", "185208.592500", "185209.052500", "185209.512500", "185209.972500", "185210.432500", "185210.892500", "185211.352500", "185211.812500", "185212.272500", "185212.732500", "185213.192500", "185213.652500", "185214.112500", "185214.572500", "185215.032500", "185215.492500", "185215.952500", "185216.412500", "185216.872500", "185217.332500", "185217.792500", "185218.252500", "185218.712500", "185219.172500", "185219.632500", "185220.092500", "185220.552500", "185221.012500", "185221.472500", "185221.932500", "185222.392500", "185222.852500", "185223.312500", "185223.772500", "185224.232500", "185224.692500", "185225.152500", "185225.612500", "185226.072500", "185226.532500", "185226.992500", "185227.452500", "185227.912500", "185228.372500", "185228.832500", "185229.292500", "185229.752500", "185230.212500", "185230.672500", "185231.132500", "185231.592500", "185232.052500", "185232.512500", "185232.972500", "185233.432500", "185233.892500", "185234.352500", "185234.812500", "185235.272500", "185235.732500", "185236.192500", "185236.652500", "185237.112500", "185237.572500", "185238.032500", "185238.492500", "185238.952500", "185239.412500", "185239.872500", "185240.332500", "185240.792500", "185241.252500", "185241.712500", "185242.172500", "185242.632500", "185243.092500", "185243.552500", "185244.012500", "185244.472500", "185244.932500", "185245.392500", "185245.852500", "185246.312500", "185246.772500", "185247.232500", "185247.692500", "185248.152500", "185248.612500", "185249.072500", "185249.532500", "185249.992500", "185250.452500", "185250.912500", "185251.372500", "185251.832500", "185252.292500", "185252.752500", "185253.212500", "185253.672500", "185254.132500", "185254.592500", "185255.052500", "185255.512500", "185255.972500", "185256.432500", "185256.892500", "185257.352500", "185257.812500", "185258.272500", "185258.732500", "185259.192500", "185259.652500", "185300.112500", "185300.572500", "185301.032500", "185301.492500", "185301.952500", "185302.412500", "185302.872500", "185303.332500", "185303.792500", "185304.252500", "185304.712500", "185305.172500", "185305.632500", "185306.092500", "185306.552500", "185307.012500", "185307.472500", "185307.932500", "185308.392500", "185308.852500", "185309.312500", "185309.772500", "185310.232500", "185310.692500", "185311.152500", "185311.612500", "185312.072500", "185312.532500", "185312.992500", "185313.452500", "185313.912500", "185314.372500", "185314.832500", "185315.292500", "185315.752500", "185316.212500", "185316.672500", "185317.132500", "185317.592500", "185318.052500", "185318.512500", "185318.972500", "185319.432500", "185319.892500", "185320.352500", "185320.812500", "185321.272500"],
