{
  "AcquisitionMatrixPE": 82,
  "AcquisitionNumber": 1,
  "AcquisitionTime": "19:03:28.745000",
  "BandwidthPerPixelPhaseEncode": 24.888,
  "BaseResolution": 82,
  "BodyPartExamined": "BRAIN",
  "ConsistencyInfo": "N4_VE11E_LATEST_20181129",
  "ConversionSoftware": "dcm2niix",
  "ConversionSoftwareVersion": "v1.0.20201102",
  "DerivedVendorReportedEchoSpacing": 0.00049,
  "DeviceSerialNumber": "66112",
  "DwellTime": 2e-06,
  "EchoTime": 0.0272,
  "EchoTrainLength": 82,
  "EffectiveEchoSpacing": 0.00049,
  "FlipAngle": 44,
  "ImageComments": "Unaliased MB8/PE3",
  "ImageOrientationPatientDICOM": [0.999228, 0.0349686, -0.0178879, -0.0336716, 0.997097, 0.068286],
  "ImageType": [
    "ORIGINAL",
    "PRIMARY",
    "M",
    "MB",
    "ND",
    "NORM",
    "MOSAIC"
],
  "ImagingFrequency": 123.259,
  "InPlanePhaseEncodingDirectionDICOM": "COL",
  "InstitutionAddress": "Maynard 3,Hanover,NH,US,03755",
  "InstitutionName": "Dartmouth College - PBS",
  "InstitutionalDepartmentName": "Department",
  "MRAcquisitionType": "2D",
  "MagneticFieldStrength": 3,
  "Manufacturer": "Siemens",
  "ManufacturersModelName": "Prisma",
  "Modality": "MR",
  "MultibandAccelerationFactor": 8,
  "PartialFourier": 1,
  "PatientPosition": "HFS",
  "PercentPhaseFOV": 100,
  "PercentSampling": 100,
  "PhaseEncodingDirection": "j-",
  "PhaseEncodingSteps": 82,
  "PhaseResolution": 1,
  "PixelBandwidth": 3050,
  "ProcedureStepDescription": "Wager_Wager^1076_spacetop",
  "ProtocolName": "func_run-04_task-social_acq-ap-mb8",
  "PulseSequenceDetails": "%CustomerSeq%\\cmrr_mbep2d_bold",
  "ReceiveCoilActiveElements": "HEA;HEP",
  "ReceiveCoilName": "Head_32",
  "ReconMatrixPE": 82,
  "RepetitionTime": 0.46,
  "SAR": 0.0846848,
  "ScanOptions": "FS",
  "ScanningSequence": "EP",
  "SequenceName": "epfid2d1_82",
  "SequenceVariant": "SK\\SS",
  "SeriesDescription": "func_run-04_task-social_acq-ap-mb8",
  "SeriesNumber": 18,
  "ShimSetting": [4223, -7659, -7103, 778, -68, 199, -270, 59],
  "SliceThickness": 2.7,
  "SliceTiming": [0, 0.2525, 0.0625, 0.315, 0.1275, 0.3775, 0.19, 0, 0.2525, 0.0625, 0.315, 0.1275, 0.3775, 0.19, 0, 0.2525, 0.0625, 0.315, 0.1275, 0.3775, 0.19, 0, 0.2525, 0.0625, 0.315, 0.1275, 0.3775, 0.19, 0, 0.2525, 0.0625, 0.315, 0.1275, 0.3775, 0.19, 0, 0.2525, 0.0625, 0.315, 0.1275, 0.3775, 0.19, 0, 0.2525, 0.0625, 0.315, 0.1275, 0.3775, 0.19, 0, 0.2525, 0.0625, 0.315, 0.1275, 0.3775, 0.19],
  "SoftwareVersions": "syngo MR E11",
  "SpacingBetweenSlices": 2.7,
  "StationName": "AWP66112",
  "TaskName": "social",
  "TotalReadoutTime": 0.03969,
  "TxRefAmp": 233.418,
  "WipMemBlock": "46584f4d-4e49-433a-80be-6f92e8dc7c81||Sequence: R016 ve11e/master r/434b28f1; Aug  7 2019 18:53:46 by eja",
  "dcmmeta_affine": [
    [-2.680856466293335, -0.0903383418917656, -0.0546044185757637, 118.17657470703125],
    [-0.09381812810897827, 2.6751394271850586, 0.18260374665260315, -101.6076889038086],
    [-0.04799196869134903, -0.18320642411708832, 2.6932644844055176, -47.46393966674805],
    [0.0, 0.0, 0.0, 1.0]
],
  "dcmmeta_reorient_transform": [
    [0.0, -1.0, 0.0, 81.0],
    [1.0, 0.0, 0.0, 0.0],
    [0.0, 0.0, 1.0, 0.0],
    [0.0, 0.0, 0.0, 1.0]
],
  "dcmmeta_shape": [82, 82, 56, 872],
  "dcmmeta_slice_dim": 2,
  "dcmmeta_version": 0.6,
  "global": {
    "const": {
      "AccessionNumber": "A004784",
      "AcquisitionMatrix": [82, 0, 0, 82],
      "AngioFlag": "N",
      "BitsAllocated": 16,
      "BitsStored": 16,
      "BodyPartExamined": "BRAIN",
      "Columns": 656,
      "EchoNumbers": 1,
      "EchoTime": 27.2,
      "EchoTrainLength": 82,
      "FlipAngle": 44.0,
      "HighBit": 15,
      "ImageOrientationPatient": [0.99922831292197, 0.03496857349912, -0.017887915545, -0.0336715632441, 0.99709740953026, 0.06828602885466],
      "ImagePositionPatient": [-854.33788535157, -909.76943135256, -101.1102093917],
      "ImageType": [
        "ORIGINAL",
        "PRIMARY",
        "M",
        "MB",
        "ND",
        "NORM",
        "MOSAIC"
],
      "ImagedNucleus": "1H",
      "ImagingFrequency": 123.259094,
      "InPlanePhaseEncodingDirection": "COL",
      "MRAcquisitionType": "2D",
      "MagneticFieldStrength": 3.0,
      "Manufacturer": "SIEMENS",
      "ManufacturerModelName": "Prisma",
      "Modality": "MR",
      "NumberOfAverages": 1.0,
      "NumberOfPhaseEncodingSteps": 82,
      "PercentPhaseFieldOfView": 100.0,
      "PercentSampling": 100.0,
      "PerformedProcedureStepStartTime": "174802.279000",
      "PhotometricInterpretation": "MONOCHROME2",
      "PixelBandwidth": 3050.0,
      "PixelRepresentation": 0,
      "PixelSpacing": [2.6829268932343, 2.6829268932343],
      "ProtocolName": "func_run-04_task-social_acq-ap-mb8",
      "RepetitionTime": 460.0,
      "Rows": 656,
      "SAR": 0.08468479279538,
      "SamplesPerPixel": 1,
      "ScanOptions": "FS",
      "ScanningSequence": "EP",
      "SequenceName": "epfid2d1_82",
      "SequenceVariant": [
        "SK",
        "SS"
],
      "SeriesDescription": "func_run-04_task-social_acq-ap-mb8",
      "SeriesNumber": 18,
      "SeriesTime": "190348.535000",
      "SliceLocation": -56.607355927328,
      "SliceThickness": 2.7000000476837,
      "SmallestImagePixelValue": 0,
      "SoftwareVersions": "syngo MR E11",
      "SpacingBetweenSlices": 2.6999999585324,
      "SpecificCharacterSet": "ISO_IR 100",
      "StudyID": "1",
      "StudyTime": "174802.199000",
      "TransmitCoilName": "Body",
      "VariableFlipAngleFlag": "N",
      "WindowCenterWidthExplanation": "Algo1"
    },
    "slices": {}
  },
  "time": {
    "samples": {
      "AcquisitionNumber": [1, 2, 3, 4, 5, 6, 7, 8, 9, 10, 11, 12, 13, 14, 15, 16, 17, 18, 19, 20, 21, 22, 23, 24, 25, 26, 27, 28, 29, 30, 31, 32, 33, 34, 35, 36, 37, 38, 39, 40, 41, 42, 43, 44, 45, 46, 47, 48, 49, 50, 51, 52, 53, 54, 55, 56, 57, 58, 59, 60, 61, 62, 63, 64, 65, 66, 67, 68, 69, 70, 71, 72, 73, 74, 75, 76, 77, 78, 79, 80, 81, 82, 83, 84, 85, 86, 87, 88, 89, 90, 91, 92, 93, 94, 95, 96, 97, 98, 99, 100, 101, 102, 103, 104, 105, 106, 107, 108, 109, 110, 111, 112, 113, 114, 115, 116, 117, 118, 119, 120, 121, 122, 123, 124, 125, 126, 127, 128, 129, 130, 131, 132, 133, 134, 135, 136, 137, 138, 139, 140, 141, 142, 143, 144, 145, 146, 147, 148, 149, 150, 151, 152, 153, 154, 155, 156, 157, 158, 159, 160, 161, 162, 163, 164, 165, 166, 167, 168, 169, 170, 171, 172, 173, 174, 175, 176, 177, 178, 179, 180, 181, 182, 183, 184, 185, 186, 187, 188, 189, 190, 191, 192, 193, 194, 195, 196, 197, 198, 199, 200, 201, 202, 203, 204, 205, 206, 207, 208, 209, 210, 211, 212, 213, 214, 215, 216, 217, 218, 219, 220, 221, 222, 223, 224, 225, 226, 227, 228, 229, 230, 231, 232, 233, 234, 235, 236, 237, 238, 239, 240, 241, 242, 243, 244, 245, 246, 247, 248, 249, 250, 251, 252, 253, 254, 255, 256, 257, 258, 259, 260, 261, 262, 263, 264, 265, 266, 267, 268, 269, 270, 271, 272, 273, 274, 275, 276, 277, 278, 279, 280, 281, 282, 283, 284, 285, 286, 287, 288, 289, 290, 291, 292, 293, 294, 295, 296, 297, 298, 299, 300, 301, 302, 303, 304, 305, 306, 307, 308, 309, 310, 311, 312, 313, 314, 315, 316, 317, 318, 319, 320, 321, 322, 323, 324, 325, 326, 327, 328, 329, 330, 331, 332, 333, 334, 335, 336, 337, 338, 339, 340, 341, 342, 343, 344, 345, 346, 347, 348, 349, 350, 351, 352, 353, 354, 355, 356, 357, 358, 359, 360, 361, 362, 363, 364, 365, 366, 367, 368, 369, 370, 371, 372, 373, 374, 375, 376, 377, 378, 379, 380, 381, 382, 383, 384, 385, 386, 387, 388, 389, 390, 391, 392, 393, 394, 395, 396, 397, 398, 399, 400, 401, 402, 403, 404, 405, 406, 407, 408, 409, 410, 411, 412, 413, 414, 415, 416, 417, 418, 419, 420, 421, 422, 423, 424, 425, 426, 427, 428, 429, 430, 431, 432, 433, 434, 435, 436, 437, 438, 439, 440, 441, 442, 443, 444, 445, 446, 447, 448, 449, 450, 451, 452, 453, 454, 455, 456, 457, 458, 459, 460, 461, 462, 463, 464, 465, 466, 467, 468, 469, 470, 471, 472, 473, 474, 475, 476, 477, 478, 479, 480, 481, 482, 483, 484, 485, 486, 487, 488, 489, 490, 491, 492, 493, 494, 495, 496, 497, 498, 499, 500, 501, 502, 503, 504, 505, 506, 507, 508, 509, 510, 511, 512, 513, 514, 515, 516, 517, 518, 519, 520, 521, 522, 523, 524, 525, 526, 527, 528, 529, 530, 531, 532, 533, 534, 535, 536, 537, 538, 539, 540, 541, 542, 543, 544, 545, 546, 547, 548, 549, 550, 551, 552, 553, 554, 555, 556, 557, 558, 559, 560, 561, 562, 563, 564, 565, 566, 567, 568, 569, 570, 571, 572, 573, 574, 575, 576, 577, 578, 579, 580, 581, 582, 583, 584, 585, 586, 587, 588, 589, 590, 591, 592, 593, 594, 595, 596, 597, 598, 599, 600, 601, 602, 603, 604, 605, 606, 607, 608, 609, 610, 611, 612, 613, 614, 615, 616, 617, 618, 619, 620, 621, 622, 623, 624, 625, 626, 627, 628, 629, 630, 631, 632, 633, 634, 635, 636, 637, 638, 639, 640, 641, 642, 643, 644, 645, 646, 647, 648, 649, 650, 651, 652, 653, 654, 655, 656, 657, 658, 659, 660, 661, 662, 663, 664, 665, 666, 667, 668, 669, 670, 671, 672, 673, 674, 675, 676, 677, 678, 679, 680, 681, 682, 683, 684, 685, 686, 687, 688, 689, 690, 691, 692, 693, 694, 695, 696, 697, 698, 699, 700, 701, 702, 703, 704, 705, 706, 707, 708, 709, 710, 711, 712, 713, 714, 715, 716, 717, 718, 719, 720, 721, 722, 723, 724, 725, 726, 727, 728, 729, 730, 731, 732, 733, 734, 735, 736, 737, 738, 739, 740, 741, 742, 743, 744, 745, 746, 747, 748, 749, 750, 751, 752, 753, 754, 755, 756, 757, 758, 759, 760, 761, 762, 763, 764, 765, 766, 767, 768, 769, 770, 771, 772, 773, 774, 775, 776, 777, 778, 779, 780, 781, 782, 783, 784, 785, 786, 787, 788, 789, 790, 791, 792, 793, 794, 795, 796, 797, 798, 799, 800, 801, 802, 803, 804, 805, 806, 807, 808, 809, 810, 811, 812, 813, 814, 815, 816, 817, 818, 819, 820, 821, 822, 823, 824, 825, 826, 827, 828, 829, 830, 831, 832, 833, 834, 835, 836, 837, 838, 839, 840, 841, 842, 843, 844, 845, 846, 847, 848, 849, 850, 851, 852, 853, 854, 855, 856, 857, 858, 859, 860, 861, 862, 863, 864, 865, 866, 867, 868, 869, 870, 871, 872],
      "AcquisitionTime": ["190328.745000", "190329.205000", "190329.665000", "190330.125000", "190330.585000", "190331.045000", "190331.505000", "190331.965000", "190332.425000", "190332.885000", "190333.345000", "190333.805000", "190334.265000", "190334.725000", "190335.185000", "190335.645000", "190336.105000", "190336.565000", "190337.025000", "190337.485000", "190337.945000", "190338.405000", "190338.865000", "190339.325000", "190339.785000", "190340.245000", "190340.705000", "190341.165000", "190341.625000", "190342.085000", "190342.545000", "190343.005000", "190343.465000", "190343.925000", "190344.385000", "190344.845000", "190345.305000", "190345.765000", "190346.225000", "190346.685000", "190347.145000", "190347.605000", "190348.065000", "190348.525000", "190348.985000", "190349.445000", "190349.905000", "190350.365000", "190350.825000", "190351.285000", "190351.745000", "190352.205000", "190352.665000", "190353.125000", "190353.585000", "190354.045000", "190354.505000", "190354.965000", "190355.425000", "190355.885000", "190356.345000", "190356.805000", "190357.265000", "190357.725000", "190358.185000", "190358.645000", "190359.105000", "190359.565000", "190400.025000", "190400.485000", "190400.945000", "190401.405000", "190401.865000", "190402.325000", "190402.785000", "190403.245000", "190403.705000", "190404.165000", "190404.625000", "190405.085000", "190405.545000", "190406.005000", "190406.465000", "190406.925000", "190407.385000", "190407.845000", "190408.305000", "190408.765000", "190409.225000", "190409.685000", "190410.145000", "190410.605000", "190411.065000", "190411.525000", "190411.985000", "190412.445000", "190412.905000", "190413.365000", "190413.825000", "190414.285000", "190414.745000", "190415.205000", "190415.665000", "190416.125000", "190416.585000", "190417.045000", "190417.505000", "190417.965000", "190418.425000", "190418.885000", "190419.345000", "190419.805000", "190420.265000", "190420.725000", "190421.185000", "190421.645000", "190422.105000", "190422.565000", "190423.025000", "190423.485000", "190423.945000", "190424.405000", "190424.865000", "190425.325000", "190425.785000", "190426.245000", "190426.705000", "190427.165000", "190427.625000", "190428.085000", "190428.545000", "190429.005000", "190429.465000", "190429.925000", "190430.385000", "190430.845000", "190431.305000", "190431.765000", "190432.225000", "190432.685000", "190433.145000", "190433.605000", "190434.065000", "190434.525000", "190434.985000", "190435.445000", "190435.905000", "190436.365000", "190436.825000", "190437.285000", "190437.745000", "190438.205000", "190438.665000", "190439.125000", "190439.585000", "190440.045000", "190440.505000", "190440.965000", "190441.425000", "190441.885000", "190442.345000", "190442.805000", "190443.265000", "190443.725000", "190444.185000", "190444.645000", "190445.105000", "190445.565000", "190446.025000", "190446.485000", "190446.945000", "190447.405000", "190447.865000", "190448.325000", "190448.785000", "190449.245000", "190449.705000", "190450.165000", "190450.625000", "190451.085000", "190451.545000", "190452.005000", "190452.465000", "190452.925000", "190453.385000", "190453.845000", "190454.305000", "190454.765000", "190455.225000", "190455.685000", "190456.145000", "190456.605000", "190457.065000", "190457.525000", "190457.985000", "190458.445000", "190458.905000", "190459.365000", "190459.825000", "190500.285000", "190500.745000", "190501.205000", "190501.665000", "190502.125000", "190502.585000", "190503.045000", "190503.505000", "190503.965000", "190504.425000", "190504.885000", "190505.345000", "190505.805000", "190506.265000", "190506.725000", "190507.185000", "190507.645000", "190508.105000", "190508.565000", "190509.025000", "190509.485000", "190509.945000", "190510.405000", "190510.865000", "190511.325000", "190511.785000", "190512.245000", "190512.705000", "190513.165000", "190513.625000", "190514.085000", "190514.545000", "190515.005000", "190515.465000", "190515.925000", "190516.385000", "190516.845000", "190517.305000", "190517.765000", "190518.225000", "190518.685000", "190519.145000", "190519.605000", "190520.065000", "190520.525000", "190520.985000", "190521.445000", "190521.905000", "190522.365000", "190522.825000", "190523.285000", "190523.745000", "190524.205000", "190524.665000", "190525.125000", "190525.585000", "190526.045000", "190526.505000", "190526.965000", "190527.425000", "190527.885000", "190528.345000", "190528.805000", "190529.265000", "190529.725000", "190530.185000", "190530.645000", "190531.105000", "190531.565000", "190532.025000", "190532.485000", "190532.945000", "190533.405000", "190533.865000", "190534.325000", "190534.785000", "190535.245000", "190535.705000", "190536.165000", "190536.625000", "190537.085000", "190537.545000", "190538.005000", "190538.465000", "190538.925000", "190539.385000", "190539.845000", "190540.305000", "190540.765000", "190541.225000", "190541.685000", "190542.145000", "190542.605000", "190543.065000", "190543.525000", "190543.985000", "190544.445000", "190544.905000", "190545.365000", "190545.825000", "190546.285000", "190546.745000", "190547.205000", "190547.665000", "190548.125000", "190548.585000", "190549.045000", "190549.505000", "190549.965000", "190550.425000", "190550.885000", "190551.345000", "190551.805000", "190552.265000", "190552.725000", "190553.185000", "190553.645000", "190554.105000", "190554.565000", "190555.025000", "190555.485000", "190555.945000", "190556.405000", "190556.865000", "190557.325000", "190557.785000", "190558.245000", "190558.705000", "190559.165000", "190559.625000", "190600.085000", "190600.545000", "190601.005000", "190601.465000", "190601.925000", "190602.385000", "190602.845000", "190603.305000", "190603.765000", "190604.225000", "190604.685000", "190605.145000", "190605.605000", "190606.065000", "190606.525000", "190606.985000", "190607.445000", "190607.905000", "190608.365000", "190608.825000", "190609.285000", "190609.745000", "190610.205000", "190610.665000", "190611.125000", "190611.585000", "190612.045000", "190612.505000", "190612.965000", "190613.425000", "190613.885000", "190614.345000", "190614.805000", "190615.265000", "190615.725000", "190616.185000", "190616.645000", "190617.105000", "190617.565000", "190618.025000", "190618.485000", "190618.945000", "190619.405000", "190619.865000", "190620.325000", "190620.785000", "190621.245000", "190621.705000", "190622.165000", "190622.625000", "190623.085000", "190623.545000", "190624.005000", "190624.465000", "190624.925000", "190625.385000", "190625.845000", "190626.305000", "190626.765000", "190627.225000", "190627.685000", "190628.145000", "190628.605000", "190629.065000", "190629.525000", "190629.985000", "190630.445000", "190630.905000", "190631.365000", "190631.825000", "190632.285000", "190632.745000", "190633.205000", "190633.665000", "190634.125000", "190634.585000", "190635.045000", "190635.505000", "190635.965000", "190636.425000", "190636.885000", "190637.345000", "190637.805000", "190638.265000", "190638.725000", "190639.185000", "190639.645000", "190640.105000", "190640.565000", "190641.025000", "190641.485000", "190641.945000", "190642.405000", "190642.865000", "190643.325000", "190643.785000", "190644.245000", "190644.705000", "190645.165000", "190645.625000", "190646.085000", "190646.545000", "190647.005000", "190647.465000", "190647.925000", "190648.385000", "190648.845000", "190649.305000", "190649.765000", "190650.225000", "190650.685000", "190651.145000", "190651.605000", "190652.065000", "190652.525000", "190652.985000", "190653.445000", "190653.905000", "190654.365000", "190654.825000", "190655.285000", "190655.745000", "190656.205000", "190656.665000", "190657.125000", "190657.585000", "190658.045000", "190658.505000", "190658.965000", "190659.425000", "190659.885000", "190700.345000", "190700.805000", "190701.265000", "190701.725000", "190702.185000", "190702.645000", "190703.105000", "190703.565000", "190704.025000", "190704.485000", "190704.945000", "190705.405000", "190705.865000", "190706.325000", "190706.785000", "190707.245000", "190707.705000", "190708.165000", "190708.625000", "190709.085000", "190709.545000", "190710.005000", "190710.465000", "190710.925000", "190711.385000", "190711.845000", "190712.305000", "190712.765000", "190713.225000", "190713.685000", "190714.145000", "190714.605000", "190715.065000", "190715.525000", "190715.985000", "190716.445000", "190716.905000", "190717.365000", "190717.825000", "190718.285000", "190718.745000", "190719.205000", "190719.665000", "190720.125000", "190720.585000", "190721.045000", "190721.505000", "190721.965000", "190722.425000", "190722.885000", "190723.345000", "190723.805000", "190724.265000", "190724.725000", "190725.185000", "190725.645000", "190726.105000", "190726.565000", "190727.025000", "190727.485000", "190727.945000", "190728.405000", "190728.865000", "190729.325000", "190729.785000", "190730.245000", "190730.705000", "190731.165000", "190731.625000", "190732.085000", "190732.545000", "190733.005000", "190733.465000", "190733.925000", "190734.385000", "190734.845000", "190735.305000", "190735.765000", "190736.225000", "190736.685000", "190737.145000", "190737.605000", "190738.065000", "190738.525000", "190738.985000", "190739.445000", "190739.905000", "190740.365000", "190740.825000", "190741.285000", "190741.745000", "190742.205000", "190742.665000", "190743.125000", "190743.585000", "190744.045000", "190744.505000", "190744.965000", "190745.425000", "190745.885000", "190746.345000", "190746.805000", "190747.265000", "190747.725000", "190748.185000", "190748.645000", "190749.105000", "190749.565000", "190750.025000", "190750.485000", "190750.945000", "190751.405000", "190751.865000", "190752.325000", "190752.785000", "190753.245000", "190753.705000", "190754.165000", "190754.625000", "190755.085000", "190755.545000", "190756.005000", "190756.465000", "190756.925000", "190757.385000", "190757.845000", "190758.305000", "190758.765000", "190759.225000", "190759.685000", "190800.145000", "190800.605000", "190801.065000", "190801.525000", "190801.985000", "190802.445000", "190802.905000", "190803.365000", "190803.825000", "190804.285000", "190804.745000", "190805.205000", "190805.665000", "190806.125000", "190806.585000", "190807.045000", "190807.505000", "190807.965000", "190808.425000", "190808.885000", "190809.345000", "190809.805000", "190810.265000", "190810.725000", "190811.185000", "190811.645000", "190812.105000", "190812.565000", "190813.025000", "190813.485000", "190813.945000", "190814.405000", "190814.865000", "190815.325000", "190815.785000", "190816.245000", "190816.705000", "190817.165000", "190817.625000", "190818.085000", "190818.545000", "190819.005000", "190819.465000", "190819.925000", "190820.385000", "190820.845000", "190821.305000", "190821.765000", "190822.225000", "190822.685000", "190823.145000", "190823.605000", "190824.065000", "190824.525000", "190824.985000", "190825.445000", "190825.905000", "190826.365000", "190826.825000", "190827.285000", "190827.745000", "190828.205000", "190828.665000", "190829.125000", "190829.585000", "190830.045000", "190830.505000", "190830.965000", "190831.425000", "190831.885000", "190832.345000", "190832.805000", "190833.265000", "190833.725000", "190834.185000", "190834.645000", "190835.105000", "190835.565000", "190836.025000", "190836.485000", "190836.945000", "190837.405000", "190837.865000", "190838.325000", "190838.785000", "190839.245000", "190839.705000", "190840.165000", "190840.625000", "190841.085000", "190841.545000", "190842.005000", "190842.465000", "190842.925000", "190843.385000", "190843.845000", "190844.305000", "190844.765000", "190845.225000", "190845.685000", "190846.145000", "190846.605000", "190847.065000", "190847.525000", "190847.985000", "190848.445000", "190848.905000", "190849.365000", "190849.825000", "190850.285000", "190850.745000", "190851.205000", "190851.665000", "190852.125000", "190852.585000", "190853.045000", "190853.505000", "190853.965000", "190854.425000", "190854.885000", "190855.345000", "190855.805000", "190856.265000", "190856.725000", "190857.185000", "190857.645000", "190858.105000", "190858.565000", "190859.025000", "190859.485000", "190859.945000", "190900.405000", "190900.865000", "190901.325000", "190901.785000", "190902.245000", "190902.705000", "190903.165000", "190903.625000", "190904.085000", "190904.545000", "190905.005000", "190905.465000", "190905.925000", "190906.385000", "190906.845000", "190907.305000", "190907.765000", "190908.225000", "190908.685000", "190909.145000", "190909.605000", "190910.065000", "190910.525000", "190910.985000", "190911.445000", "190911.905000", "190912.365000", "190912.825000", "190913.285000", "190913.745000", "190914.205000", "190914.665000", "190915.125000", "190915.585000", "190916.045000", "190916.505000", "190916.965000", "190917.425000", "190917.885000", "190918.345000", "190918.805000", "190919.265000", "190919.725000", "190920.185000", "190920.645000", "190921.105000", "190921.565000", "190922.025000", "190922.485000", "190922.945000", "190923.405000", "190923.865000", "190924.325000", "190924.785000", "190925.245000", "190925.705000", "190926.165000", "190926.625000", "190927.085000", "190927.545000", "190928.005000", "190928.465000", "190928.925000", "190929.385000", "190929.845000", "190930.305000", "190930.765000", "190931.225000", "190931.685000", "190932.145000", "190932.605000", "190933.065000", "190933.525000", "190933.985000", "190934.445000", "190934.905000", "190935.365000", "190935.825000", "190936.285000", "190936.745000", "190937.205000", "190937.665000", "190938.125000", "190938.585000", "190939.045000", "190939.505000", "190939.965000", "190940.425000", "190940.885000", "190941.345000", "190941.805000", "190942.265000", "190942.725000", "190943.185000", "190943.645000", "190944.105000", "190944.565000", "190945.025000", "190945.485000", "190945.945000", "190946.405000", "190946.865000", "190947.325000", "190947.785000", "190948.245000", "190948.705000", "190949.165000", "190949.625000", "190950.085000", "190950.545000", "190951.005000", "190951.465000", "190951.925000", "190952.385000", "190952.845000", "190953.305000", "190953.765000", "190954.225000", "190954.685000", "190955.145000", "190955.605000", "190956.065000", "190956.525000", "190956.985000", "190957.445000", "190957.905000", "190958.365000", "190958.825000", "190959.285000", "190959.745000", "191000.205000", "191000.665000", "191001.125000", "191001.585000", "191002.045000", "191002.505000", "191002.965000", "191003.425000", "191003.885000", "191004.345000", "191004.805000", "191005.265000", "191005.725000", "191006.185000", "191006.645000", "191007.105000", "191007.565000", "191008.025000", "191008.485000", "191008.945000", "191009.405000"],
