{
  "AcquisitionMatrixPE": 82,
  "AcquisitionNumber": 1,
  "AcquisitionTime": "12:20:32.502500",
  "BandwidthPerPixelPhaseEncode": 24.888,
  "BaseResolution": 82,
  "BodyPartExamined": "BRAIN",
  "ConsistencyInfo": "N4_VE11C_LATEST_20160120",
  "ConversionSoftware": "dcm2niix",
  "ConversionSoftwareVersion": "v1.0.20201102",
  "DerivedVendorReportedEchoSpacing": 0.00049,
  "DeviceSerialNumber": "66112",
  "DwellTime": 2e-06,
  "EchoTime": 0.0272,
  "EchoTrainLength": 82,
  "EffectiveEchoSpacing": 0.00049,
  "FlipAngle": 44,
  "ImageComments": "Unaliased MB8/PE3",
  "ImageOrientationPatientDICOM": [0.998759, -0.00450417, 0.0495964, -0.000697288, 0.994539, 0.104362],
  "ImageType": [
    "ORIGINAL",
    "PRIMARY",
    "M",
    "MB",
    "ND",
    "NORM",
    "MOSAIC"
],
  "ImagingFrequency": 123.252,
  "InPlanePhaseEncodingDirectionDICOM": "COL",
  "InstitutionAddress": "Maynard 3,Hanover,NH,US,03755",
  "InstitutionName": "Dartmouth College - PBS",
  "InstitutionalDepartmentName": "Department",
  "MRAcquisitionType": "2D",
  "MagneticFieldStrength": 3,
  "Manufacturer": "Siemens",
  "ManufacturersModelName": "Prisma",
  "Modality": "MR",
  "MultibandAccelerationFactor": 8,
  "PartialFourier": 1,
  "PatientPosition": "HFS",
  "PercentPhaseFOV": 100,
  "PercentSampling": 100,
  "PhaseEncodingDirection": "j-",
  "PhaseEncodingSteps": 82,
  "PhaseResolution": 1,
  "PixelBandwidth": 3050,
  "ProcedureStepDescription": "Wager_Wager^1076_spacetop",
  "ProtocolName": "func_run-01_task-narratives_acq-ap-mb8",
  "PulseSequenceDetails": "%CustomerSeq%\\cmrr_mbep2d_bold",
  "ReceiveCoilActiveElements": "HEA;HEP",
  "ReceiveCoilName": "Head_32",
  "ReconMatrixPE": 82,
  "RepetitionTime": 0.46,
  "SAR": 0.0909546,
  "ScanOptions": "FS",
  "ScanningSequence": "EP",
  "SequenceName": "epfid2d1_82",
  "SequenceVariant": "SK\\SS",
  "SeriesDescription": "func_run-01_task-narratives_acq-ap-mb8",
  "SeriesNumber": 8,
  "ShimSetting": [4149, -7764, -7256, 549, -116, -257, 92, 75],
  "SliceThickness": 2.7,
  "SliceTiming": [0, 0.25, 0.0625, 0.315, 0.125, 0.3775, 0.1875, 0, 0.25, 0.0625, 0.315, 0.125, 0.3775, 0.1875, 0, 0.25, 0.0625, 0.315, 0.125, 0.3775, 0.1875, 0, 0.25, 0.0625, 0.315, 0.125, 0.3775, 0.1875, 0, 0.25, 0.0625, 0.315, 0.125, 0.3775, 0.1875, 0, 0.25, 0.0625, 0.315, 0.125, 0.3775, 0.1875, 0, 0.25, 0.0625, 0.315, 0.125, 0.3775, 0.1875, 0, 0.25, 0.0625, 0.315, 0.125, 0.3775, 0.1875],
  "SoftwareVersions": "syngo MR E11",
  "SpacingBetweenSlices": 2.7,
  "StationName": "AWP66112",
  "TaskName": "narratives",
  "TotalReadoutTime": 0.03969,
  "TxRefAmp": 250.931,
  "WipMemBlock": "91449ee3-6d53-4a25-aeeb-afd4394fbea7||Sequence: R016 ve11c/master r/e634e98; Dec 19 2017 11:00:25 by eja",
  "dcmmeta_affine": [
    [-2.679597854614258, -0.001870771637186408, 0.13444821536540985, 110.52700805664062],
    [0.01208436768501997, 2.6682755947113037, 0.28152215480804443, -95.46971893310547],
    [0.13306353986263275, -0.2799966335296631, 2.681915044784546, -64.48974609375],
    [0.0, 0.0, 0.0, 1.0]
],
  "dcmmeta_reorient_transform": [
    [0.0, -1.0, 0.0, 81.0],
    [1.0, 0.0, 0.0, 0.0],
    [0.0, 0.0, 1.0, 0.0],
    [0.0, 0.0, 0.0, 1.0]
],
  "dcmmeta_shape": [82, 82, 56, 967],
  "dcmmeta_slice_dim": 2,
  "dcmmeta_version": 0.6,
  "global": {
    "const": {
      "AccessionNumber": "A003556",
      "AcquisitionMatrix": [82, 0, 0, 82],
      "AngioFlag": "N",
      "BitsAllocated": 16,
      "BitsStored": 16,
      "BodyPartExamined": "BRAIN",
      "Columns": 656,
      "EchoNumbers": 1,
      "EchoTime": 27.2,
      "EchoTrainLength": 82,
      "FlipAngle": 44.0,
      "HighBit": 15,
      "ImageOrientationPatient": [0.99875918453402, -0.0045041734702, 0.04959640844142, -0.0006972876102, 0.99453909342749, 0.10436237556907],
      "ImagePositionPatient": [-878.88315697018, -882.98752046818, -205.71774194847],
      "ImageType": [
        "ORIGINAL",
        "PRIMARY",
        "M",
        "MB",
        "ND",
        "NORM",
        "MOSAIC"
],
      "ImagedNucleus": "1H",
      "ImagingFrequency": 123.252135,
      "InPlanePhaseEncodingDirection": "COL",
      "MRAcquisitionType": "2D",
      "MagneticFieldStrength": 3.0,
      "Manufacturer": "SIEMENS",
      "ManufacturerModelName": "Prisma",
      "Modality": "MR",
      "NumberOfAverages": 1.0,
      "NumberOfPhaseEncodingSteps": 82,
      "PercentPhaseFieldOfView": 100.0,
      "PercentSampling": 100.0,
      "PerformedProcedureStepStartTime": "115651.810000",
      "PhotometricInterpretation": "MONOCHROME2",
      "PixelBandwidth": 3050.0,
      "PixelRepresentation": 0,
      "PixelSpacing": [2.6829268932343, 2.6829268932343],
      "ProtocolName": "func_run-01_task-narratives_acq-ap-mb8",
      "RepetitionTime": 460.0,
      "Rows": 656,
      "SAR": 0.09095459771581,
      "SamplesPerPixel": 1,
      "ScanOptions": "FS",
      "ScanningSequence": "EP",
      "SequenceName": "epfid2d1_82",
      "SequenceVariant": [
        "SK",
        "SS"
],
      "SeriesDescription": "func_run-01_task-narratives_acq-ap-mb8",
      "SeriesNumber": 8,
      "SeriesTime": "122054.393000",
      "SliceLocation": -68.508413663662,
      "SliceThickness": 2.7000000476837,
      "SmallestImagePixelValue": 0,
      "SoftwareVersions": "syngo MR E11",
      "SpacingBetweenSlices": 2.6999999779908,
      "SpecificCharacterSet": "ISO_IR 100",
      "StudyID": "1",
      "StudyTime": "115651.746000",
      "TransmitCoilName": "Body",
      "VariableFlipAngleFlag": "N",
      "WindowCenterWidthExplanation": "Algo1",
      "dBdt": 0.0},
    "slices": {}
  },
  "time": {
    "samples": {
      "AcquisitionNumber": [1, 2, 3, 4, 5, 6, 7, 8, 9, 10, 11, 12, 13, 14, 15, 16, 17, 18, 19, 20, 21, 22, 23, 24, 25, 26, 27, 28, 29, 30, 31, 32, 33, 34, 35, 36, 37, 38, 39, 40, 41, 42, 43, 44, 45, 46, 47, 48, 49, 50, 51, 52, 53, 54, 55, 56, 57, 58, 59, 60, 61, 62, 63, 64, 65, 66, 67, 68, 69, 70, 71, 72, 73, 74, 75, 76, 77, 78, 79, 80, 81, 82, 83, 84, 85, 86, 87, 88, 89, 90, 91, 92, 93, 94, 95, 96, 97, 98, 99, 100, 101, 102, 103, 104, 105, 106, 107, 108, 109, 110, 111, 112, 113, 114, 115, 116, 117, 118, 119, 120, 121, 122, 123, 124, 125, 126, 127, 128, 129, 130, 131, 132, 133, 134, 135, 136, 137, 138, 139, 140, 141, 142, 143, 144, 145, 146, 147, 148, 149, 150, 151, 152, 153, 154, 155, 156, 157, 158, 159, 160, 161, 162, 163, 164, 165, 166, 167, 168, 169, 170, 171, 172, 173, 174, 175, 176, 177, 178, 179, 180, 181, 182, 183, 184, 185, 186, 187, 188, 189, 190, 191, 192, 193, 194, 195, 196, 197, 198, 199, 200, 201, 202, 203, 204, 205, 206, 207, 208, 209, 210, 211, 212, 213, 214, 215, 216, 217, 218, 219, 220, 221, 222, 223, 224, 225, 226, 227, 228, 229, 230, 231, 232, 233, 234, 235, 236, 237, 238, 239, 240, 241, 242, 243, 244, 245, 246, 247, 248, 249, 250, 251, 252, 253, 254, 255, 256, 257, 258, 259, 260, 261, 262, 263, 264, 265, 266, 267, 268, 269, 270, 271, 272, 273, 274, 275, 276, 277, 278, 279, 280, 281, 282, 283, 284, 285, 286, 287, 288, 289, 290, 291, 292, 293, 294, 295, 296, 297, 298, 299, 300, 301, 302, 303, 304, 305, 306, 307, 308, 309, 310, 311, 312, 313, 314, 315, 316, 317, 318, 319, 320, 321, 322, 323, 324, 325, 326, 327, 328, 329, 330, 331, 332, 333, 334, 335, 336, 337, 338, 339, 340, 341, 342, 343, 344, 345, 346, 347, 348, 349, 350, 351, 352, 353, 354, 355, 356, 357, 358, 359, 360, 361, 362, 363, 364, 365, 366, 367, 368, 369, 370, 371, 372, 373, 374, 375, 376, 377, 378, 379, 380, 381, 382, 383, 384, 385, 386, 387, 388, 389, 390, 391, 392, 393, 394, 395, 396, 397, 398, 399, 400, 401, 402, 403, 404, 405, 406, 407, 408, 409, 410, 411, 412, 413, 414, 415, 416, 417, 418, 419, 420, 421, 422, 423, 424, 425, 426, 427, 428, 429, 430, 431, 432, 433, 434, 435, 436, 437, 438, 439, 440, 441, 442, 443, 444, 445, 446, 447, 448, 449, 450, 451, 452, 453, 454, 455, 456, 457, 458, 459, 460, 461, 462, 463, 464, 465, 466, 467, 468, 469, 470, 471, 472, 473, 474, 475, 476, 477, 478, 479, 480, 481, 482, 483, 484, 485, 486, 487, 488, 489, 490, 491, 492, 493, 494, 495, 496, 497, 498, 499, 500, 501, 502, 503, 504, 505, 506, 507, 508, 509, 510, 511, 512, 513, 514, 515, 516, 517, 518, 519, 520, 521, 522, 523, 524, 525, 526, 527, 528, 529, 530, 531, 532, 533, 534, 535, 536, 537, 538, 539, 540, 541, 542, 543, 544, 545, 546, 547, 548, 549, 550, 551, 552, 553, 554, 555, 556, 557, 558, 559, 560, 561, 562, 563, 564, 565, 566, 567, 568, 569, 570, 571, 572, 573, 574, 575, 576, 577, 578, 579, 580, 581, 582, 583, 584, 585, 586, 587, 588, 589, 590, 591, 592, 593, 594, 595, 596, 597, 598, 599, 600, 601, 602, 603, 604, 605, 606, 607, 608, 609, 610, 611, 612, 613, 614, 615, 616, 617, 618, 619, 620, 621, 622, 623, 624, 625, 626, 627, 628, 629, 630, 631, 632, 633, 634, 635, 636, 637, 638, 639, 640, 641, 642, 643, 644, 645, 646, 647, 648, 649, 650, 651, 652, 653, 654, 655, 656, 657, 658, 659, 660, 661, 662, 663, 664, 665, 666, 667, 668, 669, 670, 671, 672, 673, 674, 675, 676, 677, 678, 679, 680, 681, 682, 683, 684, 685, 686, 687, 688, 689, 690, 691, 692, 693, 694, 695, 696, 697, 698, 699, 700, 701, 702, 703, 704, 705, 706, 707, 708, 709, 710, 711, 712, 713, 714, 715, 716, 717, 718, 719, 720, 721, 722, 723, 724, 725, 726, 727, 728, 729, 730, 731, 732, 733, 734, 735, 736, 737, 738, 739, 740, 741, 742, 743, 744, 745, 746, 747, 748, 749, 750, 751, 752, 753, 754, 755, 756, 757, 758, 759, 760, 761, 762, 763, 764, 765, 766, 767, 768, 769, 770, 771, 772, 773, 774, 775, 776, 777, 778, 779, 780, 781, 782, 783, 784, 785, 786, 787, 788, 789, 790, 791, 792, 793, 794, 795, 796, 797, 798, 799, 800, 801, 802, 803, 804, 805, 806, 807, 808, 809, 810, 811, 812, 813, 814, 815, 816, 817, 818, 819, 820, 821, 822, 823, 824, 825, 826, 827, 828, 829, 830, 831, 832, 833, 834, 835, 836, 837, 838, 839, 840, 841, 842, 843, 844, 845, 846, 847, 848, 849, 850, 851, 852, 853, 854, 855, 856, 857, 858, 859, 860, 861, 862, 863, 864, 865, 866, 867, 868, 869, 870, 871, 872, 873, 874, 875, 876, 877, 878, 879, 880, 881, 882, 883, 884, 885, 886, 887, 888, 889, 890, 891, 892, 893, 894, 895, 896, 897, 898, 899, 900, 901, 902, 903, 904, 905, 906, 907, 908, 909, 910, 911, 912, 913, 914, 915, 916, 917, 918, 919, 920, 921, 922, 923, 924, 925, 926, 927, 928, 929, 930, 931, 932, 933, 934, 935, 936, 937, 938, 939, 940, 941, 942, 943, 944, 945, 946, 947, 948, 949, 950, 951, 952, 953, 954, 955, 956, 957, 958, 959, 960, 961, 962, 963, 964, 965, 966, 967],
      "AcquisitionTime": ["122032.502500", "122032.962500", "122033.422500", "122033.882500", "122034.342500", "122034.802500", "122035.262500", "122035.722500", "122036.182500", "122036.642500", "122037.102500", "122037.562500", "122038.022500", "122038.482500", "122038.942500", "122039.402500", "122039.862500", "122040.322500", "122040.782500", "122041.242500", "122041.702500", "122042.162500", "122042.622500", "122043.082500", "122043.542500", "122044.002500", "122044.462500", "122044.922500", "122045.382500", "122045.842500", "122046.302500", "122046.762500", "122047.222500", "122047.682500", "122048.142500", "122048.602500", "122049.062500", "122049.522500", "122049.982500", "122050.442500", "122050.902500", "122051.362500", "122051.822500", "122052.282500", "122052.742500", "122053.202500", "122053.662500", "122054.122500", "122054.582500", "122055.042500", "122055.502500", "122055.962500", "122056.422500", "122056.882500", "122057.342500", "122057.802500", "122058.262500", "122058.722500", "122059.182500", "122059.642500", "122100.102500", "122100.562500", "122101.022500", "122101.482500", "122101.942500", "122102.402500", "122102.862500", "122103.322500", "122103.782500", "122104.242500", "122104.702500", "122105.162500", "122105.622500", "122106.082500", "122106.542500", "122107.002500", "122107.462500", "122107.922500", "122108.382500", "122108.842500", "122109.302500", "122109.762500", "122110.222500", "122110.682500", "122111.142500", "122111.602500", "122112.062500", "122112.522500", "122112.982500", "122113.442500", "122113.902500", "122114.362500", "122114.822500", "122115.282500", "122115.742500", "122116.202500", "122116.662500", "122117.122500", "122117.582500", "122118.042500", "122118.502500", "122118.962500", "122119.422500", "122119.882500", "122120.342500", "122120.802500", "122121.262500", "122121.722500", "122122.182500", "122122.642500", "122123.102500", "122123.562500", "122124.022500", "122124.482500", "122124.942500", "122125.402500", "122125.862500", "122126.322500", "122126.782500", "122127.242500", "122127.702500", "122128.162500", "122128.622500", "122129.082500", "122129.542500", "122130.002500", "122130.462500", "122130.922500", "122131.382500", "122131.842500", "122132.302500", "122132.762500", "122133.222500", "122133.682500", "122134.142500", "122134.602500", "122135.062500", "122135.522500", "122135.982500", "122136.442500", "122136.902500", "122137.362500", "122137.822500", "122138.282500", "122138.742500", "122139.202500", "122139.662500", "122140.122500", "122140.582500", "122141.042500", "122141.502500", "122141.962500", "122142.422500", "122142.882500", "122143.342500", "122143.802500", "122144.262500", "122144.722500", "122145.182500", "122145.642500", "122146.102500", "122146.562500", "122147.022500", "122147.482500", "122147.942500", "122148.402500", "122148.862500", "122149.322500", "122149.782500", "122150.242500", "122150.702500", "122151.162500", "122151.622500", "122152.082500", "122152.542500", "122153.002500", "122153.462500", "122153.922500", "122154.382500", "122154.842500", "122155.302500", "122155.762500", "122156.222500", "122156.682500", "122157.142500", "122157.602500", "122158.062500", "122158.522500", "122158.982500", "122159.442500", "122159.902500", "122200.362500", "122200.822500", "122201.282500", "122201.742500", "122202.202500", "122202.662500", "122203.122500", "122203.582500", "122204.042500", "122204.502500", "122204.962500", "122205.422500", "122205.882500", "122206.342500", "122206.802500", "122207.262500", "122207.722500", "122208.182500", "122208.642500", "122209.102500", "122209.562500", "122210.022500", "122210.482500", "122210.942500", "122211.402500", "122211.862500", "122212.322500", "122212.782500", "122213.242500", "122213.702500", "122214.162500", "122214.622500", "122215.082500", "122215.542500", "122216.002500", "122216.462500", "122216.922500", "122217.382500", "122217.842500", "122218.302500", "122218.762500", "122219.222500", "122219.682500", "122220.142500", "122220.602500", "122221.062500", "122221.522500", "122221.982500", "122222.442500", "122222.902500", "122223.362500", "122223.822500", "122224.282500", "122224.742500", "122225.202500", "122225.662500", "122226.122500", "122226.582500", "122227.042500", "122227.502500", "122227.962500", "122228.422500", "122228.882500", "122229.342500", "122229.802500", "122230.262500", "122230.722500", "122231.182500", "122231.642500", "122232.102500", "122232.562500", "122233.022500", "122233.482500", "122233.942500", "122234.402500", "122234.862500", "122235.322500", "122235.782500", "122236.242500", "122236.702500", "122237.162500", "122237.622500", "122238.082500", "122238.542500", "122239.002500", "122239.462500", "122239.922500", "122240.382500", "122240.842500", "122241.302500", "122241.762500", "122242.222500", "122242.682500", "122243.142500", "122243.602500", "122244.062500", "122244.522500", "122244.982500", "122245.442500", "122245.902500", "122246.362500", "122246.822500", "122247.282500", "122247.742500", "122248.202500", "122248.662500", "122249.122500", "122249.582500", "122250.042500", "122250.502500", "122250.962500", "122251.422500", "122251.882500", "122252.342500", "122252.802500", "122253.262500", "122253.722500", "122254.182500", "122254.642500", "122255.102500", "122255.562500", "122256.022500", "122256.482500", "122256.942500", "122257.402500", "122257.862500", "122258.322500", "122258.782500", "122259.242500", "122259.702500", "122300.162500", "122300.622500", "122301.082500", "122301.542500", "122302.002500", "122302.462500", "122302.922500", "122303.382500", "122303.842500", "122304.302500", "122304.762500", "122305.222500", "122305.682500", "122306.142500", "122306.602500", "122307.062500", "122307.522500", "122307.982500", "122308.442500", "122308.902500", "122309.362500", "122309.822500", "122310.282500", "122310.742500", "122311.202500", "122311.662500", "122312.122500", "122312.582500", "122313.042500", "122313.502500", "122313.962500", "122314.422500", "122314.882500", "122315.342500", "122315.802500", "122316.262500", "122316.722500", "122317.182500", "122317.642500", "122318.102500", "122318.562500", "122319.022500", "122319.482500", "122319.942500", "122320.402500", "122320.862500", "122321.322500", "122321.782500", "122322.242500", "122322.702500", "122323.162500", "122323.622500", "122324.082500", "122324.542500", "122325.002500", "122325.462500", "122325.922500", "122326.382500", "122326.842500", "122327.302500", "122327.762500", "122328.222500", "122328.682500", "122329.142500", "122329.602500", "122330.062500", "122330.522500", "122330.982500", "122331.442500", "122331.902500", "122332.362500", "122332.822500", "122333.282500", "122333.742500", "122334.202500", "122334.662500", "122335.122500", "122335.582500", "122336.042500", "122336.502500", "122336.962500", "122337.422500", "122337.882500", "122338.342500", "122338.802500", "122339.262500", "122339.722500", "122340.182500", "122340.642500", "122341.102500", "122341.562500", "122342.022500", "122342.482500", "122342.942500", "122343.402500", "122343.862500", "122344.322500", "122344.782500", "122345.242500", "122345.702500", "122346.162500", "122346.622500", "122347.082500", "122347.542500", "122348.002500", "122348.462500", "122348.922500", "122349.382500", "122349.842500", "122350.302500", "122350.762500", "122351.222500", "122351.682500", "122352.142500", "122352.602500", "122353.062500", "122353.522500", "122353.982500", "122354.442500", "122354.902500", "122355.362500", "122355.822500", "122356.282500", "122356.742500", "122357.202500", "122357.662500", "122358.122500", "122358.582500", "122359.042500", "122359.502500", "122359.962500", "122400.422500", "122400.882500", "122401.342500", "122401.802500", "122402.262500", "122402.722500", "122403.182500", "122403.642500", "122404.102500", "122404.562500", "122405.022500", "122405.482500", "122405.942500", "122406.402500", "122406.862500", "122407.322500", "122407.782500", "122408.242500", "122408.702500", "122409.162500", "122409.622500", "122410.082500", "122410.542500", "122411.002500", "122411.462500", "122411.922500", "122412.382500", "122412.842500", "122413.302500", "122413.762500", "122414.222500", "122414.682500", "122415.142500", "122415.602500", "122416.062500", "122416.522500", "122416.982500", "122417.442500", "122417.902500", "122418.362500", "122418.822500", "122419.282500", "122419.742500", "122420.202500", "122420.662500", "122421.122500", "122421.582500", "122422.042500", "122422.502500", "122422.962500", "122423.422500", "122423.882500", "122424.342500", "122424.802500", "122425.262500", "122425.722500", "122426.182500", "122426.642500", "122427.102500", "122427.562500", "122428.022500", "122428.482500", "122428.942500", "122429.402500", "122429.862500", "122430.322500", "122430.782500", "122431.242500", "122431.702500", "122432.162500", "122432.622500", "122433.082500", "122433.542500", "122434.002500", "122434.462500", "122434.922500", "122435.382500", "122435.842500", "122436.302500", "122436.762500", "122437.222500", "122437.682500", "122438.142500", "122438.602500", "122439.062500", "122439.522500", "122439.982500", "122440.442500", "122440.902500", "122441.362500", "122441.822500", "122442.282500", "122442.742500", "122443.202500", "122443.662500", "122444.122500", "122444.582500", "122445.042500", "122445.502500", "122445.962500", "122446.422500", "122446.882500", "122447.342500", "122447.802500", "122448.262500", "122448.722500", "122449.182500", "122449.642500", "122450.102500", "122450.562500", "122451.022500", "122451.482500", "122451.942500", "122452.402500", "122452.862500", "122453.322500", "122453.782500", "122454.242500", "122454.702500", "122455.162500", "122455.622500", "122456.082500", "122456.542500", "122457.002500", "122457.462500", "122457.922500", "122458.382500", "122458.842500", "122459.302500", "122459.762500", "122500.222500", "122500.682500", "122501.142500", "122501.602500", "122502.062500", "122502.522500", "122502.982500", "122503.442500", "122503.902500", "122504.362500", "122504.822500", "122505.282500", "122505.742500", "122506.202500", "122506.662500", "122507.122500", "122507.582500", "122508.042500", "122508.502500", "122508.962500", "122509.422500", "122509.882500", "122510.342500", "122510.802500", "122511.262500", "122511.722500", "122512.182500", "122512.642500", "122513.102500", "122513.562500", "122514.022500", "122514.482500", "122514.942500", "122515.402500", "122515.862500", "122516.322500", "122516.782500", "122517.242500", "122517.702500", "122518.162500", "122518.622500", "122519.082500", "122519.542500", "122520.002500", "122520.462500", "122520.922500", "122521.382500", "122521.842500", "122522.302500", "122522.762500", "122523.222500", "122523.682500", "122524.142500", "122524.602500", "122525.062500", "122525.522500", "122525.982500", "122526.442500", "122526.902500", "122527.362500", "122527.822500", "122528.282500", "122528.742500", "122529.202500", "122529.662500", "122530.122500", "122530.582500", "122531.042500", "122531.502500", "122531.962500", "122532.422500", "122532.882500", "122533.342500", "122533.802500", "122534.262500", "122534.722500", "122535.182500", "122535.642500", "122536.102500", "122536.562500", "122537.022500", "122537.482500", "122537.942500", "122538.402500", "122538.862500", "122539.322500", "122539.782500", "122540.242500", "122540.702500", "122541.162500", "122541.622500", "122542.082500", "122542.542500", "122543.002500", "122543.462500", "122543.922500", "122544.382500", "122544.842500", "122545.302500", "122545.762500", "122546.222500", "122546.682500", "122547.142500", "122547.602500", "122548.062500", "122548.522500", "122548.982500", "122549.442500", "122549.902500", "122550.362500", "122550.822500", "122551.282500", "122551.742500", "122552.202500", "122552.662500", "122553.122500", "122553.582500", "122554.042500", "122554.502500", "122554.962500", "122555.422500", "122555.882500", "122556.342500", "122556.802500", "122557.262500", "122557.722500", "122558.182500", "122558.642500", "122559.102500", "122559.562500", "122600.022500", "122600.482500", "122600.942500", "122601.402500", "122601.862500", "122602.322500", "122602.782500", "122603.242500", "122603.702500", "122604.162500", "122604.622500", "122605.082500", "122605.542500", "122606.002500", "122606.462500", "122606.922500", "122607.382500", "122607.842500", "122608.302500", "122608.762500", "122609.222500", "122609.682500", "122610.142500", "122610.602500", "122611.062500", "122611.522500", "122611.982500", "122612.442500", "122612.902500", "122613.362500", "122613.822500", "122614.282500", "122614.742500", "122615.202500", "122615.662500", "122616.122500", "122616.582500", "122617.042500", "122617.502500", "122617.962500", "122618.422500", "122618.882500", "122619.342500", "122619.802500", "122620.262500", "122620.722500", "122621.182500", "122621.642500", "122622.102500", "122622.562500", "122623.022500", "122623.482500", "122623.942500", "122624.402500", "122624.862500", "122625.322500", "122625.782500", "122626.242500", "122626.702500", "122627.162500", "122627.622500", "122628.082500", "122628.542500", "122629.002500", "122629.462500", "122629.922500", "122630.382500", "122630.842500", "122631.302500", "122631.762500", "122632.222500", "122632.682500", "122633.142500", "122633.602500", "122634.062500", "122634.522500", "122634.982500", "122635.442500", "122635.902500", "122636.362500", "122636.822500", "122637.282500", "122637.742500", "122638.202500", "122638.662500", "122639.122500", "122639.582500", "122640.042500", "122640.502500", "122640.962500", "122641.422500", "122641.882500", "122642.342500", "122642.802500", "122643.262500", "122643.722500", "122644.182500", "122644.642500", "122645.102500", "122645.562500", "122646.022500", "122646.482500", "122646.942500", "122647.402500", "122647.862500", "122648.322500", "122648.782500", "122649.242500", "122649.702500", "122650.162500", "122650.622500", "122651.082500", "122651.542500", "122652.002500", "122652.462500", "122652.922500", "122653.382500", "122653.842500", "122654.302500", "122654.762500", "122655.222500", "122655.682500", "122656.142500", "122656.602500", "122657.062500", "122657.522500", "122657.982500", "122658.442500", "122658.902500", "122659.362500", "122659.822500", "122700.282500", "122700.742500", "122701.202500", "122701.662500", "122702.122500", "122702.582500", "122703.042500", "122703.502500", "122703.962500", "122704.422500", "122704.882500", "122705.342500", "122705.802500", "122706.262500", "122706.722500", "122707.182500", "122707.642500", "122708.102500", "122708.562500", "122709.022500", "122709.482500", "122709.942500", "122710.402500", "122710.862500", "122711.322500", "122711.782500", "122712.242500", "122712.702500", "122713.162500", "122713.622500", "122714.082500", "122714.542500", "122715.002500", "122715.462500", "122715.922500", "122716.382500", "122716.842500", "122717.302500", "122717.762500", "122718.222500", "122718.682500", "122719.142500", "122719.602500", "122720.062500", "122720.522500", "122720.982500", "122721.442500", "122721.902500", "122722.362500", "122722.822500", "122723.282500", "122723.742500", "122724.202500", "122724.662500", "122725.122500", "122725.582500", "122726.042500", "122726.502500", "122726.962500", "122727.422500", "122727.882500", "122728.342500", "122728.802500", "122729.262500", "122729.722500", "122730.182500", "122730.642500", "122731.102500", "122731.562500", "122732.022500", "122732.482500", "122732.942500", "122733.402500", "122733.862500", "122734.322500", "122734.782500", "122735.242500", "122735.702500", "122736.162500", "122736.622500", "122737.082500", "122737.542500", "122738.002500", "122738.462500", "122738.922500", "122739.382500", "122739.842500", "122740.302500", "122740.762500", "122741.222500", "122741.682500", "122742.142500", "122742.602500", "122743.062500", "122743.522500", "122743.982500", "122744.442500", "122744.902500", "122745.362500", "122745.822500", "122746.282500", "122746.742500", "122747.202500", "122747.662500", "122748.122500", "122748.582500", "122749.042500", "122749.502500", "122749.962500", "122750.422500", "122750.882500", "122751.342500", "122751.802500", "122752.262500", "122752.722500", "122753.182500", "122753.642500", "122754.102500", "122754.562500", "122755.022500", "122755.482500", "122755.942500", "122756.402500", "122756.862500"],
