{
  "AcquisitionMatrixPE": 82,
  "AcquisitionNumber": 1,
  "AcquisitionTime": "12:57:44.150000",
  "BandwidthPerPixelPhaseEncode": 24.888,
  "BaseResolution": 82,
  "BodyPartExamined": "BRAIN",
  "ConsistencyInfo": "N4_VE11C_LATEST_20160120",
  "ConversionSoftware": "dcm2niix",
  "ConversionSoftwareVersion": "v1.0.20201102",
  "DerivedVendorReportedEchoSpacing": 0.00049,
  "DeviceSerialNumber": "66112",
  "DwellTime": 2e-06,
  "EchoTime": 0.0272,
  "EchoTrainLength": 82,
  "EffectiveEchoSpacing": 0.00049,
  "FlipAngle": 44,
  "ImageComments": "Unaliased MB8/PE3",
  "ImageOrientationPatientDICOM": [0.998759, -0.00450417, 0.0495964, -0.000697288, 0.994539, 0.104362],
  "ImageType": [
    "ORIGINAL",
    "PRIMARY",
    "M",
    "MB",
    "ND",
    "NORM",
    "MOSAIC"
],
  "ImagingFrequency": 123.252,
  "InPlanePhaseEncodingDirectionDICOM": "COL",
  "InstitutionAddress": "Maynard 3,Hanover,NH,US,03755",
  "InstitutionName": "Dartmouth College - PBS",
  "InstitutionalDepartmentName": "Department",
  "MRAcquisitionType": "2D",
  "MagneticFieldStrength": 3,
  "Manufacturer": "Siemens",
  "ManufacturersModelName": "Prisma",
  "Modality": "MR",
  "MultibandAccelerationFactor": 8,
  "PartialFourier": 1,
  "PatientPosition": "HFS",
  "PercentPhaseFOV": 100,
  "PercentSampling": 100,
  "PhaseEncodingDirection": "j-",
  "PhaseEncodingSteps": 82,
  "PhaseResolution": 1,
  "PixelBandwidth": 3050,
  "ProcedureStepDescription": "Wager_Wager^1076_spacetop",
  "ProtocolName": "func_run-01_task-faces_acq-ap-mb8",
  "PulseSequenceDetails": "%CustomerSeq%\\cmrr_mbep2d_bold",
  "ReceiveCoilActiveElements": "HEA;HEP",
  "ReceiveCoilName": "Head_32",
  "ReconMatrixPE": 82,
  "RepetitionTime": 0.46,
  "SAR": 0.090925,
  "ScanOptions": "FS",
  "ScanningSequence": "EP",
  "SequenceName": "epfid2d1_82",
  "SequenceVariant": "SK\\SS",
  "SeriesDescription": "func_run-01_task-faces_acq-ap-mb8",
  "SeriesNumber": 16,
  "ShimSetting": [4149, -7764, -7256, 549, -116, -257, 92, 75],
  "SliceThickness": 2.7,
  "SliceTiming": [0, 0.2525, 0.065, 0.315, 0.1275, 0.3775, 0.19, 0, 0.2525, 0.065, 0.315, 0.1275, 0.3775, 0.19, 0, 0.2525, 0.065, 0.315, 0.1275, 0.3775, 0.19, 0, 0.2525, 0.065, 0.315, 0.1275, 0.3775, 0.19, 0, 0.2525, 0.065, 0.315, 0.1275, 0.3775, 0.19, 0, 0.2525, 0.065, 0.315, 0.1275, 0.3775, 0.19, 0, 0.2525, 0.065, 0.315, 0.1275, 0.3775, 0.19, 0, 0.2525, 0.065, 0.315, 0.1275, 0.3775, 0.19],
  "SoftwareVersions": "syngo MR E11",
  "SpacingBetweenSlices": 2.7,
  "StationName": "AWP66112",
  "TaskName": "faces",
  "TotalReadoutTime": 0.03969,
  "TxRefAmp": 250.931,
  "WipMemBlock": "3f40f6f5-f701-4bb9-bf43-30614baf4457||Sequence: R016 ve11c/master r/e634e98; Dec 19 2017 11:00:25 by eja",
  "dcmmeta_affine": [
    [-2.679597854614258, -0.001870771637186408, 0.13444821536540985, 110.52700805664062],
    [0.01208436768501997, 2.6682755947113037, 0.28152215480804443, -95.46971893310547],
    [0.13306353986263275, -0.2799966335296631, 2.681915044784546, -64.48974609375],
    [0.0, 0.0, 0.0, 1.0]
],
  "dcmmeta_reorient_transform": [
    [0.0, -1.0, 0.0, 81.0],
    [1.0, 0.0, 0.0, 0.0],
    [0.0, 0.0, 1.0, 0.0],
    [0.0, 0.0, 0.0, 1.0]
],
  "dcmmeta_shape": [82, 82, 56, 914],
  "dcmmeta_slice_dim": 2,
  "dcmmeta_version": 0.6,
  "global": {
    "const": {
      "AccessionNumber": "A003556",
      "AcquisitionMatrix": [82, 0, 0, 82],
      "AngioFlag": "N",
      "BitsAllocated": 16,
      "BitsStored": 16,
      "BodyPartExamined": "BRAIN",
      "Columns": 656,
      "EchoNumbers": 1,
      "EchoTime": 27.2,
      "EchoTrainLength": 82,
      "FlipAngle": 44.0,
      "HighBit": 15,
      "ImageOrientationPatient": [0.99875918453402, -0.0045041734702, 0.04959640844142, -0.0006972876102, 0.99453909342749, 0.10436237556907],
      "ImagePositionPatient": [-878.88315697018, -882.98752046818, -205.71774194847],
      "ImageType": [
        "ORIGINAL",
        "PRIMARY",
        "M",
        "MB",
        "ND",
        "NORM",
        "MOSAIC"
],
      "ImagedNucleus": "1H",
      "ImagingFrequency": 123.252156,
      "InPlanePhaseEncodingDirection": "COL",
      "MRAcquisitionType": "2D",
      "MagneticFieldStrength": 3.0,
      "Manufacturer": "SIEMENS",
      "ManufacturerModelName": "Prisma",
      "Modality": "MR",
      "NumberOfAverages": 1.0,
      "NumberOfPhaseEncodingSteps": 82,
      "PercentPhaseFieldOfView": 100.0,
      "PercentSampling": 100.0,
      "PerformedProcedureStepStartTime": "115651.810000",
      "PhotometricInterpretation": "MONOCHROME2",
      "PixelBandwidth": 3050.0,
      "PixelRepresentation": 0,
      "PixelSpacing": [2.6829268932343, 2.6829268932343],
      "ProtocolName": "func_run-01_task-faces_acq-ap-mb8",
      "RepetitionTime": 460.0,
      "Rows": 656,
      "SAR": 0.09092502581023,
      "SamplesPerPixel": 1,
      "ScanOptions": "FS",
      "ScanningSequence": "EP",
      "SequenceName": "epfid2d1_82",
      "SequenceVariant": [
        "SK",
        "SS"
],
      "SeriesDescription": "func_run-01_task-faces_acq-ap-mb8",
      "SeriesNumber": 16,
      "SeriesTime": "125754.179000",
      "SliceLocation": -68.508413663662,
      "SliceThickness": 2.7000000476837,
      "SmallestImagePixelValue": 0,
      "SoftwareVersions": "syngo MR E11",
      "SpacingBetweenSlices": 2.6999999779908,
      "SpecificCharacterSet": "ISO_IR 100",
      "StudyID": "1",
      "StudyTime": "115651.746000",
      "TransmitCoilName": "Body",
      "VariableFlipAngleFlag": "N",
      "WindowCenterWidthExplanation": "Algo1",
      "dBdt": 0.0},
    "slices": {}
  },
  "time": {
    "samples": {
      "AcquisitionNumber": [1, 2, 3, 4, 5, 6, 7, 8, 9, 10, 11, 12, 13, 14, 15, 16, 17, 18, 19, 20, 21, 22, 23, 24, 25, 26, 27, 28, 29, 30, 31, 32, 33, 34, 35, 36, 37, 38, 39, 40, 41, 42, 43, 44, 45, 46, 47, 48, 49, 50, 51, 52, 53, 54, 55, 56, 57, 58, 59, 60, 61, 62, 63, 64, 65, 66, 67, 68, 69, 70, 71, 72, 73, 74, 75, 76, 77, 78, 79, 80, 81, 82, 83, 84, 85, 86, 87, 88, 89, 90, 91, 92, 93, 94, 95, 96, 97, 98, 99, 100, 101, 102, 103, 104, 105, 106, 107, 108, 109, 110, 111, 112, 113, 114, 115, 116, 117, 118, 119, 120, 121, 122, 123, 124, 125, 126, 127, 128, 129, 130, 131, 132, 133, 134, 135, 136, 137, 138, 139, 140, 141, 142, 143, 144, 145, 146, 147, 148, 149, 150, 151, 152, 153, 154, 155, 156, 157, 158, 159, 160, 161, 162, 163, 164, 165, 166, 167, 168, 169, 170, 171, 172, 173, 174, 175, 176, 177, 178, 179, 180, 181, 182, 183, 184, 185, 186, 187, 188, 189, 190, 191, 192, 193, 194, 195, 196, 197, 198, 199, 200, 201, 202, 203, 204, 205, 206, 207, 208, 209, 210, 211, 212, 213, 214, 215, 216, 217, 218, 219, 220, 221, 222, 223, 224, 225, 226, 227, 228, 229, 230, 231, 232, 233, 234, 235, 236, 237, 238, 239, 240, 241, 242, 243, 244, 245, 246, 247, 248, 249, 250, 251, 252, 253, 254, 255, 256, 257, 258, 259, 260, 261, 262, 263, 264, 265, 266, 267, 268, 269, 270, 271, 272, 273, 274, 275, 276, 277, 278, 279, 280, 281, 282, 283, 284, 285, 286, 287, 288, 289, 290, 291, 292, 293, 294, 295, 296, 297, 298, 299, 300, 301, 302, 303, 304, 305, 306, 307, 308, 309, 310, 311, 312, 313, 314, 315, 316, 317, 318, 319, 320, 321, 322, 323, 324, 325, 326, 327, 328, 329, 330, 331, 332, 333, 334, 335, 336, 337, 338, 339, 340, 341, 342, 343, 344, 345, 346, 347, 348, 349, 350, 351, 352, 353, 354, 355, 356, 357, 358, 359, 360, 361, 362, 363, 364, 365, 366, 367, 368, 369, 370, 371, 372, 373, 374, 375, 376, 377, 378, 379, 380, 381, 382, 383, 384, 385, 386, 387, 388, 389, 390, 391, 392, 393, 394, 395, 396, 397, 398, 399, 400, 401, 402, 403, 404, 405, 406, 407, 408, 409, 410, 411, 412, 413, 414, 415, 416, 417, 418, 419, 420, 421, 422, 423, 424, 425, 426, 427, 428, 429, 430, 431, 432, 433, 434, 435, 436, 437, 438, 439, 440, 441, 442, 443, 444, 445, 446, 447, 448, 449, 450, 451, 452, 453, 454, 455, 456, 457, 458, 459, 460, 461, 462, 463, 464, 465, 466, 467, 468, 469, 470, 471, 472, 473, 474, 475, 476, 477, 478, 479, 480, 481, 482, 483, 484, 485, 486, 487, 488, 489, 490, 491, 492, 493, 494, 495, 496, 497, 498, 499, 500, 501, 502, 503, 504, 505, 506, 507, 508, 509, 510, 511, 512, 513, 514, 515, 516, 517, 518, 519, 520, 521, 522, 523, 524, 525, 526, 527, 528, 529, 530, 531, 532, 533, 534, 535, 536, 537, 538, 539, 540, 541, 542, 543, 544, 545, 546, 547, 548, 549, 550, 551, 552, 553, 554, 555, 556, 557, 558, 559, 560, 561, 562, 563, 564, 565, 566, 567, 568, 569, 570, 571, 572, 573, 574, 575, 576, 577, 578, 579, 580, 581, 582, 583, 584, 585, 586, 587, 588, 589, 590, 591, 592, 593, 594, 595, 596, 597, 598, 599, 600, 601, 602, 603, 604, 605, 606, 607, 608, 609, 610, 611, 612, 613, 614, 615, 616, 617, 618, 619, 620, 621, 622, 623, 624, 625, 626, 627, 628, 629, 630, 631, 632, 633, 634, 635, 636, 637, 638, 639, 640, 641, 642, 643, 644, 645, 646, 647, 648, 649, 650, 651, 652, 653, 654, 655, 656, 657, 658, 659, 660, 661, 662, 663, 664, 665, 666, 667, 668, 669, 670, 671, 672, 673, 674, 675, 676, 677, 678, 679, 680, 681, 682, 683, 684, 685, 686, 687, 688, 689, 690, 691, 692, 693, 694, 695, 696, 697, 698, 699, 700, 701, 702, 703, 704, 705, 706, 707, 708, 709, 710, 711, 712, 713, 714, 715, 716, 717, 718, 719, 720, 721, 722, 723, 724, 725, 726, 727, 728, 729, 730, 731, 732, 733, 734, 735, 736, 737, 738, 739, 740, 741, 742, 743, 744, 745, 746, 747, 748, 749, 750, 751, 752, 753, 754, 755, 756, 757, 758, 759, 760, 761, 762, 763, 764, 765, 766, 767, 768, 769, 770, 771, 772, 773, 774, 775, 776, 777, 778, 779, 780, 781, 782, 783, 784, 785, 786, 787, 788, 789, 790, 791, 792, 793, 794, 795, 796, 797, 798, 799, 800, 801, 802, 803, 804, 805, 806, 807, 808, 809, 810, 811, 812, 813, 814, 815, 816, 817, 818, 819, 820, 821, 822, 823, 824, 825, 826, 827, 828, 829, 830, 831, 832, 833, 834, 835, 836, 837, 838, 839, 840, 841, 842, 843, 844, 845, 846, 847, 848, 849, 850, 851, 852, 853, 854, 855, 856, 857, 858, 859, 860, 861, 862, 863, 864, 865, 866, 867, 868, 869, 870, 871, 872, 873, 874, 875, 876, 877, 878, 879, 880, 881, 882, 883, 884, 885, 886, 887, 888, 889, 890, 891, 892, 893, 894, 895, 896, 897, 898, 899, 900, 901, 902, 903, 904, 905, 906, 907, 908, 909, 910, 911, 912, 913, 914],
      "AcquisitionTime": ["125744.150000", "125744.610000", "125745.070000", "125745.530000", "125745.990000", "125746.450000", "125746.910000", "125747.370000", "125747.830000", "125748.290000", "125748.750000", "125749.210000", "125749.670000", "125750.130000", "125750.590000", "125751.050000", "125751.510000", "125751.970000", "125752.430000", "125752.890000", "125753.350000", "125753.810000", "125754.270000", "125754.730000", "125755.190000", "125755.650000", "125756.110000", "125756.570000", "125757.030000", "125757.490000", "125757.950000", "125758.410000", "125758.870000", "125759.330000", "125759.790000", "125800.250000", "125800.710000", "125801.170000", "125801.630000", "125802.090000", "125802.550000", "125803.010000", "125803.470000", "125803.930000", "125804.390000", "125804.850000", "125805.310000", "125805.770000", "125806.230000", "125806.690000", "125807.150000", "125807.610000", "125808.070000", "125808.530000", "125808.990000", "125809.450000", "125809.910000", "125810.370000", "125810.830000", "125811.290000", "125811.750000", "125812.210000", "125812.670000", "125813.130000", "125813.590000", "125814.050000", "125814.510000", "125814.970000", "125815.430000", "125815.890000", "125816.350000", "125816.810000", "125817.270000", "125817.730000", "125818.190000", "125818.650000", "125819.110000", "125819.570000", "125820.030000", "125820.490000", "125820.950000", "125821.410000", "125821.870000", "125822.330000", "125822.790000", "125823.250000", "125823.710000", "125824.170000", "125824.630000", "125825.090000", "125825.550000", "125826.010000", "125826.470000", "125826.930000", "125827.390000", "125827.850000", "125828.310000", "125828.770000", "125829.230000", "125829.690000", "125830.150000", "125830.610000", "125831.070000", "125831.530000", "125831.990000", "125832.450000", "125832.910000", "125833.370000", "125833.830000", "125834.290000", "125834.750000", "125835.210000", "125835.670000", "125836.130000", "125836.590000", "125837.050000", "125837.510000", "125837.970000", "125838.430000", "125838.890000", "125839.350000", "125839.810000", "125840.270000", "125840.730000", "125841.190000", "125841.650000", "125842.110000", "125842.570000", "125843.030000", "125843.490000", "125843.950000", "125844.410000", "125844.870000", "125845.330000", "125845.790000", "125846.250000", "125846.710000", "125847.170000", "125847.630000", "125848.090000", "125848.550000", "125849.010000", "125849.470000", "125849.930000", "125850.390000", "125850.850000", "125851.310000", "125851.770000", "125852.230000", "125852.690000", "125853.150000", "125853.610000", "125854.070000", "125854.530000", "125854.990000", "125855.450000", "125855.910000", "125856.370000", "125856.830000", "125857.290000", "125857.750000", "125858.210000", "125858.670000", "125859.130000", "125859.590000", "125900.050000", "125900.510000", "125900.970000", "125901.430000", "125901.890000", "125902.350000", "125902.810000", "125903.270000", "125903.730000", "125904.190000", "125904.650000", "125905.110000", "125905.570000", "125906.030000", "125906.490000", "125906.950000", "125907.410000", "125907.870000", "125908.330000", "125908.790000", "125909.250000", "125909.710000", "125910.170000", "125910.630000", "125911.090000", "125911.550000", "125912.010000", "125912.470000", "125912.930000", "125913.390000", "125913.850000", "125914.310000", "125914.770000", "125915.230000", "125915.690000", "125916.150000", "125916.610000", "125917.070000", "125917.530000", "125917.990000", "125918.450000", "125918.910000", "125919.370000", "125919.830000", "125920.290000", "125920.750000", "125921.210000", "125921.670000", "125922.130000", "125922.590000", "125923.050000", "125923.510000", "125923.970000", "125924.430000", "125924.890000", "125925.350000", "125925.810000", "125926.270000", "125926.730000", "125927.190000", "125927.650000", "125928.110000", "125928.570000", "125929.030000", "125929.490000", "125929.950000", "125930.410000", "125930.870000", "125931.330000", "125931.790000", "125932.250000", "125932.710000", "125933.170000", "125933.630000", "125934.090000", "125934.550000", "125935.010000", "125935.470000", "125935.930000", "125936.390000", "125936.850000", "125937.310000", "125937.770000", "125938.230000", "125938.690000", "125939.150000", "125939.610000", "125940.070000", "125940.530000", "125940.990000", "125941.450000", "125941.910000", "125942.370000", "125942.830000", "125943.290000", "125943.750000", "125944.210000", "125944.670000", "125945.130000", "125945.590000", "125946.050000", "125946.510000", "125946.970000", "125947.430000", "125947.890000", "125948.350000", "125948.810000", "125949.270000", "125949.730000", "125950.190000", "125950.650000", "125951.110000", "125951.570000", "125952.030000", "125952.490000", "125952.950000", "125953.410000", "125953.870000", "125954.330000", "125954.790000", "125955.250000", "125955.710000", "125956.170000", "125956.630000", "125957.090000", "125957.550000", "125958.010000", "125958.470000", "125958.930000", "125959.390000", "125959.850000", "130000.310000", "130000.770000", "130001.230000", "130001.690000", "130002.150000", "130002.610000", "130003.070000", "130003.530000", "130003.990000", "130004.450000", "130004.910000", "130005.370000", "130005.830000", "130006.290000", "130006.750000", "130007.210000", "130007.670000", "130008.130000", "130008.590000", "130009.050000", "130009.510000", "130009.970000", "130010.430000", "130010.890000", "130011.350000", "130011.810000", "130012.270000", "130012.730000", "130013.190000", "130013.650000", "130014.110000", "130014.570000", "130015.030000", "130015.490000", "130015.950000", "130016.410000", "130016.870000", "130017.330000", "130017.790000", "130018.250000", "130018.710000", "130019.170000", "130019.630000", "130020.090000", "130020.550000", "130021.010000", "130021.470000", "130021.930000", "130022.390000", "130022.850000", "130023.310000", "130023.770000", "130024.230000", "130024.690000", "130025.150000", "130025.610000", "130026.070000", "130026.530000", "130026.990000", "130027.450000", "130027.910000", "130028.370000", "130028.830000", "130029.290000", "130029.750000", "130030.210000", "130030.670000", "130031.130000", "130031.590000", "130032.050000", "130032.510000", "130032.970000", "130033.430000", "130033.890000", "130034.350000", "130034.810000", "130035.270000", "130035.730000", "130036.190000", "130036.650000", "130037.110000", "130037.570000", "130038.030000", "130038.490000", "130038.950000", "130039.410000", "130039.870000", "130040.330000", "130040.790000", "130041.250000", "130041.710000", "130042.170000", "130042.630000", "130043.090000", "130043.550000", "130044.010000", "130044.470000", "130044.930000", "130045.390000", "130045.850000", "130046.310000", "130046.770000", "130047.230000", "130047.690000", "130048.150000", "130048.610000", "130049.070000", "130049.530000", "130049.990000", "130050.450000", "130050.910000", "130051.370000", "130051.830000", "130052.290000", "130052.750000", "130053.210000", "130053.670000", "130054.130000", "130054.590000", "130055.050000", "130055.510000", "130055.970000", "130056.430000", "130056.890000", "130057.350000", "130057.810000", "130058.270000", "130058.730000", "130059.190000", "130059.650000", "130100.110000", "130100.570000", "130101.030000", "130101.490000", "130101.950000", "130102.410000", "130102.870000", "130103.330000", "130103.790000", "130104.250000", "130104.710000", "130105.170000", "130105.630000", "130106.090000", "130106.550000", "130107.010000", "130107.470000", "130107.930000", "130108.390000", "130108.850000", "130109.310000", "130109.770000", "130110.230000", "130110.690000", "130111.150000", "130111.610000", "130112.070000", "130112.530000", "130112.990000", "130113.450000", "130113.910000", "130114.370000", "130114.830000", "130115.290000", "130115.750000", "130116.210000", "130116.670000", "130117.130000", "130117.590000", "130118.050000", "130118.510000", "130118.970000", "130119.430000", "130119.890000", "130120.350000", "130120.810000", "130121.270000", "130121.730000", "130122.190000", "130122.650000", "130123.110000", "130123.570000", "130124.030000", "130124.490000", "130124.950000", "130125.410000", "130125.870000", "130126.330000", "130126.790000", "130127.250000", "130127.710000", "130128.170000", "130128.630000", "130129.090000", "130129.550000", "130130.010000", "130130.470000", "130130.930000", "130131.390000", "130131.850000", "130132.310000", "130132.770000", "130133.230000", "130133.690000", "130134.150000", "130134.610000", "130135.070000", "130135.530000", "130135.990000", "130136.450000", "130136.910000", "130137.370000", "130137.830000", "130138.290000", "130138.750000", "130139.210000", "130139.670000", "130140.130000", "130140.590000", "130141.050000", "130141.510000", "130141.970000", "130142.430000", "130142.890000", "130143.350000", "130143.810000", "130144.270000", "130144.730000", "130145.190000", "130145.650000", "130146.110000", "130146.570000", "130147.030000", "130147.490000", "130147.950000", "130148.410000", "130148.870000", "130149.330000", "130149.790000", "130150.250000", "130150.710000", "130151.170000", "130151.630000", "130152.090000", "130152.550000", "130153.010000", "130153.470000", "130153.930000", "130154.390000", "130154.850000", "130155.310000", "130155.770000", "130156.230000", "130156.690000", "130157.150000", "130157.610000", "130158.070000", "130158.530000", "130158.990000", "130159.450000", "130159.910000", "130200.370000", "130200.830000", "130201.290000", "130201.750000", "130202.210000", "130202.670000", "130203.130000", "130203.590000", "130204.050000", "130204.510000", "130204.970000", "130205.430000", "130205.890000", "130206.350000", "130206.810000", "130207.270000", "130207.730000", "130208.190000", "130208.650000", "130209.110000", "130209.570000", "130210.030000", "130210.490000", "130210.950000", "130211.410000", "130211.870000", "130212.330000", "130212.790000", "130213.250000", "130213.710000", "130214.170000", "130214.630000", "130215.090000", "130215.550000", "130216.010000", "130216.470000", "130216.930000", "130217.390000", "130217.850000", "130218.310000", "130218.770000", "130219.230000", "130219.690000", "130220.150000", "130220.610000", "130221.070000", "130221.530000", "130221.990000", "130222.450000", "130222.910000", "130223.370000", "130223.830000", "130224.290000", "130224.750000", "130225.210000", "130225.670000", "130226.130000", "130226.590000", "130227.050000", "130227.510000", "130227.970000", "130228.430000", "130228.890000", "130229.350000", "130229.810000", "130230.270000", "130230.730000", "130231.190000", "130231.650000", "130232.110000", "130232.570000", "130233.030000", "130233.490000", "130233.950000", "130234.410000", "130234.870000", "130235.330000", "130235.790000", "130236.250000", "130236.710000", "130237.170000", "130237.630000", "130238.090000", "130238.550000", "130239.010000", "130239.470000", "130239.930000", "130240.390000", "130240.850000", "130241.310000", "130241.770000", "130242.230000", "130242.690000", "130243.150000", "130243.610000", "130244.070000", "130244.530000", "130244.990000", "130245.450000", "130245.910000", "130246.370000", "130246.830000", "130247.290000", "130247.750000", "130248.210000", "130248.670000", "130249.130000", "130249.590000", "130250.050000", "130250.510000", "130250.970000", "130251.430000", "130251.890000", "130252.350000", "130252.810000", "130253.270000", "130253.730000", "130254.190000", "130254.650000", "130255.110000", "130255.570000", "130256.030000", "130256.490000", "130256.950000", "130257.410000", "130257.870000", "130258.330000", "130258.790000", "130259.250000", "130259.710000", "130300.170000", "130300.630000", "130301.090000", "130301.550000", "130302.010000", "130302.470000", "130302.930000", "130303.390000", "130303.850000", "130304.310000", "130304.770000", "130305.230000", "130305.690000", "130306.150000", "130306.610000", "130307.070000", "130307.530000", "130307.990000", "130308.450000", "130308.910000", "130309.370000", "130309.830000", "130310.290000", "130310.750000", "130311.210000", "130311.670000", "130312.130000", "130312.590000", "130313.050000", "130313.510000", "130313.970000", "130314.430000", "130314.890000", "130315.350000", "130315.810000", "130316.270000", "130316.730000", "130317.190000", "130317.650000", "130318.110000", "130318.570000", "130319.030000", "130319.490000", "130319.950000", "130320.410000", "130320.870000", "130321.330000", "130321.790000", "130322.250000", "130322.710000", "130323.170000", "130323.630000", "130324.090000", "130324.550000", "130325.010000", "130325.470000", "130325.930000", "130326.390000", "130326.850000", "130327.310000", "130327.770000", "130328.230000", "130328.690000", "130329.150000", "130329.610000", "130330.070000", "130330.530000", "130330.990000", "130331.450000", "130331.910000", "130332.370000", "130332.830000", "130333.290000", "130333.750000", "130334.210000", "130334.670000", "130335.130000", "130335.590000", "130336.050000", "130336.510000", "130336.970000", "130337.430000", "130337.890000", "130338.350000", "130338.810000", "130339.270000", "130339.730000", "130340.190000", "130340.650000", "130341.110000", "130341.570000", "130342.030000", "130342.490000", "130342.950000", "130343.410000", "130343.870000", "130344.330000", "130344.790000", "130345.250000", "130345.710000", "130346.170000", "130346.630000", "130347.090000", "130347.550000", "130348.010000", "130348.470000", "130348.930000", "130349.390000", "130349.850000", "130350.310000", "130350.770000", "130351.230000", "130351.690000", "130352.150000", "130352.610000", "130353.070000", "130353.530000", "130353.990000", "130354.450000", "130354.910000", "130355.370000", "130355.830000", "130356.290000", "130356.750000", "130357.210000", "130357.670000", "130358.130000", "130358.590000", "130359.050000", "130359.510000", "130359.970000", "130400.430000", "130400.890000", "130401.350000", "130401.810000", "130402.270000", "130402.730000", "130403.190000", "130403.650000", "130404.110000", "130404.570000", "130405.030000", "130405.490000", "130405.950000", "130406.410000", "130406.870000", "130407.330000", "130407.790000", "130408.250000", "130408.710000", "130409.170000", "130409.630000", "130410.090000", "130410.550000", "130411.010000", "130411.470000", "130411.930000", "130412.390000", "130412.850000", "130413.310000", "130413.770000", "130414.230000", "130414.690000", "130415.150000", "130415.610000", "130416.070000", "130416.530000", "130416.990000", "130417.450000", "130417.910000", "130418.370000", "130418.830000", "130419.290000", "130419.750000", "130420.210000", "130420.670000", "130421.130000", "130421.590000", "130422.050000", "130422.510000", "130422.970000", "130423.430000", "130423.890000", "130424.350000", "130424.810000", "130425.270000", "130425.730000", "130426.190000", "130426.650000", "130427.110000", "130427.570000", "130428.030000", "130428.490000", "130428.950000", "130429.410000", "130429.870000", "130430.330000", "130430.790000", "130431.250000", "130431.710000", "130432.170000", "130432.630000", "130433.090000", "130433.550000", "130434.010000", "130434.470000", "130434.930000", "130435.390000", "130435.850000", "130436.310000", "130436.770000", "130437.230000", "130437.690000", "130438.150000", "130438.610000", "130439.070000", "130439.530000", "130439.990000", "130440.450000", "130440.910000", "130441.370000", "130441.830000", "130442.290000", "130442.750000", "130443.210000", "130443.670000", "130444.130000"],
