{
  "AcquisitionMatrixPE": 82,
  "AcquisitionNumber": 1,
  "AcquisitionTime": "12:28:31.787500",
  "BandwidthPerPixelPhaseEncode": 24.888,
  "BaseResolution": 82,
  "BodyPartExamined": "BRAIN",
  "ConsistencyInfo": "N4_VE11C_LATEST_20160120",
  "ConversionSoftware": "dcm2niix",
  "ConversionSoftwareVersion": "v1.0.20201102",
  "DerivedVendorReportedEchoSpacing": 0.00049,
  "DeviceSerialNumber": "66112",
  "DwellTime": 2e-06,
  "EchoTime": 0.0272,
  "EchoTrainLength": 82,
  "EffectiveEchoSpacing": 0.00049,
  "FlipAngle": 44,
  "ImageComments": "Unaliased MB8/PE3",
  "ImageOrientationPatientDICOM": [0.998759, -0.00450417, 0.0495964, -0.000697288, 0.994539, 0.104362],
  "ImageType": [
    "ORIGINAL",
    "PRIMARY",
    "M",
    "MB",
    "ND",
    "NORM",
    "MOSAIC"
],
  "ImagingFrequency": 123.252,
  "InPlanePhaseEncodingDirectionDICOM": "COL",
  "InstitutionAddress": "Maynard 3,Hanover,NH,US,03755",
  "InstitutionName": "Dartmouth College - PBS",
  "InstitutionalDepartmentName": "Department",
  "MRAcquisitionType": "2D",
  "MagneticFieldStrength": 3,
  "Manufacturer": "Siemens",
  "ManufacturersModelName": "Prisma",
  "Modality": "MR",
  "MultibandAccelerationFactor": 8,
  "PartialFourier": 1,
  "PatientPosition": "HFS",
  "PercentPhaseFOV": 100,
  "PercentSampling": 100,
  "PhaseEncodingDirection": "j-",
  "PhaseEncodingSteps": 82,
  "PhaseResolution": 1,
  "PixelBandwidth": 3050,
  "ProcedureStepDescription": "Wager_Wager^1076_spacetop",
  "ProtocolName": "func_run-02_task-narratives_acq-ap-mb8",
  "PulseSequenceDetails": "%CustomerSeq%\\cmrr_mbep2d_bold",
  "ReceiveCoilActiveElements": "HEA;HEP",
  "ReceiveCoilName": "Head_32",
  "ReconMatrixPE": 82,
  "RepetitionTime": 0.46,
  "SAR": 0.0910156,
  "ScanOptions": "FS",
  "ScanningSequence": "EP",
  "SequenceName": "epfid2d1_82",
  "SequenceVariant": "SK\\SS",
  "SeriesDescription": "func_run-02_task-narratives_acq-ap-mb8",
  "SeriesNumber": 10,
  "ShimSetting": [4149, -7764, -7256, 549, -116, -257, 92, 75],
  "SliceThickness": 2.7,
  "SliceTiming": [0, 0.25, 0.0625, 0.315, 0.125, 0.3775, 0.1875, 0, 0.25, 0.0625, 0.315, 0.125, 0.3775, 0.1875, 0, 0.25, 0.0625, 0.315, 0.125, 0.3775, 0.1875, 0, 0.25, 0.0625, 0.315, 0.125, 0.3775, 0.1875, 0, 0.25, 0.0625, 0.315, 0.125, 0.3775, 0.1875, 0, 0.25, 0.0625, 0.315, 0.125, 0.3775, 0.1875, 0, 0.25, 0.0625, 0.315, 0.125, 0.3775, 0.1875, 0, 0.25, 0.0625, 0.315, 0.125, 0.3775, 0.1875],
  "SoftwareVersions": "syngo MR E11",
  "SpacingBetweenSlices": 2.7,
  "StationName": "AWP66112",
  "TaskName": "narratives",
  "TotalReadoutTime": 0.03969,
  "TxRefAmp": 250.931,
  "WipMemBlock": "946dcac5-33a7-4502-af98-4aee0094fab3||Sequence: R016 ve11c/master r/e634e98; Dec 19 2017 11:00:25 by eja",
  "dcmmeta_affine": [
    [-2.679597854614258, -0.001870771637186408, 0.13444821536540985, 110.52700805664062],
    [0.01208436768501997, 2.6682755947113037, 0.28152215480804443, -95.46971893310547],
    [0.13306353986263275, -0.2799966335296631, 2.681915044784546, -64.48974609375],
    [0.0, 0.0, 0.0, 1.0]
],
  "dcmmeta_reorient_transform": [
    [0.0, -1.0, 0.0, 81.0],
    [1.0, 0.0, 0.0, 0.0],
    [0.0, 0.0, 1.0, 0.0],
    [0.0, 0.0, 0.0, 1.0]
],
  "dcmmeta_shape": [82, 82, 56, 1098],
  "dcmmeta_slice_dim": 2,
  "dcmmeta_version": 0.6,
  "global": {
    "const": {
      "AccessionNumber": "A003556",
      "AcquisitionMatrix": [82, 0, 0, 82],
      "AngioFlag": "N",
      "BitsAllocated": 16,
      "BitsStored": 16,
      "BodyPartExamined": "BRAIN",
      "Columns": 656,
      "EchoNumbers": 1,
      "EchoTime": 27.2,
      "EchoTrainLength": 82,
      "FlipAngle": 44.0,
      "HighBit": 15,
      "ImageOrientationPatient": [0.99875918453402, -0.0045041734702, 0.04959640844142, -0.0006972876102, 0.99453909342749, 0.10436237556907],
      "ImagePositionPatient": [-878.88315697018, -882.98752046818, -205.71774194847],
      "ImageType": [
        "ORIGINAL",
        "PRIMARY",
        "M",
        "MB",
        "ND",
        "NORM",
        "MOSAIC"
],
      "ImagedNucleus": "1H",
      "ImagingFrequency": 123.252144,
      "InPlanePhaseEncodingDirection": "COL",
      "MRAcquisitionType": "2D",
      "MagneticFieldStrength": 3.0,
      "Manufacturer": "SIEMENS",
      "ManufacturerModelName": "Prisma",
      "Modality": "MR",
      "NumberOfAverages": 1.0,
      "NumberOfPhaseEncodingSteps": 82,
      "PercentPhaseFieldOfView": 100.0,
      "PercentSampling": 100.0,
      "PerformedProcedureStepStartTime": "115651.810000",
      "PhotometricInterpretation": "MONOCHROME2",
      "PixelBandwidth": 3050.0,
      "PixelRepresentation": 0,
      "PixelSpacing": [2.6829268932343, 2.6829268932343],
      "ProtocolName": "func_run-02_task-narratives_acq-ap-mb8",
      "RepetitionTime": 460.0,
      "Rows": 656,
      "SAR": 0.09101559977046,
      "SamplesPerPixel": 1,
      "ScanOptions": "FS",
      "ScanningSequence": "EP",
      "SequenceName": "epfid2d1_82",
      "SequenceVariant": [
        "SK",
        "SS"
],
      "SeriesDescription": "func_run-02_task-narratives_acq-ap-mb8",
      "SeriesNumber": 10,
      "SeriesTime": "122854.162000",
      "SliceLocation": -68.508413663662,
      "SliceThickness": 2.7000000476837,
      "SmallestImagePixelValue": 0,
      "SoftwareVersions": "syngo MR E11",
      "SpacingBetweenSlices": 2.6999999779908,
      "SpecificCharacterSet": "ISO_IR 100",
      "StudyID": "1",
      "StudyTime": "115651.746000",
      "TransmitCoilName": "Body",
      "VariableFlipAngleFlag": "N",
      "WindowCenterWidthExplanation": "Algo1",
      "dBdt": 0.0},
    "slices": {}
  },
  "time": {
    "samples": {
      "AcquisitionNumber": [1, 2, 3, 4, 5, 6, 7, 8, 9, 10, 11, 12, 13, 14, 15, 16, 17, 18, 19, 20, 21, 22, 23, 24, 25, 26, 27, 28, 29, 30, 31, 32, 33, 34, 35, 36, 37, 38, 39, 40, 41, 42, 43, 44, 45, 46, 47, 48, 49, 50, 51, 52, 53, 54, 55, 56, 57, 58, 59, 60, 61, 62, 63, 64, 65, 66, 67, 68, 69, 70, 71, 72, 73, 74, 75, 76, 77, 78, 79, 80, 81, 82, 83, 84, 85, 86, 87, 88, 89, 90, 91, 92, 93, 94, 95, 96, 97, 98, 99, 100, 101, 102, 103, 104, 105, 106, 107, 108, 109, 110, 111, 112, 113, 114, 115, 116, 117, 118, 119, 120, 121, 122, 123, 124, 125, 126, 127, 128, 129, 130, 131, 132, 133, 134, 135, 136, 137, 138, 139, 140, 141, 142, 143, 144, 145, 146, 147, 148, 149, 150, 151, 152, 153, 154, 155, 156, 157, 158, 159, 160, 161, 162, 163, 164, 165, 166, 167, 168, 169, 170, 171, 172, 173, 174, 175, 176, 177, 178, 179, 180, 181, 182, 183, 184, 185, 186, 187, 188, 189, 190, 191, 192, 193, 194, 195, 196, 197, 198, 199, 200, 201, 202, 203, 204, 205, 206, 207, 208, 209, 210, 211, 212, 213, 214, 215, 216, 217, 218, 219, 220, 221, 222, 223, 224, 225, 226, 227, 228, 229, 230, 231, 232, 233, 234, 235, 236, 237, 238, 239, 240, 241, 242, 243, 244, 245, 246, 247, 248, 249, 250, 251, 252, 253, 254, 255, 256, 257, 258, 259, 260, 261, 262, 263, 264, 265, 266, 267, 268, 269, 270, 271, 272, 273, 274, 275, 276, 277, 278, 279, 280, 281, 282, 283, 284, 285, 286, 287, 288, 289, 290, 291, 292, 293, 294, 295, 296, 297, 298, 299, 300, 301, 302, 303, 304, 305, 306, 307, 308, 309, 310, 311, 312, 313, 314, 315, 316, 317, 318, 319, 320, 321, 322, 323, 324, 325, 326, 327, 328, 329, 330, 331, 332, 333, 334, 335, 336, 337, 338, 339, 340, 341, 342, 343, 344, 345, 346, 347, 348, 349, 350, 351, 352, 353, 354, 355, 356, 357, 358, 359, 360, 361, 362, 363, 364, 365, 366, 367, 368, 369, 370, 371, 372, 373, 374, 375, 376, 377, 378, 379, 380, 381, 382, 383, 384, 385, 386, 387, 388, 389, 390, 391, 392, 393, 394, 395, 396, 397, 398, 399, 400, 401, 402, 403, 404, 405, 406, 407, 408, 409, 410, 411, 412, 413, 414, 415, 416, 417, 418, 419, 420, 421, 422, 423, 424, 425, 426, 427, 428, 429, 430, 431, 432, 433, 434, 435, 436, 437, 438, 439, 440, 441, 442, 443, 444, 445, 446, 447, 448, 449, 450, 451, 452, 453, 454, 455, 456, 457, 458, 459, 460, 461, 462, 463, 464, 465, 466, 467, 468, 469, 470, 471, 472, 473, 474, 475, 476, 477, 478, 479, 480, 481, 482, 483, 484, 485, 486, 487, 488, 489, 490, 491, 492, 493, 494, 495, 496, 497, 498, 499, 500, 501, 502, 503, 504, 505, 506, 507, 508, 509, 510, 511, 512, 513, 514, 515, 516, 517, 518, 519, 520, 521, 522, 523, 524, 525, 526, 527, 528, 529, 530, 531, 532, 533, 534, 535, 536, 537, 538, 539, 540, 541, 542, 543, 544, 545, 546, 547, 548, 549, 550, 551, 552, 553, 554, 555, 556, 557, 558, 559, 560, 561, 562, 563, 564, 565, 566, 567, 568, 569, 570, 571, 572, 573, 574, 575, 576, 577, 578, 579, 580, 581, 582, 583, 584, 585, 586, 587, 588, 589, 590, 591, 592, 593, 594, 595, 596, 597, 598, 599, 600, 601, 602, 603, 604, 605, 606, 607, 608, 609, 610, 611, 612, 613, 614, 615, 616, 617, 618, 619, 620, 621, 622, 623, 624, 625, 626, 627, 628, 629, 630, 631, 632, 633, 634, 635, 636, 637, 638, 639, 640, 641, 642, 643, 644, 645, 646, 647, 648, 649, 650, 651, 652, 653, 654, 655, 656, 657, 658, 659, 660, 661, 662, 663, 664, 665, 666, 667, 668, 669, 670, 671, 672, 673, 674, 675, 676, 677, 678, 679, 680, 681, 682, 683, 684, 685, 686, 687, 688, 689, 690, 691, 692, 693, 694, 695, 696, 697, 698, 699, 700, 701, 702, 703, 704, 705, 706, 707, 708, 709, 710, 711, 712, 713, 714, 715, 716, 717, 718, 719, 720, 721, 722, 723, 724, 725, 726, 727, 728, 729, 730, 731, 732, 733, 734, 735, 736, 737, 738, 739, 740, 741, 742, 743, 744, 745, 746, 747, 748, 749, 750, 751, 752, 753, 754, 755, 756, 757, 758, 759, 760, 761, 762, 763, 764, 765, 766, 767, 768, 769, 770, 771, 772, 773, 774, 775, 776, 777, 778, 779, 780, 781, 782, 783, 784, 785, 786, 787, 788, 789, 790, 791, 792, 793, 794, 795, 796, 797, 798, 799, 800, 801, 802, 803, 804, 805, 806, 807, 808, 809, 810, 811, 812, 813, 814, 815, 816, 817, 818, 819, 820, 821, 822, 823, 824, 825, 826, 827, 828, 829, 830, 831, 832, 833, 834, 835, 836, 837, 838, 839, 840, 841, 842, 843, 844, 845, 846, 847, 848, 849, 850, 851, 852, 853, 854, 855, 856, 857, 858, 859, 860, 861, 862, 863, 864, 865, 866, 867, 868, 869, 870, 871, 872, 873, 874, 875, 876, 877, 878, 879, 880, 881, 882, 883, 884, 885, 886, 887, 888, 889, 890, 891, 892, 893, 894, 895, 896, 897, 898, 899, 900, 901, 902, 903, 904, 905, 906, 907, 908, 909, 910, 911, 912, 913, 914, 915, 916, 917, 918, 919, 920, 921, 922, 923, 924, 925, 926, 927, 928, 929, 930, 931, 932, 933, 934, 935, 936, 937, 938, 939, 940, 941, 942, 943, 944, 945, 946, 947, 948, 949, 950, 951, 952, 953, 954, 955, 956, 957, 958, 959, 960, 961, 962, 963, 964, 965, 966, 967, 968, 969, 970, 971, 972, 973, 974, 975, 976, 977, 978, 979, 980, 981, 982, 983, 984, 985, 986, 987, 988, 989, 990, 991, 992, 993, 994, 995, 996, 997, 998, 999, 1000, 1001, 1002, 1003, 1004, 1005, 1006, 1007, 1008, 1009, 1010, 1011, 1012, 1013, 1014, 1015, 1016, 1017, 1018, 1019, 1020, 1021, 1022, 1023, 1024, 1025, 1026, 1027, 1028, 1029, 1030, 1031, 1032, 1033, 1034, 1035, 1036, 1037, 1038, 1039, 1040, 1041, 1042, 1043, 1044, 1045, 1046, 1047, 1048, 1049, 1050, 1051, 1052, 1053, 1054, 1055, 1056, 1057, 1058, 1059, 1060, 1061, 1062, 1063, 1064, 1065, 1066, 1067, 1068, 1069, 1070, 1071, 1072, 1073, 1074, 1075, 1076, 1077, 1078, 1079, 1080, 1081, 1082, 1083, 1084, 1085, 1086, 1087, 1088, 1089, 1090, 1091, 1092, 1093, 1094, 1095, 1096, 1097, 1098],
      "AcquisitionTime": ["122831.787500", "122832.247500", "122832.707500", "122833.167500", "122833.627500", "122834.087500", "122834.547500", "122835.007500", "122835.467500", "122835.927500", "122836.387500", "122836.847500", "122837.307500", "122837.767500", "122838.227500", "122838.687500", "122839.147500", "122839.607500", "122840.067500", "122840.527500", "122840.987500", "122841.447500", "122841.907500", "122842.367500", "122842.827500", "122843.287500", "122843.747500", "122844.207500", "122844.667500", "122845.127500", "122845.587500", "122846.047500", "122846.507500", "122846.967500", "122847.427500", "122847.887500", "122848.347500", "122848.807500", "122849.267500", "122849.727500", "122850.187500", "122850.647500", "122851.107500", "122851.567500", "122852.027500", "122852.487500", "122852.947500", "122853.407500", "122853.867500", "122854.327500", "122854.787500", "122855.247500", "122855.707500", "122856.167500", "122856.627500", "122857.087500", "122857.547500", "122858.007500", "122858.467500", "122858.927500", "122859.387500", "122859.847500", "122900.307500", "122900.767500", "122901.227500", "122901.687500", "122902.147500", "122902.607500", "122903.067500", "122903.527500", "122903.987500", "122904.447500", "122904.907500", "122905.367500", "122905.827500", "122906.287500", "122906.747500", "122907.207500", "122907.667500", "122908.127500", "122908.587500", "122909.047500", "122909.507500", "122909.967500", "122910.427500", "122910.887500", "122911.347500", "122911.807500", "122912.267500", "122912.727500", "122913.187500", "122913.647500", "122914.107500", "122914.567500", "122915.027500", "122915.487500", "122915.947500", "122916.407500", "122916.867500", "122917.327500", "122917.787500", "122918.247500", "122918.707500", "122919.167500", "122919.627500", "122920.087500", "122920.547500", "122921.007500", "122921.467500", "122921.927500", "122922.387500", "122922.847500", "122923.307500", "122923.767500", "122924.227500", "122924.687500", "122925.147500", "122925.607500", "122926.067500", "122926.527500", "122926.987500", "122927.447500", "122927.907500", "122928.367500", "122928.827500", "122929.287500", "122929.747500", "122930.207500", "122930.667500", "122931.127500", "122931.587500", "122932.047500", "122932.507500", "122932.967500", "122933.427500", "122933.887500", "122934.347500", "122934.807500", "122935.267500", "122935.727500", "122936.187500", "122936.647500", "122937.107500", "122937.567500", "122938.027500", "122938.487500", "122938.947500", "122939.407500", "122939.867500", "122940.327500", "122940.787500", "122941.247500", "122941.707500", "122942.167500", "122942.627500", "122943.087500", "122943.547500", "122944.007500", "122944.467500", "122944.927500", "122945.387500", "122945.847500", "122946.307500", "122946.767500", "122947.227500", "122947.687500", "122948.147500", "122948.607500", "122949.067500", "122949.527500", "122949.987500", "122950.447500", "122950.907500", "122951.367500", "122951.827500", "122952.287500", "122952.747500", "122953.207500", "122953.667500", "122954.127500", "122954.587500", "122955.047500", "122955.507500", "122955.967500", "122956.427500", "122956.887500", "122957.347500", "122957.807500", "122958.267500", "122958.727500", "122959.187500", "122959.647500", "123000.107500", "123000.567500", "123001.027500", "123001.487500", "123001.947500", "123002.407500", "123002.867500", "123003.327500", "123003.787500", "123004.247500", "123004.707500", "123005.167500", "123005.627500", "123006.087500", "123006.547500", "123007.007500", "123007.467500", "123007.927500", "123008.387500", "123008.847500", "123009.307500", "123009.767500", "123010.227500", "123010.687500", "123011.147500", "123011.607500", "123012.067500", "123012.527500", "123012.987500", "123013.447500", "123013.907500", "123014.367500", "123014.827500", "123015.287500", "123015.747500", "123016.207500", "123016.667500", "123017.127500", "123017.587500", "123018.047500", "123018.507500", "123018.967500", "123019.427500", "123019.887500", "123020.347500", "123020.807500", "123021.267500", "123021.727500", "123022.187500", "123022.647500", "123023.107500", "123023.567500", "123024.027500", "123024.487500", "123024.947500", "123025.407500", "123025.867500", "123026.327500", "123026.787500", "123027.247500", "123027.707500", "123028.167500", "123028.627500", "123029.087500", "123029.547500", "123030.007500", "123030.467500", "123030.927500", "123031.387500", "123031.847500", "123032.307500", "123032.767500", "123033.227500", "123033.687500", "123034.147500", "123034.607500", "123035.067500", "123035.527500", "123035.987500", "123036.447500", "123036.907500", "123037.367500", "123037.827500", "123038.287500", "123038.747500", "123039.207500", "123039.667500", "123040.127500", "123040.587500", "123041.047500", "123041.507500", "123041.967500", "123042.427500", "123042.887500", "123043.347500", "123043.807500", "123044.267500", "123044.727500", "123045.187500", "123045.647500", "123046.107500", "123046.567500", "123047.027500", "123047.487500", "123047.947500", "123048.407500", "123048.867500", "123049.327500", "123049.787500", "123050.247500", "123050.707500", "123051.167500", "123051.627500", "123052.087500", "123052.547500", "123053.007500", "123053.467500", "123053.927500", "123054.387500", "123054.847500", "123055.307500", "123055.767500", "123056.227500", "123056.687500", "123057.147500", "123057.607500", "123058.067500", "123058.527500", "123058.987500", "123059.447500", "123059.907500", "123100.367500", "123100.827500", "123101.287500", "123101.747500", "123102.207500", "123102.667500", "123103.127500", "123103.587500", "123104.047500", "123104.507500", "123104.967500", "123105.427500", "123105.887500", "123106.347500", "123106.807500", "123107.267500", "123107.727500", "123108.187500", "123108.647500", "123109.107500", "123109.567500", "123110.027500", "123110.487500", "123110.947500", "123111.407500", "123111.867500", "123112.327500", "123112.787500", "123113.247500", "123113.707500", "123114.167500", "123114.627500", "123115.087500", "123115.547500", "123116.007500", "123116.467500", "123116.927500", "123117.387500", "123117.847500", "123118.307500", "123118.767500", "123119.227500", "123119.687500", "123120.147500", "123120.607500", "123121.067500", "123121.527500", "123121.987500", "123122.447500", "123122.907500", "123123.367500", "123123.827500", "123124.287500", "123124.747500", "123125.207500", "123125.667500", "123126.127500", "123126.587500", "123127.047500", "123127.507500", "123127.967500", "123128.427500", "123128.887500", "123129.347500", "123129.807500", "123130.267500", "123130.727500", "123131.187500", "123131.647500", "123132.107500", "123132.567500", "123133.027500", "123133.487500", "123133.947500", "123134.407500", "123134.867500", "123135.327500", "123135.787500", "123136.247500", "123136.707500", "123137.167500", "123137.627500", "123138.087500", "123138.547500", "123139.007500", "123139.467500", "123139.927500", "123140.387500", "123140.847500", "123141.307500", "123141.767500", "123142.227500", "123142.687500", "123143.147500", "123143.607500", "123144.067500", "123144.527500", "123144.987500", "123145.447500", "123145.907500", "123146.367500", "123146.827500", "123147.287500", "123147.747500", "123148.207500", "123148.667500", "123149.127500", "123149.587500", "123150.047500", "123150.507500", "123150.967500", "123151.427500", "123151.887500", "123152.347500", "123152.807500", "123153.267500", "123153.727500", "123154.187500", "123154.647500", "123155.107500", "123155.567500", "123156.027500", "123156.487500", "123156.947500", "123157.407500", "123157.867500", "123158.327500", "123158.787500", "123159.247500", "123159.707500", "123200.167500", "123200.627500", "123201.087500", "123201.547500", "123202.007500", "123202.467500", "123202.927500", "123203.387500", "123203.847500", "123204.307500", "123204.767500", "123205.227500", "123205.687500", "123206.147500", "123206.607500", "123207.067500", "123207.527500", "123207.987500", "123208.447500", "123208.907500", "123209.367500", "123209.827500", "123210.287500", "123210.747500", "123211.207500", "123211.667500", "123212.127500", "123212.587500", "123213.047500", "123213.507500", "123213.967500", "123214.427500", "123214.887500", "123215.347500", "123215.807500", "123216.267500", "123216.727500", "123217.187500", "123217.647500", "123218.107500", "123218.567500", "123219.027500", "123219.487500", "123219.947500", "123220.407500", "123220.867500", "123221.327500", "123221.787500", "123222.247500", "123222.707500", "123223.167500", "123223.627500", "123224.087500", "123224.547500", "123225.007500", "123225.467500", "123225.927500", "123226.387500", "123226.847500", "123227.307500", "123227.767500", "123228.227500", "123228.687500", "123229.147500", "123229.607500", "123230.067500", "123230.527500", "123230.987500", "123231.447500", "123231.907500", "123232.367500", "123232.827500", "123233.287500", "123233.747500", "123234.207500", "123234.667500", "123235.127500", "123235.587500", "123236.047500", "123236.507500", "123236.967500", "123237.427500", "123237.887500", "123238.347500", "123238.807500", "123239.267500", "123239.727500", "123240.187500", "123240.647500", "123241.107500", "123241.567500", "123242.027500", "123242.487500", "123242.947500", "123243.407500", "123243.867500", "123244.327500", "123244.787500", "123245.247500", "123245.707500", "123246.167500", "123246.627500", "123247.087500", "123247.547500", "123248.007500", "123248.467500", "123248.927500", "123249.387500", "123249.847500", "123250.307500", "123250.767500", "123251.227500", "123251.687500", "123252.147500", "123252.607500", "123253.067500", "123253.527500", "123253.987500", "123254.447500", "123254.907500", "123255.367500", "123255.827500", "123256.287500", "123256.747500", "123257.207500", "123257.667500", "123258.127500", "123258.587500", "123259.047500", "123259.507500", "123259.967500", "123300.427500", "123300.887500", "123301.347500", "123301.807500", "123302.267500", "123302.727500", "123303.187500", "123303.647500", "123304.107500", "123304.567500", "123305.027500", "123305.487500", "123305.947500", "123306.407500", "123306.867500", "123307.327500", "123307.787500", "123308.247500", "123308.707500", "123309.167500", "123309.627500", "123310.087500", "123310.547500", "123311.007500", "123311.467500", "123311.927500", "123312.387500", "123312.847500", "123313.307500", "123313.767500", "123314.227500", "123314.687500", "123315.147500", "123315.607500", "123316.067500", "123316.527500", "123316.987500", "123317.447500", "123317.907500", "123318.367500", "123318.827500", "123319.287500", "123319.747500", "123320.207500", "123320.667500", "123321.127500", "123321.587500", "123322.047500", "123322.507500", "123322.967500", "123323.427500", "123323.887500", "123324.347500", "123324.807500", "123325.267500", "123325.727500", "123326.187500", "123326.647500", "123327.107500", "123327.567500", "123328.027500", "123328.487500", "123328.947500", "123329.407500", "123329.867500", "123330.327500", "123330.787500", "123331.247500", "123331.707500", "123332.167500", "123332.627500", "123333.087500", "123333.547500", "123334.007500", "123334.467500", "123334.927500", "123335.387500", "123335.847500", "123336.307500", "123336.767500", "123337.227500", "123337.687500", "123338.147500", "123338.607500", "123339.067500", "123339.527500", "123339.987500", "123340.447500", "123340.907500", "123341.367500", "123341.827500", "123342.287500", "123342.747500", "123343.207500", "123343.667500", "123344.127500", "123344.587500", "123345.047500", "123345.507500", "123345.967500", "123346.427500", "123346.887500", "123347.347500", "123347.807500", "123348.267500", "123348.727500", "123349.187500", "123349.647500", "123350.107500", "123350.567500", "123351.027500", "123351.487500", "123351.947500", "123352.407500", "123352.867500", "123353.327500", "123353.787500", "123354.247500", "123354.707500", "123355.167500", "123355.627500", "123356.087500", "123356.547500", "123357.007500", "123357.467500", "123357.927500", "123358.387500", "123358.847500", "123359.307500", "123359.767500", "123400.227500", "123400.687500", "123401.147500", "123401.607500", "123402.067500", "123402.527500", "123402.987500", "123403.447500", "123403.907500", "123404.367500", "123404.827500", "123405.287500", "123405.747500", "123406.207500", "123406.667500", "123407.127500", "123407.587500", "123408.047500", "123408.507500", "123408.967500", "123409.427500", "123409.887500", "123410.347500", "123410.807500", "123411.267500", "123411.727500", "123412.187500", "123412.647500", "123413.107500", "123413.567500", "123414.027500", "123414.487500", "123414.947500", "123415.407500", "123415.867500", "123416.327500", "123416.787500", "123417.247500", "123417.707500", "123418.167500", "123418.627500", "123419.087500", "123419.547500", "123420.007500", "123420.467500", "123420.927500", "123421.387500", "123421.847500", "123422.307500", "123422.767500", "123423.227500", "123423.687500", "123424.147500", "123424.607500", "123425.067500", "123425.527500", "123425.987500", "123426.447500", "123426.907500", "123427.367500", "123427.827500", "123428.287500", "123428.747500", "123429.207500", "123429.667500", "123430.127500", "123430.587500", "123431.047500", "123431.507500", "123431.967500", "123432.427500", "123432.887500", "123433.347500", "123433.807500", "123434.267500", "123434.727500", "123435.187500", "123435.647500", "123436.107500", "123436.567500", "123437.027500", "123437.487500", "123437.947500", "123438.407500", "123438.867500", "123439.327500", "123439.787500", "123440.247500", "123440.707500", "123441.167500", "123441.627500", "123442.087500", "123442.547500", "123443.007500", "123443.467500", "123443.927500", "123444.387500", "123444.847500", "123445.307500", "123445.767500", "123446.227500", "123446.687500", "123447.147500", "123447.607500", "123448.067500", "123448.527500", "123448.987500", "123449.447500", "123449.907500", "123450.367500", "123450.827500", "123451.287500", "123451.747500", "123452.207500", "123452.667500", "123453.127500", "123453.587500", "123454.047500", "123454.507500", "123454.967500", "123455.427500", "123455.887500", "123456.347500", "123456.807500", "123457.267500", "123457.727500", "123458.187500", "123458.647500", "123459.107500", "123459.567500", "123500.027500", "123500.487500", "123500.947500", "123501.407500", "123501.867500", "123502.327500", "123502.787500", "123503.247500", "123503.707500", "123504.167500", "123504.627500", "123505.087500", "123505.547500", "123506.007500", "123506.467500", "123506.927500", "123507.387500", "123507.847500", "123508.307500", "123508.767500", "123509.227500", "123509.687500", "123510.147500", "123510.607500", "123511.067500", "123511.527500", "123511.987500", "123512.447500", "123512.907500", "123513.367500", "123513.827500", "123514.287500", "123514.747500", "123515.207500", "123515.667500", "123516.127500", "123516.587500", "123517.047500", "123517.507500", "123517.967500", "123518.427500", "123518.887500", "123519.347500", "123519.807500", "123520.267500", "123520.727500", "123521.187500", "123521.647500", "123522.107500", "123522.567500", "123523.027500", "123523.487500", "123523.947500", "123524.407500", "123524.867500", "123525.327500", "123525.787500", "123526.247500", "123526.707500", "123527.167500", "123527.627500", "123528.087500", "123528.547500", "123529.007500", "123529.467500", "123529.927500", "123530.387500", "123530.847500", "123531.307500", "123531.767500", "123532.227500", "123532.687500", "123533.147500", "123533.607500", "123534.067500", "123534.527500", "123534.987500", "123535.447500", "123535.907500", "123536.367500", "123536.827500", "123537.287500", "123537.747500", "123538.207500", "123538.667500", "123539.127500", "123539.587500", "123540.047500", "123540.507500", "123540.967500", "123541.427500", "123541.887500", "123542.347500", "123542.807500", "123543.267500", "123543.727500", "123544.187500", "123544.647500", "123545.107500", "123545.567500", "123546.027500", "123546.487500", "123546.947500", "123547.407500", "123547.867500", "123548.327500", "123548.787500", "123549.247500", "123549.707500", "123550.167500", "123550.627500", "123551.087500", "123551.547500", "123552.007500", "123552.467500", "123552.927500", "123553.387500", "123553.847500", "123554.307500", "123554.767500", "123555.227500", "123555.687500", "123556.147500", "123556.607500", "123557.067500", "123557.527500", "123557.987500", "123558.447500", "123558.907500", "123559.367500", "123559.827500", "123600.287500", "123600.747500", "123601.207500", "123601.667500", "123602.127500", "123602.587500", "123603.047500", "123603.507500", "123603.967500", "123604.427500", "123604.887500", "123605.347500", "123605.807500", "123606.267500", "123606.727500", "123607.187500", "123607.647500", "123608.107500", "123608.567500", "123609.027500", "123609.487500", "123609.947500", "123610.407500", "123610.867500", "123611.327500", "123611.787500", "123612.247500", "123612.707500", "123613.167500", "123613.627500", "123614.087500", "123614.547500", "123615.007500", "123615.467500", "123615.927500", "123616.387500", "123616.847500", "123617.307500", "123617.767500", "123618.227500", "123618.687500", "123619.147500", "123619.607500", "123620.067500", "123620.527500", "123620.987500", "123621.447500", "123621.907500", "123622.367500", "123622.827500", "123623.287500", "123623.747500", "123624.207500", "123624.667500", "123625.127500", "123625.587500", "123626.047500", "123626.507500", "123626.967500", "123627.427500", "123627.887500", "123628.347500", "123628.807500", "123629.267500", "123629.727500", "123630.187500", "123630.647500", "123631.107500", "123631.567500", "123632.027500", "123632.487500", "123632.947500", "123633.407500", "123633.867500", "123634.327500", "123634.787500", "123635.247500", "123635.707500", "123636.167500", "123636.627500", "123637.087500", "123637.547500", "123638.007500", "123638.467500", "123638.927500", "123639.387500", "123639.847500", "123640.307500", "123640.767500", "123641.227500", "123641.687500", "123642.147500", "123642.607500", "123643.067500", "123643.527500", "123643.987500", "123644.447500", "123644.907500", "123645.367500", "123645.827500", "123646.287500", "123646.747500", "123647.207500", "123647.667500", "123648.127500", "123648.587500", "123649.047500", "123649.507500", "123649.967500", "123650.427500", "123650.887500", "123651.347500", "123651.807500", "123652.267500", "123652.727500", "123653.187500", "123653.647500", "123654.107500", "123654.567500", "123655.027500", "123655.487500", "123655.947500", "123656.407500"],
