{
  "AcquisitionMatrixPE": 82,
  "AcquisitionNumber": 1,
  "AcquisitionTime": "13:21:34.810000",
  "BandwidthPerPixelPhaseEncode": 24.888,
  "BaseResolution": 82,
  "BodyPartExamined": "BRAIN",
  "ConsistencyInfo": "N4_VE11E_LATEST_20181129",
  "ConversionSoftware": "dcm2niix",
  "ConversionSoftwareVersion": "v1.0.20201102",
  "DerivedVendorReportedEchoSpacing": 0.00049,
  "DeviceSerialNumber": "66112",
  "DwellTime": 2e-06,
  "EchoTime": 0.0272,
  "EchoTrainLength": 82,
  "EffectiveEchoSpacing": 0.00049,
  "FlipAngle": 44,
  "ImageComments": "Unaliased MB8/PE3",
  "ImageOrientationPatientDICOM": [0.99023, -0.0960558, 0.101082, 0.103903, 0.991721, -0.0754527],
  "ImageType": [
    "ORIGINAL",
    "PRIMARY",
    "M",
    "MB",
    "ND",
    "NORM",
    "MOSAIC"
],
  "ImagingFrequency": 123.259,
  "InPlanePhaseEncodingDirectionDICOM": "COL",
  "InstitutionAddress": "Maynard 3,Hanover,NH,US,03755",
  "InstitutionName": "Dartmouth College - PBS",
  "InstitutionalDepartmentName": "Department",
  "MRAcquisitionType": "2D",
  "MagneticFieldStrength": 3,
  "Manufacturer": "Siemens",
  "ManufacturersModelName": "Prisma",
  "Modality": "MR",
  "MultibandAccelerationFactor": 8,
  "PartialFourier": 1,
  "PatientPosition": "HFS",
  "PercentPhaseFOV": 100,
  "PercentSampling": 100,
  "PhaseEncodingDirection": "j-",
  "PhaseEncodingSteps": 82,
  "PhaseResolution": 1,
  "PixelBandwidth": 3050,
  "ProcedureStepDescription": "Wager_Wager^1076_spacetop",
  "ProtocolName": "func_run-03_task-faces_acq-ap-mb8",
  "PulseSequenceDetails": "%CustomerSeq%\\cmrr_mbep2d_bold",
  "ReceiveCoilActiveElements": "HEA;HEP",
  "ReceiveCoilName": "Head_32",
  "ReconMatrixPE": 82,
  "RepetitionTime": 0.46,
  "SAR": 0.0946572,
  "ScanOptions": "FS",
  "ScanningSequence": "EP",
  "SequenceName": "epfid2d1_82",
  "SequenceVariant": "SK\\SS",
  "SeriesDescription": "func_run-03_task-faces_acq-ap-mb8",
  "SeriesNumber": 20,
  "ShimSetting": [4248, -7760, -7230, 398, -228, 32, -2, 71],
  "SliceThickness": 2.7,
  "SliceTiming": [0, 0.25, 0.0625, 0.3125, 0.125, 0.375, 0.1875, 0, 0.25, 0.0625, 0.3125, 0.125, 0.375, 0.1875, 0, 0.25, 0.0625, 0.3125, 0.125, 0.375, 0.1875, 0, 0.25, 0.0625, 0.3125, 0.125, 0.375, 0.1875, 0, 0.25, 0.0625, 0.3125, 0.125, 0.375, 0.1875, 0, 0.25, 0.0625, 0.3125, 0.125, 0.375, 0.1875, 0, 0.25, 0.0625, 0.3125, 0.125, 0.375, 0.1875, 0, 0.25, 0.0625, 0.3125, 0.125, 0.375, 0.1875],
  "SoftwareVersions": "syngo MR E11",
  "SpacingBetweenSlices": 2.7,
  "StationName": "AWP66112",
  "TaskName": "faces",
  "TotalReadoutTime": 0.03969,
  "TxRefAmp": 242.794,
  "WipMemBlock": "0f1fc3e9-3468-449e-bade-6b6c449cf935||Sequence: R016 ve11e/master r/434b28f1; Aug  7 2019 18:53:46 by eja",
  "dcmmeta_affine": [
    [-2.656715154647827, 0.27876317501068115, 0.25109294056892395, 89.5161361694336],
    [0.2577107846736908, 2.6607158184051514, -0.23008926212787628, -111.15914154052734],
    [0.27119532227516174, 0.20243416726589203, 2.678434371948242, -94.22096252441406],
    [0.0, 0.0, 0.0, 1.0]
],
  "dcmmeta_reorient_transform": [
    [0.0, -1.0, 0.0, 81.0],
    [1.0, 0.0, 0.0, 0.0],
    [0.0, 0.0, 1.0, 0.0],
    [0.0, 0.0, 0.0, 1.0]
],
  "dcmmeta_shape": [82, 82, 56, 914],
  "dcmmeta_slice_dim": 2,
  "dcmmeta_version": 0.6,
  "global": {
    "const": {
      "AccessionNumber": "A004846",
      "AcquisitionMatrix": [82, 0, 0, 82],
      "AngioFlag": "N",
      "BitsAllocated": 16,
      "BitsStored": 16,
      "BodyPartExamined": "BRAIN",
      "Columns": 656,
      "EchoNumbers": 1,
      "EchoTime": 27.2,
      "EchoTrainLength": 82,
      "FlipAngle": 44.0,
      "HighBit": 15,
      "ImageOrientationPatient": [0.99023013912146, -0.0960558336869, 0.10108188952628, 0.10390263508826, 0.99172129513505, -0.0754527348568],
      "ImagePositionPatient": [-954.57820966595, -794.02125194517, -97.558241912936],
      "ImageType": [
        "ORIGINAL",
        "PRIMARY",
        "M",
        "MB",
        "ND",
        "NORM",
        "MOSAIC"
],
      "ImagedNucleus": "1H",
      "ImagingFrequency": 123.259249,
      "InPlanePhaseEncodingDirection": "COL",
      "MRAcquisitionType": "2D",
      "MagneticFieldStrength": 3.0,
      "Manufacturer": "SIEMENS",
      "ManufacturerModelName": "Prisma",
      "Modality": "MR",
      "NumberOfAverages": 1.0,
      "NumberOfPhaseEncodingSteps": 82,
      "PercentPhaseFieldOfView": 100.0,
      "PercentSampling": 100.0,
      "PerformedProcedureStepStartTime": "121853.445000",
      "PhotometricInterpretation": "MONOCHROME2",
      "PixelBandwidth": 3050.0,
      "PixelRepresentation": 0,
      "PixelSpacing": [2.6829268932343, 2.6829268932343],
      "ProtocolName": "func_run-03_task-faces_acq-ap-mb8",
      "RepetitionTime": 460.0,
      "Rows": 656,
      "SAR": 0.09465720072672,
      "SamplesPerPixel": 1,
      "ScanOptions": "FS",
      "ScanningSequence": "EP",
      "SequenceName": "epfid2d1_82",
      "SequenceVariant": [
        "SK",
        "SS"
],
      "SeriesDescription": "func_run-03_task-faces_acq-ap-mb8",
      "SeriesNumber": 20,
      "SeriesTime": "132150.979000",
      "SliceLocation": -75.670841620595,
      "SliceThickness": 2.7000000476837,
      "SmallestImagePixelValue": 0,
      "SoftwareVersions": "syngo MR E11",
      "SpacingBetweenSlices": 2.6999999954099,
      "SpecificCharacterSet": "ISO_IR 100",
      "StudyID": "1",
      "StudyTime": "121853.359000",
      "TransmitCoilName": "Body",
      "VariableFlipAngleFlag": "N",
      "WindowCenterWidthExplanation": "Algo1"
    },
    "slices": {}
  },
  "time": {
    "samples": {
      "AcquisitionNumber": [1, 2, 3, 4, 5, 6, 7, 8, 9, 10, 11, 12, 13, 14, 15, 16, 17, 18, 19, 20, 21, 22, 23, 24, 25, 26, 27, 28, 29, 30, 31, 32, 33, 34, 35, 36, 37, 38, 39, 40, 41, 42, 43, 44, 45, 46, 47, 48, 49, 50, 51, 52, 53, 54, 55, 56, 57, 58, 59, 60, 61, 62, 63, 64, 65, 66, 67, 68, 69, 70, 71, 72, 73, 74, 75, 76, 77, 78, 79, 80, 81, 82, 83, 84, 85, 86, 87, 88, 89, 90, 91, 92, 93, 94, 95, 96, 97, 98, 99, 100, 101, 102, 103, 104, 105, 106, 107, 108, 109, 110, 111, 112, 113, 114, 115, 116, 117, 118, 119, 120, 121, 122, 123, 124, 125, 126, 127, 128, 129, 130, 131, 132, 133, 134, 135, 136, 137, 138, 139, 140, 141, 142, 143, 144, 145, 146, 147, 148, 149, 150, 151, 152, 153, 154, 155, 156, 157, 158, 159, 160, 161, 162, 163, 164, 165, 166, 167, 168, 169, 170, 171, 172, 173, 174, 175, 176, 177, 178, 179, 180, 181, 182, 183, 184, 185, 186, 187, 188, 189, 190, 191, 192, 193, 194, 195, 196, 197, 198, 199, 200, 201, 202, 203, 204, 205, 206, 207, 208, 209, 210, 211, 212, 213, 214, 215, 216, 217, 218, 219, 220, 221, 222, 223, 224, 225, 226, 227, 228, 229, 230, 231, 232, 233, 234, 235, 236, 237, 238, 239, 240, 241, 242, 243, 244, 245, 246, 247, 248, 249, 250, 251, 252, 253, 254, 255, 256, 257, 258, 259, 260, 261, 262, 263, 264, 265, 266, 267, 268, 269, 270, 271, 272, 273, 274, 275, 276, 277, 278, 279, 280, 281, 282, 283, 284, 285, 286, 287, 288, 289, 290, 291, 292, 293, 294, 295, 296, 297, 298, 299, 300, 301, 302, 303, 304, 305, 306, 307, 308, 309, 310, 311, 312, 313, 314, 315, 316, 317, 318, 319, 320, 321, 322, 323, 324, 325, 326, 327, 328, 329, 330, 331, 332, 333, 334, 335, 336, 337, 338, 339, 340, 341, 342, 343, 344, 345, 346, 347, 348, 349, 350, 351, 352, 353, 354, 355, 356, 357, 358, 359, 360, 361, 362, 363, 364, 365, 366, 367, 368, 369, 370, 371, 372, 373, 374, 375, 376, 377, 378, 379, 380, 381, 382, 383, 384, 385, 386, 387, 388, 389, 390, 391, 392, 393, 394, 395, 396, 397, 398, 399, 400, 401, 402, 403, 404, 405, 406, 407, 408, 409, 410, 411, 412, 413, 414, 415, 416, 417, 418, 419, 420, 421, 422, 423, 424, 425, 426, 427, 428, 429, 430, 431, 432, 433, 434, 435, 436, 437, 438, 439, 440, 441, 442, 443, 444, 445, 446, 447, 448, 449, 450, 451, 452, 453, 454, 455, 456, 457, 458, 459, 460, 461, 462, 463, 464, 465, 466, 467, 468, 469, 470, 471, 472, 473, 474, 475, 476, 477, 478, 479, 480, 481, 482, 483, 484, 485, 486, 487, 488, 489, 490, 491, 492, 493, 494, 495, 496, 497, 498, 499, 500, 501, 502, 503, 504, 505, 506, 507, 508, 509, 510, 511, 512, 513, 514, 515, 516, 517, 518, 519, 520, 521, 522, 523, 524, 525, 526, 527, 528, 529, 530, 531, 532, 533, 534, 535, 536, 537, 538, 539, 540, 541, 542, 543, 544, 545, 546, 547, 548, 549, 550, 551, 552, 553, 554, 555, 556, 557, 558, 559, 560, 561, 562, 563, 564, 565, 566, 567, 568, 569, 570, 571, 572, 573, 574, 575, 576, 577, 578, 579, 580, 581, 582, 583, 584, 585, 586, 587, 588, 589, 590, 591, 592, 593, 594, 595, 596, 597, 598, 599, 600, 601, 602, 603, 604, 605, 606, 607, 608, 609, 610, 611, 612, 613, 614, 615, 616, 617, 618, 619, 620, 621, 622, 623, 624, 625, 626, 627, 628, 629, 630, 631, 632, 633, 634, 635, 636, 637, 638, 639, 640, 641, 642, 643, 644, 645, 646, 647, 648, 649, 650, 651, 652, 653, 654, 655, 656, 657, 658, 659, 660, 661, 662, 663, 664, 665, 666, 667, 668, 669, 670, 671, 672, 673, 674, 675, 676, 677, 678, 679, 680, 681, 682, 683, 684, 685, 686, 687, 688, 689, 690, 691, 692, 693, 694, 695, 696, 697, 698, 699, 700, 701, 702, 703, 704, 705, 706, 707, 708, 709, 710, 711, 712, 713, 714, 715, 716, 717, 718, 719, 720, 721, 722, 723, 724, 725, 726, 727, 728, 729, 730, 731, 732, 733, 734, 735, 736, 737, 738, 739, 740, 741, 742, 743, 744, 745, 746, 747, 748, 749, 750, 751, 752, 753, 754, 755, 756, 757, 758, 759, 760, 761, 762, 763, 764, 765, 766, 767, 768, 769, 770, 771, 772, 773, 774, 775, 776, 777, 778, 779, 780, 781, 782, 783, 784, 785, 786, 787, 788, 789, 790, 791, 792, 793, 794, 795, 796, 797, 798, 799, 800, 801, 802, 803, 804, 805, 806, 807, 808, 809, 810, 811, 812, 813, 814, 815, 816, 817, 818, 819, 820, 821, 822, 823, 824, 825, 826, 827, 828, 829, 830, 831, 832, 833, 834, 835, 836, 837, 838, 839, 840, 841, 842, 843, 844, 845, 846, 847, 848, 849, 850, 851, 852, 853, 854, 855, 856, 857, 858, 859, 860, 861, 862, 863, 864, 865, 866, 867, 868, 869, 870, 871, 872, 873, 874, 875, 876, 877, 878, 879, 880, 881, 882, 883, 884, 885, 886, 887, 888, 889, 890, 891, 892, 893, 894, 895, 896, 897, 898, 899, 900, 901, 902, 903, 904, 905, 906, 907, 908, 909, 910, 911, 912, 913, 914],
      "AcquisitionTime": ["132134.810000", "132135.270000", "132135.730000", "132136.190000", "132136.650000", "132137.110000", "132137.570000", "132138.030000", "132138.490000", "132138.950000", "132139.410000", "132139.870000", "132140.330000", "132140.790000", "132141.250000", "132141.710000", "132142.170000", "132142.630000", "132143.090000", "132143.550000", "132144.010000", "132144.470000", "132144.930000", "132145.390000", "132145.850000", "132146.310000", "132146.770000", "132147.230000", "132147.690000", "132148.150000", "132148.610000", "132149.070000", "132149.530000", "132149.990000", "132150.450000", "132150.910000", "132151.370000", "132151.830000", "132152.290000", "132152.750000", "132153.210000", "132153.670000", "132154.130000", "132154.590000", "132155.050000", "132155.510000", "132155.970000", "132156.430000", "132156.890000", "132157.350000", "132157.810000", "132158.270000", "132158.730000", "132159.190000", "132159.650000", "132200.110000", "132200.570000", "132201.030000", "132201.490000", "132201.950000", "132202.410000", "132202.870000", "132203.330000", "132203.790000", "132204.250000", "132204.710000", "132205.170000", "132205.630000", "132206.090000", "132206.550000", "132207.010000", "132207.470000", "132207.930000", "132208.390000", "132208.850000", "132209.310000", "132209.770000", "132210.230000", "132210.690000", "132211.150000", "132211.610000", "132212.070000", "132212.530000", "132212.990000", "132213.450000", "132213.910000", "132214.370000", "132214.830000", "132215.290000", "132215.750000", "132216.210000", "132216.670000", "132217.130000", "132217.590000", "132218.050000", "132218.510000", "132218.970000", "132219.430000", "132219.890000", "132220.350000", "132220.810000", "132221.270000", "132221.730000", "132222.190000", "132222.650000", "132223.110000", "132223.570000", "132224.030000", "132224.490000", "132224.950000", "132225.410000", "132225.870000", "132226.330000", "132226.790000", "132227.250000", "132227.710000", "132228.170000", "132228.630000", "132229.090000", "132229.550000", "132230.010000", "132230.470000", "132230.930000", "132231.390000", "132231.850000", "132232.310000", "132232.770000", "132233.230000", "132233.690000", "132234.150000", "132234.610000", "132235.070000", "132235.530000", "132235.990000", "132236.450000", "132236.910000", "132237.370000", "132237.830000", "132238.290000", "132238.750000", "132239.210000", "132239.670000", "132240.130000", "132240.590000", "132241.050000", "132241.510000", "132241.970000", "132242.430000", "132242.890000", "132243.350000", "132243.810000", "132244.270000", "132244.730000", "132245.190000", "132245.650000", "132246.110000", "132246.570000", "132247.030000", "132247.490000", "132247.950000", "132248.410000", "132248.870000", "132249.330000", "132249.790000", "132250.250000", "132250.710000", "132251.170000", "132251.630000", "132252.090000", "132252.550000", "132253.010000", "132253.470000", "132253.930000", "132254.390000", "132254.850000", "132255.310000", "132255.770000", "132256.230000", "132256.690000", "132257.150000", "132257.610000", "132258.070000", "132258.530000", "132258.990000", "132259.450000", "132259.910000", "132300.370000", "132300.830000", "132301.290000", "132301.750000", "132302.210000", "132302.670000", "132303.130000", "132303.590000", "132304.050000", "132304.510000", "132304.970000", "132305.430000", "132305.890000", "132306.350000", "132306.810000", "132307.270000", "132307.730000", "132308.190000", "132308.650000", "132309.110000", "132309.570000", "132310.030000", "132310.490000", "132310.950000", "132311.410000", "132311.870000", "132312.330000", "132312.790000", "132313.250000", "132313.710000", "132314.170000", "132314.630000", "132315.090000", "132315.550000", "132316.010000", "132316.470000", "132316.930000", "132317.390000", "132317.850000", "132318.310000", "132318.770000", "132319.230000", "132319.690000", "132320.150000", "132320.610000", "132321.070000", "132321.530000", "132321.990000", "132322.450000", "132322.910000", "132323.370000", "132323.830000", "132324.290000", "132324.750000", "132325.210000", "132325.670000", "132326.130000", "132326.590000", "132327.050000", "132327.510000", "132327.970000", "132328.430000", "132328.890000", "132329.350000", "132329.810000", "132330.270000", "132330.730000", "132331.190000", "132331.650000", "132332.110000", "132332.570000", "132333.030000", "132333.490000", "132333.950000", "132334.410000", "132334.870000", "132335.330000", "132335.790000", "132336.250000", "132336.710000", "132337.170000", "132337.630000", "132338.090000", "132338.550000", "132339.010000", "132339.470000", "132339.930000", "132340.390000", "132340.850000", "132341.310000", "132341.770000", "132342.230000", "132342.690000", "132343.150000", "132343.610000", "132344.070000", "132344.530000", "132344.990000", "132345.450000", "132345.910000", "132346.370000", "132346.830000", "132347.290000", "132347.750000", "132348.210000", "132348.670000", "132349.130000", "132349.590000", "132350.050000", "132350.510000", "132350.970000", "132351.430000", "132351.890000", "132352.350000", "132352.810000", "132353.270000", "132353.730000", "132354.190000", "132354.650000", "132355.110000", "132355.570000", "132356.030000", "132356.490000", "132356.950000", "132357.410000", "132357.870000", "132358.330000", "132358.790000", "132359.250000", "132359.710000", "132400.170000", "132400.630000", "132401.090000", "132401.550000", "132402.010000", "132402.470000", "132402.930000", "132403.390000", "132403.850000", "132404.310000", "132404.770000", "132405.230000", "132405.690000", "132406.150000", "132406.610000", "132407.070000", "132407.530000", "132407.990000", "132408.450000", "132408.910000", "132409.370000", "132409.830000", "132410.290000", "132410.750000", "132411.210000", "132411.670000", "132412.130000", "132412.590000", "132413.050000", "132413.510000", "132413.970000", "132414.430000", "132414.890000", "132415.350000", "132415.810000", "132416.270000", "132416.730000", "132417.190000", "132417.650000", "132418.110000", "132418.570000", "132419.030000", "132419.490000", "132419.950000", "132420.410000", "132420.870000", "132421.330000", "132421.790000", "132422.250000", "132422.710000", "132423.170000", "132423.630000", "132424.090000", "132424.550000", "132425.010000", "132425.470000", "132425.930000", "132426.390000", "132426.850000", "132427.310000", "132427.770000", "132428.230000", "132428.690000", "132429.150000", "132429.610000", "132430.070000", "132430.530000", "132430.990000", "132431.450000", "132431.910000", "132432.370000", "132432.830000", "132433.290000", "132433.750000", "132434.210000", "132434.670000", "132435.130000", "132435.590000", "132436.050000", "132436.510000", "132436.970000", "132437.430000", "132437.890000", "132438.350000", "132438.810000", "132439.270000", "132439.730000", "132440.190000", "132440.650000", "132441.110000", "132441.570000", "132442.030000", "132442.490000", "132442.950000", "132443.410000", "132443.870000", "132444.330000", "132444.790000", "132445.250000", "132445.710000", "132446.170000", "132446.630000", "132447.090000", "132447.550000", "132448.010000", "132448.470000", "132448.930000", "132449.390000", "132449.850000", "132450.310000", "132450.770000", "132451.230000", "132451.690000", "132452.150000", "132452.610000", "132453.070000", "132453.530000", "132453.990000", "132454.450000", "132454.910000", "132455.370000", "132455.830000", "132456.290000", "132456.750000", "132457.210000", "132457.670000", "132458.130000", "132458.590000", "132459.050000", "132459.510000", "132459.970000", "132500.430000", "132500.890000", "132501.350000", "132501.810000", "132502.270000", "132502.730000", "132503.190000", "132503.650000", "132504.110000", "132504.570000", "132505.030000", "132505.490000", "132505.950000", "132506.410000", "132506.870000", "132507.330000", "132507.790000", "132508.250000", "132508.710000", "132509.170000", "132509.630000", "132510.090000", "132510.550000", "132511.010000", "132511.470000", "132511.930000", "132512.390000", "132512.850000", "132513.310000", "132513.770000", "132514.230000", "132514.690000", "132515.150000", "132515.610000", "132516.070000", "132516.530000", "132516.990000", "132517.450000", "132517.910000", "132518.370000", "132518.830000", "132519.290000", "132519.750000", "132520.210000", "132520.670000", "132521.130000", "132521.590000", "132522.050000", "132522.510000", "132522.970000", "132523.430000", "132523.890000", "132524.350000", "132524.810000", "132525.270000", "132525.730000", "132526.190000", "132526.650000", "132527.110000", "132527.570000", "132528.030000", "132528.490000", "132528.950000", "132529.410000", "132529.870000", "132530.330000", "132530.790000", "132531.250000", "132531.710000", "132532.170000", "132532.630000", "132533.090000", "132533.550000", "132534.010000", "132534.470000", "132534.930000", "132535.390000", "132535.850000", "132536.310000", "132536.770000", "132537.230000", "132537.690000", "132538.150000", "132538.610000", "132539.070000", "132539.530000", "132539.990000", "132540.450000", "132540.910000", "132541.370000", "132541.830000", "132542.290000", "132542.750000", "132543.210000", "132543.670000", "132544.130000", "132544.590000", "132545.050000", "132545.510000", "132545.970000", "132546.430000", "132546.890000", "132547.350000", "132547.810000", "132548.270000", "132548.730000", "132549.190000", "132549.650000", "132550.110000", "132550.570000", "132551.030000", "132551.490000", "132551.950000", "132552.410000", "132552.870000", "132553.330000", "132553.790000", "132554.250000", "132554.710000", "132555.170000", "132555.630000", "132556.090000", "132556.550000", "132557.010000", "132557.470000", "132557.930000", "132558.390000", "132558.850000", "132559.310000", "132559.770000", "132600.230000", "132600.690000", "132601.150000", "132601.610000", "132602.070000", "132602.530000", "132602.990000", "132603.450000", "132603.910000", "132604.370000", "132604.830000", "132605.290000", "132605.750000", "132606.210000", "132606.670000", "132607.130000", "132607.590000", "132608.050000", "132608.510000", "132608.970000", "132609.430000", "132609.890000", "132610.350000", "132610.810000", "132611.270000", "132611.730000", "132612.190000", "132612.650000", "132613.110000", "132613.570000", "132614.030000", "132614.490000", "132614.950000", "132615.410000", "132615.870000", "132616.330000", "132616.790000", "132617.250000", "132617.710000", "132618.170000", "132618.630000", "132619.090000", "132619.550000", "132620.010000", "132620.470000", "132620.930000", "132621.390000", "132621.850000", "132622.310000", "132622.770000", "132623.230000", "132623.690000", "132624.150000", "132624.610000", "132625.070000", "132625.530000", "132625.990000", "132626.450000", "132626.910000", "132627.370000", "132627.830000", "132628.290000", "132628.750000", "132629.210000", "132629.670000", "132630.130000", "132630.590000", "132631.050000", "132631.510000", "132631.970000", "132632.430000", "132632.890000", "132633.350000", "132633.810000", "132634.270000", "132634.730000", "132635.190000", "132635.650000", "132636.110000", "132636.570000", "132637.030000", "132637.490000", "132637.950000", "132638.410000", "132638.870000", "132639.330000", "132639.790000", "132640.250000", "132640.710000", "132641.170000", "132641.630000", "132642.090000", "132642.550000", "132643.010000", "132643.470000", "132643.930000", "132644.390000", "132644.850000", "132645.310000", "132645.770000", "132646.230000", "132646.690000", "132647.150000", "132647.610000", "132648.070000", "132648.530000", "132648.990000", "132649.450000", "132649.910000", "132650.370000", "132650.830000", "132651.290000", "132651.750000", "132652.210000", "132652.670000", "132653.130000", "132653.590000", "132654.050000", "132654.510000", "132654.970000", "132655.430000", "132655.890000", "132656.350000", "132656.810000", "132657.270000", "132657.730000", "132658.190000", "132658.650000", "132659.110000", "132659.570000", "132700.030000", "132700.490000", "132700.950000", "132701.410000", "132701.870000", "132702.330000", "132702.790000", "132703.250000", "132703.710000", "132704.170000", "132704.630000", "132705.090000", "132705.550000", "132706.010000", "132706.470000", "132706.930000", "132707.390000", "132707.850000", "132708.310000", "132708.770000", "132709.230000", "132709.690000", "132710.150000", "132710.610000", "132711.070000", "132711.530000", "132711.990000", "132712.450000", "132712.910000", "132713.370000", "132713.830000", "132714.290000", "132714.750000", "132715.210000", "132715.670000", "132716.130000", "132716.590000", "132717.050000", "132717.510000", "132717.970000", "132718.430000", "132718.890000", "132719.350000", "132719.810000", "132720.270000", "132720.730000", "132721.190000", "132721.650000", "132722.110000", "132722.570000", "132723.030000", "132723.490000", "132723.950000", "132724.410000", "132724.870000", "132725.330000", "132725.790000", "132726.250000", "132726.710000", "132727.170000", "132727.630000", "132728.090000", "132728.550000", "132729.010000", "132729.470000", "132729.930000", "132730.390000", "132730.850000", "132731.310000", "132731.770000", "132732.230000", "132732.690000", "132733.150000", "132733.610000", "132734.070000", "132734.530000", "132734.990000", "132735.450000", "132735.910000", "132736.370000", "132736.830000", "132737.290000", "132737.750000", "132738.210000", "132738.670000", "132739.130000", "132739.590000", "132740.050000", "132740.510000", "132740.970000", "132741.430000", "132741.890000", "132742.350000", "132742.810000", "132743.270000", "132743.730000", "132744.190000", "132744.650000", "132745.110000", "132745.570000", "132746.030000", "132746.490000", "132746.950000", "132747.410000", "132747.870000", "132748.330000", "132748.790000", "132749.250000", "132749.710000", "132750.170000", "132750.630000", "132751.090000", "132751.550000", "132752.010000", "132752.470000", "132752.930000", "132753.390000", "132753.850000", "132754.310000", "132754.770000", "132755.230000", "132755.690000", "132756.150000", "132756.610000", "132757.070000", "132757.530000", "132757.990000", "132758.450000", "132758.910000", "132759.370000", "132759.830000", "132800.290000", "132800.750000", "132801.210000", "132801.670000", "132802.130000", "132802.590000", "132803.050000", "132803.510000", "132803.970000", "132804.430000", "132804.890000", "132805.350000", "132805.810000", "132806.270000", "132806.730000", "132807.190000", "132807.650000", "132808.110000", "132808.570000", "132809.030000", "132809.490000", "132809.950000", "132810.410000", "132810.870000", "132811.330000", "132811.790000", "132812.250000", "132812.710000", "132813.170000", "132813.630000", "132814.090000", "132814.550000", "132815.010000", "132815.470000", "132815.930000", "132816.390000", "132816.850000", "132817.310000", "132817.770000", "132818.230000", "132818.690000", "132819.150000", "132819.610000", "132820.070000", "132820.530000", "132820.990000", "132821.450000", "132821.910000", "132822.370000", "132822.830000", "132823.290000", "132823.750000", "132824.210000", "132824.670000", "132825.130000", "132825.590000", "132826.050000", "132826.510000", "132826.970000", "132827.430000", "132827.890000", "132828.350000", "132828.810000", "132829.270000", "132829.730000", "132830.190000", "132830.650000", "132831.110000", "132831.570000", "132832.030000", "132832.490000", "132832.950000", "132833.410000", "132833.870000", "132834.330000", "132834.790000"],
