{
  "AcquisitionMatrixPE": 82,
  "AcquisitionNumber": 1,
  "AcquisitionTime": "12:29:18.847500",
  "BandwidthPerPixelPhaseEncode": 24.888,
  "BaseResolution": 82,
  "BodyPartExamined": "BRAIN",
  "ConsistencyInfo": "N4_VE11E_LATEST_20181129",
  "ConversionSoftware": "dcm2niix",
  "ConversionSoftwareVersion": "v1.0.20201102",
  "DerivedVendorReportedEchoSpacing": 0.00049,
  "DeviceSerialNumber": "66112",
  "DwellTime": 2e-06,
  "EchoTime": 0.0272,
  "EchoTrainLength": 82,
  "EffectiveEchoSpacing": 0.00049,
  "FlipAngle": 44,
  "ImageComments": "Unaliased MB8/PE3",
  "ImageOrientationPatientDICOM": [0.99023, -0.0960558, 0.101082, 0.103903, 0.991721, -0.0754527],
  "ImageType": [
    "ORIGINAL",
    "PRIMARY",
    "M",
    "MB",
    "ND",
    "NORM",
    "MOSAIC"
],
  "ImagingFrequency": 123.259,
  "InPlanePhaseEncodingDirectionDICOM": "COL",
  "InstitutionAddress": "Maynard 3,Hanover,NH,US,03755",
  "InstitutionName": "Dartmouth College - PBS",
  "InstitutionalDepartmentName": "Department",
  "MRAcquisitionType": "2D",
  "MagneticFieldStrength": 3,
  "Manufacturer": "Siemens",
  "ManufacturersModelName": "Prisma",
  "Modality": "MR",
  "MultibandAccelerationFactor": 8,
  "PartialFourier": 1,
  "PatientPosition": "HFS",
  "PercentPhaseFOV": 100,
  "PercentSampling": 100,
  "PhaseEncodingDirection": "j-",
  "PhaseEncodingSteps": 82,
  "PhaseResolution": 1,
  "PixelBandwidth": 3050,
  "ProcedureStepDescription": "Wager_Wager^1076_spacetop",
  "ProtocolName": "func_run-01_task-narratives_acq-ap-mb8",
  "PulseSequenceDetails": "%CustomerSeq%\\cmrr_mbep2d_bold",
  "ReceiveCoilActiveElements": "HEA;HEP",
  "ReceiveCoilName": "Head_32",
  "ReconMatrixPE": 82,
  "RepetitionTime": 0.46,
  "SAR": 0.094688,
  "ScanOptions": "FS",
  "ScanningSequence": "EP",
  "SequenceName": "epfid2d1_82",
  "SequenceVariant": "SK\\SS",
  "SeriesDescription": "func_run-01_task-narratives_acq-ap-mb8",
  "SeriesNumber": 8,
  "ShimSetting": [4248, -7760, -7230, 398, -228, 32, -2, 71],
  "SliceThickness": 2.7,
  "SliceTiming": [0, 0.2525, 0.0625, 0.315, 0.125, 0.3775, 0.19, 0, 0.2525, 0.0625, 0.315, 0.125, 0.3775, 0.19, 0, 0.2525, 0.0625, 0.315, 0.125, 0.3775, 0.19, 0, 0.2525, 0.0625, 0.315, 0.125, 0.3775, 0.19, 0, 0.2525, 0.0625, 0.315, 0.125, 0.3775, 0.19, 0, 0.2525, 0.0625, 0.315, 0.125, 0.3775, 0.19, 0, 0.2525, 0.0625, 0.315, 0.125, 0.3775, 0.19, 0, 0.2525, 0.0625, 0.315, 0.125, 0.3775, 0.19],
  "SoftwareVersions": "syngo MR E11",
  "SpacingBetweenSlices": 2.7,
  "StationName": "AWP66112",
  "TaskName": "narratives",
  "TotalReadoutTime": 0.03969,
  "TxRefAmp": 242.794,
  "WipMemBlock": "478b0aba-32eb-4f7c-a998-4c9855218efd||Sequence: R016 ve11e/master r/434b28f1; Aug  7 2019 18:53:46 by eja",
  "dcmmeta_affine": [
    [-2.656715154647827, 0.27876317501068115, 0.25109294056892395, 89.5161361694336],
    [0.2577107846736908, 2.6607158184051514, -0.23008926212787628, -111.15914154052734],
    [0.27119532227516174, 0.20243416726589203, 2.678434371948242, -94.22096252441406],
    [0.0, 0.0, 0.0, 1.0]
],
  "dcmmeta_reorient_transform": [
    [0.0, -1.0, 0.0, 81.0],
    [1.0, 0.0, 0.0, 0.0],
    [0.0, 0.0, 1.0, 0.0],
    [0.0, 0.0, 0.0, 1.0]
],
  "dcmmeta_shape": [82, 82, 56, 967],
  "dcmmeta_slice_dim": 2,
  "dcmmeta_version": 0.6,
  "global": {
    "const": {
      "AccessionNumber": "A004846",
      "AcquisitionMatrix": [82, 0, 0, 82],
      "AngioFlag": "N",
      "BitsAllocated": 16,
      "BitsStored": 16,
      "BodyPartExamined": "BRAIN",
      "Columns": 656,
      "EchoNumbers": 1,
      "EchoTime": 27.2,
      "EchoTrainLength": 82,
      "FlipAngle": 44.0,
      "HighBit": 15,
      "ImageOrientationPatient": [0.99023013912146, -0.0960558336869, 0.10108188952628, 0.10390263508826, 0.99172129513505, -0.0754527348568],
      "ImagePositionPatient": [-954.57820966595, -794.02125194517, -97.558241912936],
      "ImageType": [
        "ORIGINAL",
        "PRIMARY",
        "M",
        "MB",
        "ND",
        "NORM",
        "MOSAIC"
],
      "ImagedNucleus": "1H",
      "ImagingFrequency": 123.25923,
      "InPlanePhaseEncodingDirection": "COL",
      "MRAcquisitionType": "2D",
      "MagneticFieldStrength": 3.0,
      "Manufacturer": "SIEMENS",
      "ManufacturerModelName": "Prisma",
      "Modality": "MR",
      "NumberOfAverages": 1.0,
      "NumberOfPhaseEncodingSteps": 82,
      "PercentPhaseFieldOfView": 100.0,
      "PercentSampling": 100.0,
      "PerformedProcedureStepStartTime": "121853.445000",
      "PhotometricInterpretation": "MONOCHROME2",
      "PixelBandwidth": 3050.0,
      "PixelRepresentation": 0,
      "PixelSpacing": [2.6829268932343, 2.6829268932343],
      "ProtocolName": "func_run-01_task-narratives_acq-ap-mb8",
      "RepetitionTime": 460.0,
      "Rows": 656,
      "SAR": 0.09468797674072,
      "SamplesPerPixel": 1,
      "ScanOptions": "FS",
      "ScanningSequence": "EP",
      "SequenceName": "epfid2d1_82",
      "SequenceVariant": [
        "SK",
        "SS"
],
      "SeriesDescription": "func_run-01_task-narratives_acq-ap-mb8",
      "SeriesNumber": 8,
      "SeriesTime": "122930.971000",
      "SliceLocation": -75.670841620595,
      "SliceThickness": 2.7000000476837,
      "SmallestImagePixelValue": 0,
      "SoftwareVersions": "syngo MR E11",
      "SpacingBetweenSlices": 2.6999999954099,
      "SpecificCharacterSet": "ISO_IR 100",
      "StudyID": "1",
      "StudyTime": "121853.359000",
      "TransmitCoilName": "Body",
      "VariableFlipAngleFlag": "N",
      "WindowCenterWidthExplanation": "Algo1"
    },
    "slices": {}
  },
  "time": {
    "samples": {
      "AcquisitionNumber": [1, 2, 3, 4, 5, 6, 7, 8, 9, 10, 11, 12, 13, 14, 15, 16, 17, 18, 19, 20, 21, 22, 23, 24, 25, 26, 27, 28, 29, 30, 31, 32, 33, 34, 35, 36, 37, 38, 39, 40, 41, 42, 43, 44, 45, 46, 47, 48, 49, 50, 51, 52, 53, 54, 55, 56, 57, 58, 59, 60, 61, 62, 63, 64, 65, 66, 67, 68, 69, 70, 71, 72, 73, 74, 75, 76, 77, 78, 79, 80, 81, 82, 83, 84, 85, 86, 87, 88, 89, 90, 91, 92, 93, 94, 95, 96, 97, 98, 99, 100, 101, 102, 103, 104, 105, 106, 107, 108, 109, 110, 111, 112, 113, 114, 115, 116, 117, 118, 119, 120, 121, 122, 123, 124, 125, 126, 127, 128, 129, 130, 131, 132, 133, 134, 135, 136, 137, 138, 139, 140, 141, 142, 143, 144, 145, 146, 147, 148, 149, 150, 151, 152, 153, 154, 155, 156, 157, 158, 159, 160, 161, 162, 163, 164, 165, 166, 167, 168, 169, 170, 171, 172, 173, 174, 175, 176, 177, 178, 179, 180, 181, 182, 183, 184, 185, 186, 187, 188, 189, 190, 191, 192, 193, 194, 195, 196, 197, 198, 199, 200, 201, 202, 203, 204, 205, 206, 207, 208, 209, 210, 211, 212, 213, 214, 215, 216, 217, 218, 219, 220, 221, 222, 223, 224, 225, 226, 227, 228, 229, 230, 231, 232, 233, 234, 235, 236, 237, 238, 239, 240, 241, 242, 243, 244, 245, 246, 247, 248, 249, 250, 251, 252, 253, 254, 255, 256, 257, 258, 259, 260, 261, 262, 263, 264, 265, 266, 267, 268, 269, 270, 271, 272, 273, 274, 275, 276, 277, 278, 279, 280, 281, 282, 283, 284, 285, 286, 287, 288, 289, 290, 291, 292, 293, 294, 295, 296, 297, 298, 299, 300, 301, 302, 303, 304, 305, 306, 307, 308, 309, 310, 311, 312, 313, 314, 315, 316, 317, 318, 319, 320, 321, 322, 323, 324, 325, 326, 327, 328, 329, 330, 331, 332, 333, 334, 335, 336, 337, 338, 339, 340, 341, 342, 343, 344, 345, 346, 347, 348, 349, 350, 351, 352, 353, 354, 355, 356, 357, 358, 359, 360, 361, 362, 363, 364, 365, 366, 367, 368, 369, 370, 371, 372, 373, 374, 375, 376, 377, 378, 379, 380, 381, 382, 383, 384, 385, 386, 387, 388, 389, 390, 391, 392, 393, 394, 395, 396, 397, 398, 399, 400, 401, 402, 403, 404, 405, 406, 407, 408, 409, 410, 411, 412, 413, 414, 415, 416, 417, 418, 419, 420, 421, 422, 423, 424, 425, 426, 427, 428, 429, 430, 431, 432, 433, 434, 435, 436, 437, 438, 439, 440, 441, 442, 443, 444, 445, 446, 447, 448, 449, 450, 451, 452, 453, 454, 455, 456, 457, 458, 459, 460, 461, 462, 463, 464, 465, 466, 467, 468, 469, 470, 471, 472, 473, 474, 475, 476, 477, 478, 479, 480, 481, 482, 483, 484, 485, 486, 487, 488, 489, 490, 491, 492, 493, 494, 495, 496, 497, 498, 499, 500, 501, 502, 503, 504, 505, 506, 507, 508, 509, 510, 511, 512, 513, 514, 515, 516, 517, 518, 519, 520, 521, 522, 523, 524, 525, 526, 527, 528, 529, 530, 531, 532, 533, 534, 535, 536, 537, 538, 539, 540, 541, 542, 543, 544, 545, 546, 547, 548, 549, 550, 551, 552, 553, 554, 555, 556, 557, 558, 559, 560, 561, 562, 563, 564, 565, 566, 567, 568, 569, 570, 571, 572, 573, 574, 575, 576, 577, 578, 579, 580, 581, 582, 583, 584, 585, 586, 587, 588, 589, 590, 591, 592, 593, 594, 595, 596, 597, 598, 599, 600, 601, 602, 603, 604, 605, 606, 607, 608, 609, 610, 611, 612, 613, 614, 615, 616, 617, 618, 619, 620, 621, 622, 623, 624, 625, 626, 627, 628, 629, 630, 631, 632, 633, 634, 635, 636, 637, 638, 639, 640, 641, 642, 643, 644, 645, 646, 647, 648, 649, 650, 651, 652, 653, 654, 655, 656, 657, 658, 659, 660, 661, 662, 663, 664, 665, 666, 667, 668, 669, 670, 671, 672, 673, 674, 675, 676, 677, 678, 679, 680, 681, 682, 683, 684, 685, 686, 687, 688, 689, 690, 691, 692, 693, 694, 695, 696, 697, 698, 699, 700, 701, 702, 703, 704, 705, 706, 707, 708, 709, 710, 711, 712, 713, 714, 715, 716, 717, 718, 719, 720, 721, 722, 723, 724, 725, 726, 727, 728, 729, 730, 731, 732, 733, 734, 735, 736, 737, 738, 739, 740, 741, 742, 743, 744, 745, 746, 747, 748, 749, 750, 751, 752, 753, 754, 755, 756, 757, 758, 759, 760, 761, 762, 763, 764, 765, 766, 767, 768, 769, 770, 771, 772, 773, 774, 775, 776, 777, 778, 779, 780, 781, 782, 783, 784, 785, 786, 787, 788, 789, 790, 791, 792, 793, 794, 795, 796, 797, 798, 799, 800, 801, 802, 803, 804, 805, 806, 807, 808, 809, 810, 811, 812, 813, 814, 815, 816, 817, 818, 819, 820, 821, 822, 823, 824, 825, 826, 827, 828, 829, 830, 831, 832, 833, 834, 835, 836, 837, 838, 839, 840, 841, 842, 843, 844, 845, 846, 847, 848, 849, 850, 851, 852, 853, 854, 855, 856, 857, 858, 859, 860, 861, 862, 863, 864, 865, 866, 867, 868, 869, 870, 871, 872, 873, 874, 875, 876, 877, 878, 879, 880, 881, 882, 883, 884, 885, 886, 887, 888, 889, 890, 891, 892, 893, 894, 895, 896, 897, 898, 899, 900, 901, 902, 903, 904, 905, 906, 907, 908, 909, 910, 911, 912, 913, 914, 915, 916, 917, 918, 919, 920, 921, 922, 923, 924, 925, 926, 927, 928, 929, 930, 931, 932, 933, 934, 935, 936, 937, 938, 939, 940, 941, 942, 943, 944, 945, 946, 947, 948, 949, 950, 951, 952, 953, 954, 955, 956, 957, 958, 959, 960, 961, 962, 963, 964, 965, 966, 967],
      "AcquisitionTime": ["122918.847500", "122919.307500", "122919.767500", "122920.227500", "122920.687500", "122921.147500", "122921.607500", "122922.067500", "122922.527500", "122922.987500", "122923.447500", "122923.907500", "122924.367500", "122924.827500", "122925.287500", "122925.747500", "122926.207500", "122926.667500", "122927.127500", "122927.587500", "122928.047500", "122928.507500", "122928.967500", "122929.427500", "122929.887500", "122930.347500", "122930.807500", "122931.267500", "122931.727500", "122932.187500", "122932.647500", "122933.107500", "122933.567500", "122934.027500", "122934.487500", "122934.947500", "122935.407500", "122935.867500", "122936.327500", "122936.787500", "122937.247500", "122937.707500", "122938.167500", "122938.627500", "122939.087500", "122939.547500", "122940.007500", "122940.467500", "122940.927500", "122941.387500", "122941.847500", "122942.307500", "122942.767500", "122943.227500", "122943.687500", "122944.147500", "122944.607500", "122945.067500", "122945.527500", "122945.987500", "122946.447500", "122946.907500", "122947.367500", "122947.827500", "122948.287500", "122948.747500", "122949.207500", "122949.667500", "122950.127500", "122950.587500", "122951.047500", "122951.507500", "122951.967500", "122952.427500", "122952.887500", "122953.347500", "122953.807500", "122954.267500", "122954.727500", "122955.187500", "122955.647500", "122956.107500", "122956.567500", "122957.027500", "122957.487500", "122957.947500", "122958.407500", "122958.867500", "122959.327500", "122959.787500", "123000.247500", "123000.707500", "123001.167500", "123001.627500", "123002.087500", "123002.547500", "123003.007500", "123003.467500", "123003.927500", "123004.387500", "123004.847500", "123005.307500", "123005.767500", "123006.227500", "123006.687500", "123007.147500", "123007.607500", "123008.067500", "123008.527500", "123008.987500", "123009.447500", "123009.907500", "123010.367500", "123010.827500", "123011.287500", "123011.747500", "123012.207500", "123012.667500", "123013.127500", "123013.587500", "123014.047500", "123014.507500", "123014.967500", "123015.427500", "123015.887500", "123016.347500", "123016.807500", "123017.267500", "123017.727500", "123018.187500", "123018.647500", "123019.107500", "123019.567500", "123020.027500", "123020.487500", "123020.947500", "123021.407500", "123021.867500", "123022.327500", "123022.787500", "123023.247500", "123023.707500", "123024.167500", "123024.627500", "123025.087500", "123025.547500", "123026.007500", "123026.467500", "123026.927500", "123027.387500", "123027.847500", "123028.307500", "123028.767500", "123029.227500", "123029.687500", "123030.147500", "123030.607500", "123031.067500", "123031.527500", "123031.987500", "123032.447500", "123032.907500", "123033.367500", "123033.827500", "123034.287500", "123034.747500", "123035.207500", "123035.667500", "123036.127500", "123036.587500", "123037.047500", "123037.507500", "123037.967500", "123038.427500", "123038.887500", "123039.347500", "123039.807500", "123040.267500", "123040.727500", "123041.187500", "123041.647500", "123042.107500", "123042.567500", "123043.027500", "123043.487500", "123043.947500", "123044.407500", "123044.867500", "123045.327500", "123045.787500", "123046.247500", "123046.707500", "123047.167500", "123047.627500", "123048.087500", "123048.547500", "123049.007500", "123049.467500", "123049.927500", "123050.387500", "123050.847500", "123051.307500", "123051.767500", "123052.227500", "123052.687500", "123053.147500", "123053.607500", "123054.067500", "123054.527500", "123054.987500", "123055.447500", "123055.907500", "123056.367500", "123056.827500", "123057.287500", "123057.747500", "123058.207500", "123058.667500", "123059.127500", "123059.587500", "123100.047500", "123100.507500", "123100.967500", "123101.427500", "123101.887500", "123102.347500", "123102.807500", "123103.267500", "123103.727500", "123104.187500", "123104.647500", "123105.107500", "123105.567500", "123106.027500", "123106.487500", "123106.947500", "123107.407500", "123107.867500", "123108.327500", "123108.787500", "123109.247500", "123109.707500", "123110.167500", "123110.627500", "123111.087500", "123111.547500", "123112.007500", "123112.467500", "123112.927500", "123113.387500", "123113.847500", "123114.307500", "123114.767500", "123115.227500", "123115.687500", "123116.147500", "123116.607500", "123117.067500", "123117.527500", "123117.987500", "123118.447500", "123118.907500", "123119.367500", "123119.827500", "123120.287500", "123120.747500", "123121.207500", "123121.667500", "123122.127500", "123122.587500", "123123.047500", "123123.507500", "123123.967500", "123124.427500", "123124.887500", "123125.347500", "123125.807500", "123126.267500", "123126.727500", "123127.187500", "123127.647500", "123128.107500", "123128.567500", "123129.027500", "123129.487500", "123129.947500", "123130.407500", "123130.867500", "123131.327500", "123131.787500", "123132.247500", "123132.707500", "123133.167500", "123133.627500", "123134.087500", "123134.547500", "123135.007500", "123135.467500", "123135.927500", "123136.387500", "123136.847500", "123137.307500", "123137.767500", "123138.227500", "123138.687500", "123139.147500", "123139.607500", "123140.067500", "123140.527500", "123140.987500", "123141.447500", "123141.907500", "123142.367500", "123142.827500", "123143.287500", "123143.747500", "123144.207500", "123144.667500", "123145.127500", "123145.587500", "123146.047500", "123146.507500", "123146.967500", "123147.427500", "123147.887500", "123148.347500", "123148.807500", "123149.267500", "123149.727500", "123150.187500", "123150.647500", "123151.107500", "123151.567500", "123152.027500", "123152.487500", "123152.947500", "123153.407500", "123153.867500", "123154.327500", "123154.787500", "123155.247500", "123155.707500", "123156.167500", "123156.627500", "123157.087500", "123157.547500", "123158.007500", "123158.467500", "123158.927500", "123159.387500", "123159.847500", "123200.307500", "123200.767500", "123201.227500", "123201.687500", "123202.147500", "123202.607500", "123203.067500", "123203.527500", "123203.987500", "123204.447500", "123204.907500", "123205.367500", "123205.827500", "123206.287500", "123206.747500", "123207.207500", "123207.667500", "123208.127500", "123208.587500", "123209.047500", "123209.507500", "123209.967500", "123210.427500", "123210.887500", "123211.347500", "123211.807500", "123212.267500", "123212.727500", "123213.187500", "123213.647500", "123214.107500", "123214.567500", "123215.027500", "123215.487500", "123215.947500", "123216.407500", "123216.867500", "123217.327500", "123217.787500", "123218.247500", "123218.707500", "123219.167500", "123219.627500", "123220.087500", "123220.547500", "123221.007500", "123221.467500", "123221.927500", "123222.387500", "123222.847500", "123223.307500", "123223.767500", "123224.227500", "123224.687500", "123225.147500", "123225.607500", "123226.067500", "123226.527500", "123226.987500", "123227.447500", "123227.907500", "123228.367500", "123228.827500", "123229.287500", "123229.747500", "123230.207500", "123230.667500", "123231.127500", "123231.587500", "123232.047500", "123232.507500", "123232.967500", "123233.427500", "123233.887500", "123234.347500", "123234.807500", "123235.267500", "123235.727500", "123236.187500", "123236.647500", "123237.107500", "123237.567500", "123238.027500", "123238.487500", "123238.947500", "123239.407500", "123239.867500", "123240.327500", "123240.787500", "123241.247500", "123241.707500", "123242.167500", "123242.627500", "123243.087500", "123243.547500", "123244.007500", "123244.467500", "123244.927500", "123245.387500", "123245.847500", "123246.307500", "123246.767500", "123247.227500", "123247.687500", "123248.147500", "123248.607500", "123249.067500", "123249.527500", "123249.987500", "123250.447500", "123250.907500", "123251.367500", "123251.827500", "123252.287500", "123252.747500", "123253.207500", "123253.667500", "123254.127500", "123254.587500", "123255.047500", "123255.507500", "123255.967500", "123256.427500", "123256.887500", "123257.347500", "123257.807500", "123258.267500", "123258.727500", "123259.187500", "123259.647500", "123300.107500", "123300.567500", "123301.027500", "123301.487500", "123301.947500", "123302.407500", "123302.867500", "123303.327500", "123303.787500", "123304.247500", "123304.707500", "123305.167500", "123305.627500", "123306.087500", "123306.547500", "123307.007500", "123307.467500", "123307.927500", "123308.387500", "123308.847500", "123309.307500", "123309.767500", "123310.227500", "123310.687500", "123311.147500", "123311.607500", "123312.067500", "123312.527500", "123312.987500", "123313.447500", "123313.907500", "123314.367500", "123314.827500", "123315.287500", "123315.747500", "123316.207500", "123316.667500", "123317.127500", "123317.587500", "123318.047500", "123318.507500", "123318.967500", "123319.427500", "123319.887500", "123320.347500", "123320.807500", "123321.267500", "123321.727500", "123322.187500", "123322.647500", "123323.107500", "123323.567500", "123324.027500", "123324.487500", "123324.947500", "123325.407500", "123325.867500", "123326.327500", "123326.787500", "123327.247500", "123327.707500", "123328.167500", "123328.627500", "123329.087500", "123329.547500", "123330.007500", "123330.467500", "123330.927500", "123331.387500", "123331.847500", "123332.307500", "123332.767500", "123333.227500", "123333.687500", "123334.147500", "123334.607500", "123335.067500", "123335.527500", "123335.987500", "123336.447500", "123336.907500", "123337.367500", "123337.827500", "123338.287500", "123338.747500", "123339.207500", "123339.667500", "123340.127500", "123340.587500", "123341.047500", "123341.507500", "123341.967500", "123342.427500", "123342.887500", "123343.347500", "123343.807500", "123344.267500", "123344.727500", "123345.187500", "123345.647500", "123346.107500", "123346.567500", "123347.027500", "123347.487500", "123347.947500", "123348.407500", "123348.867500", "123349.327500", "123349.787500", "123350.247500", "123350.707500", "123351.167500", "123351.627500", "123352.087500", "123352.547500", "123353.007500", "123353.467500", "123353.927500", "123354.387500", "123354.847500", "123355.307500", "123355.767500", "123356.227500", "123356.687500", "123357.147500", "123357.607500", "123358.067500", "123358.527500", "123358.987500", "123359.447500", "123359.907500", "123400.367500", "123400.827500", "123401.287500", "123401.747500", "123402.207500", "123402.667500", "123403.127500", "123403.587500", "123404.047500", "123404.507500", "123404.967500", "123405.427500", "123405.887500", "123406.347500", "123406.807500", "123407.267500", "123407.727500", "123408.187500", "123408.647500", "123409.107500", "123409.567500", "123410.027500", "123410.487500", "123410.947500", "123411.407500", "123411.867500", "123412.327500", "123412.787500", "123413.247500", "123413.707500", "123414.167500", "123414.627500", "123415.087500", "123415.547500", "123416.007500", "123416.467500", "123416.927500", "123417.387500", "123417.847500", "123418.307500", "123418.767500", "123419.227500", "123419.687500", "123420.147500", "123420.607500", "123421.067500", "123421.527500", "123421.987500", "123422.447500", "123422.907500", "123423.367500", "123423.827500", "123424.287500", "123424.747500", "123425.207500", "123425.667500", "123426.127500", "123426.587500", "123427.047500", "123427.507500", "123427.967500", "123428.427500", "123428.887500", "123429.347500", "123429.807500", "123430.267500", "123430.727500", "123431.187500", "123431.647500", "123432.107500", "123432.567500", "123433.027500", "123433.487500", "123433.947500", "123434.407500", "123434.867500", "123435.327500", "123435.787500", "123436.247500", "123436.707500", "123437.167500", "123437.627500", "123438.087500", "123438.547500", "123439.007500", "123439.467500", "123439.927500", "123440.387500", "123440.847500", "123441.307500", "123441.767500", "123442.227500", "123442.687500", "123443.147500", "123443.607500", "123444.067500", "123444.527500", "123444.987500", "123445.447500", "123445.907500", "123446.367500", "123446.827500", "123447.287500", "123447.747500", "123448.207500", "123448.667500", "123449.127500", "123449.587500", "123450.047500", "123450.507500", "123450.967500", "123451.427500", "123451.887500", "123452.347500", "123452.807500", "123453.267500", "123453.727500", "123454.187500", "123454.647500", "123455.107500", "123455.567500", "123456.027500", "123456.487500", "123456.947500", "123457.407500", "123457.867500", "123458.327500", "123458.787500", "123459.247500", "123459.707500", "123500.167500", "123500.627500", "123501.087500", "123501.547500", "123502.007500", "123502.467500", "123502.927500", "123503.387500", "123503.847500", "123504.307500", "123504.767500", "123505.227500", "123505.687500", "123506.147500", "123506.607500", "123507.067500", "123507.527500", "123507.987500", "123508.447500", "123508.907500", "123509.367500", "123509.827500", "123510.287500", "123510.747500", "123511.207500", "123511.667500", "123512.127500", "123512.587500", "123513.047500", "123513.507500", "123513.967500", "123514.427500", "123514.887500", "123515.347500", "123515.807500", "123516.267500", "123516.727500", "123517.187500", "123517.647500", "123518.107500", "123518.567500", "123519.027500", "123519.487500", "123519.947500", "123520.407500", "123520.867500", "123521.327500", "123521.787500", "123522.247500", "123522.707500", "123523.167500", "123523.627500", "123524.087500", "123524.547500", "123525.007500", "123525.467500", "123525.927500", "123526.387500", "123526.847500", "123527.307500", "123527.767500", "123528.227500", "123528.687500", "123529.147500", "123529.607500", "123530.067500", "123530.527500", "123530.987500", "123531.447500", "123531.907500", "123532.367500", "123532.827500", "123533.287500", "123533.747500", "123534.207500", "123534.667500", "123535.127500", "123535.587500", "123536.047500", "123536.507500", "123536.967500", "123537.427500", "123537.887500", "123538.347500", "123538.807500", "123539.267500", "123539.727500", "123540.187500", "123540.647500", "123541.107500", "123541.567500", "123542.027500", "123542.487500", "123542.947500", "123543.407500", "123543.867500", "123544.327500", "123544.787500", "123545.247500", "123545.707500", "123546.167500", "123546.627500", "123547.087500", "123547.547500", "123548.007500", "123548.467500", "123548.927500", "123549.387500", "123549.847500", "123550.307500", "123550.767500", "123551.227500", "123551.687500", "123552.147500", "123552.607500", "123553.067500", "123553.527500", "123553.987500", "123554.447500", "123554.907500", "123555.367500", "123555.827500", "123556.287500", "123556.747500", "123557.207500", "123557.667500", "123558.127500", "123558.587500", "123559.047500", "123559.507500", "123559.967500", "123600.427500", "123600.887500", "123601.347500", "123601.807500", "123602.267500", "123602.727500", "123603.187500", "123603.647500", "123604.107500", "123604.567500", "123605.027500", "123605.487500", "123605.947500", "123606.407500", "123606.867500", "123607.327500", "123607.787500", "123608.247500", "123608.707500", "123609.167500", "123609.627500", "123610.087500", "123610.547500", "123611.007500", "123611.467500", "123611.927500", "123612.387500", "123612.847500", "123613.307500", "123613.767500", "123614.227500", "123614.687500", "123615.147500", "123615.607500", "123616.067500", "123616.527500", "123616.987500", "123617.447500", "123617.907500", "123618.367500", "123618.827500", "123619.287500", "123619.747500", "123620.207500", "123620.667500", "123621.127500", "123621.587500", "123622.047500", "123622.507500", "123622.967500", "123623.427500", "123623.887500", "123624.347500", "123624.807500", "123625.267500", "123625.727500", "123626.187500", "123626.647500", "123627.107500", "123627.567500", "123628.027500", "123628.487500", "123628.947500", "123629.407500", "123629.867500", "123630.327500", "123630.787500", "123631.247500", "123631.707500", "123632.167500", "123632.627500", "123633.087500", "123633.547500", "123634.007500", "123634.467500", "123634.927500", "123635.387500", "123635.847500", "123636.307500", "123636.767500", "123637.227500", "123637.687500", "123638.147500", "123638.607500", "123639.067500", "123639.527500", "123639.987500", "123640.447500", "123640.907500", "123641.367500", "123641.827500", "123642.287500", "123642.747500", "123643.207500"],
