{
  "AcquisitionMatrixPE": 82,
  "AcquisitionNumber": 1,
  "AcquisitionTime": "13:31:27.810000",
  "BandwidthPerPixelPhaseEncode": 24.888,
  "BaseResolution": 82,
  "BodyPartExamined": "BRAIN",
  "ConsistencyInfo": "N4_VE11E_LATEST_20181129",
  "ConversionSoftware": "dcm2niix",
  "ConversionSoftwareVersion": "v1.0.20201102",
  "DerivedVendorReportedEchoSpacing": 0.00049,
  "DeviceSerialNumber": "66112",
  "DwellTime": 2e-06,
  "EchoTime": 0.0272,
  "EchoTrainLength": 82,
  "EffectiveEchoSpacing": 0.00049,
  "FlipAngle": 44,
  "ImageComments": "Unaliased MB8/PE3",
  "ImageOrientationPatientDICOM": [0.98868, -0.127904, 0.0784322, 0.129636, 0.991409, -0.0173746],
  "ImageType": [
    "ORIGINAL",
    "PRIMARY",
    "M",
    "MB",
    "ND",
    "NORM",
    "MOSAIC"
],
  "ImagingFrequency": 123.259,
  "InPlanePhaseEncodingDirectionDICOM": "COL",
  "InstitutionAddress": "Maynard 3,Hanover,NH,US,03755",
  "InstitutionName": "Dartmouth College - PBS",
  "InstitutionalDepartmentName": "Department",
  "MRAcquisitionType": "2D",
  "MagneticFieldStrength": 3,
  "Manufacturer": "Siemens",
  "ManufacturersModelName": "Prisma",
  "Modality": "MR",
  "MultibandAccelerationFactor": 8,
  "PartialFourier": 1,
  "PatientPosition": "HFS",
  "PercentPhaseFOV": 100,
  "PercentSampling": 100,
  "PhaseEncodingDirection": "j-",
  "PhaseEncodingSteps": 82,
  "PhaseResolution": 1,
  "PixelBandwidth": 3050,
  "ProcedureStepDescription": "Wager_Wager^1076_spacetop",
  "ProtocolName": "func_run-01_task-alignvideo_acq-ap-mb8",
  "PulseSequenceDetails": "%CustomerSeq%\\cmrr_mbep2d_bold",
  "ReceiveCoilActiveElements": "HEA;HEP",
  "ReceiveCoilName": "Head_32",
  "ReconMatrixPE": 82,
  "RepetitionTime": 0.46,
  "SAR": 0.0946071,
  "ScanOptions": "FS",
  "ScanningSequence": "EP",
  "SequenceName": "epfid2d1_82",
  "SequenceVariant": "SK\\SS",
  "SeriesDescription": "func_run-01_task-alignvideo_acq-ap-mb8",
  "SeriesNumber": 28,
  "ShimSetting": [4248, -7761, -7233, 382, -229, 15, 3, 70],
  "SliceThickness": 2.7,
  "SliceTiming": [0, 0.2525, 0.065, 0.315, 0.1275, 0.3775, 0.19, 0, 0.2525, 0.065, 0.315, 0.1275, 0.3775, 0.19, 0, 0.2525, 0.065, 0.315, 0.1275, 0.3775, 0.19, 0, 0.2525, 0.065, 0.315, 0.1275, 0.3775, 0.19, 0, 0.2525, 0.065, 0.315, 0.1275, 0.3775, 0.19, 0, 0.2525, 0.065, 0.315, 0.1275, 0.3775, 0.19, 0, 0.2525, 0.065, 0.315, 0.1275, 0.3775, 0.19, 0, 0.2525, 0.065, 0.315, 0.1275, 0.3775, 0.19],
  "SoftwareVersions": "syngo MR E11",
  "SpacingBetweenSlices": 2.7,
  "StationName": "AWP66112",
  "TaskName": "alignvideo",
  "TotalReadoutTime": 0.03969,
  "TxRefAmp": 242.794,
  "WipMemBlock": "19e2fae7-7ef3-4f91-ad5e-12027a96df8d||Sequence: R016 ve11e/master r/434b28f1; Aug  7 2019 18:53:46 by eja",
  "dcmmeta_affine": [
    [-2.652557134628296, 0.3478030264377594, 0.20394770801067352, 87.92314147949219],
    [0.3431578278541565, 2.659879207611084, -0.07383289188146591, -119.12541961669922],
    [0.21042798459529877, 0.04661470651626587, 2.6912736892700195, -87.99577331542969],
    [0.0, 0.0, 0.0, 1.0]
],
  "dcmmeta_reorient_transform": [
    [0.0, -1.0, 0.0, 81.0],
    [1.0, 0.0, 0.0, 0.0],
    [0.0, 0.0, 1.0, 0.0],
    [0.0, 0.0, 0.0, 1.0]
],
  "dcmmeta_shape": [82, 82, 56, 839],
  "dcmmeta_slice_dim": 2,
  "dcmmeta_version": 0.6,
  "global": {
    "const": {
      "AccessionNumber": "A004846",
      "AcquisitionMatrix": [82, 0, 0, 82],
      "AngioFlag": "N",
      "BitsAllocated": 16,
      "BitsStored": 16,
      "BodyPartExamined": "BRAIN",
      "Columns": 656,
      "EchoNumbers": 1,
      "EchoTime": 27.2,
      "EchoTrainLength": 82,
      "FlipAngle": 44.0,
      "HighBit": 15,
      "ImageOrientationPatient": [0.98868037175279, -0.1279042800307, 0.07843224885586, 0.12963566756601, 0.9914094602819, -0.0173745721749],
      "ImagePositionPatient": [-977.19855998834, -761.22379440092, -131.23439598146],
      "ImageType": [
        "ORIGINAL",
        "PRIMARY",
        "M",
        "MB",
        "ND",
        "NORM",
        "MOSAIC"
],
      "ImagedNucleus": "1H",
      "ImagingFrequency": 123.259249,
      "InPlanePhaseEncodingDirection": "COL",
      "MRAcquisitionType": "2D",
      "MagneticFieldStrength": 3.0,
      "Manufacturer": "SIEMENS",
      "ManufacturerModelName": "Prisma",
      "Modality": "MR",
      "NumberOfAverages": 1.0,
      "NumberOfPhaseEncodingSteps": 82,
      "PercentPhaseFieldOfView": 100.0,
      "PercentSampling": 100.0,
      "PerformedProcedureStepStartTime": "121853.445000",
      "PhotometricInterpretation": "MONOCHROME2",
      "PixelBandwidth": 3050.0,
      "PixelRepresentation": 0,
      "PixelSpacing": [2.6829268932343, 2.6829268932343],
      "ProtocolName": "func_run-01_task-alignvideo_acq-ap-mb8",
      "RepetitionTime": 460.0,
      "Rows": 656,
      "SAR": 0.09460710930551,
      "SamplesPerPixel": 1,
      "ScanOptions": "FS",
      "ScanningSequence": "EP",
      "SequenceName": "epfid2d1_82",
      "SequenceVariant": [
        "SK",
        "SS"
],
      "SeriesDescription": "func_run-01_task-alignvideo_acq-ap-mb8",
      "SeriesNumber": 28,
      "SeriesTime": "133151.061000",
      "SliceLocation": -77.812449992205,
      "SliceThickness": 2.7000000476837,
      "SmallestImagePixelValue": 0,
      "SoftwareVersions": "syngo MR E11",
      "SpacingBetweenSlices": 2.6999999542078,
      "SpecificCharacterSet": "ISO_IR 100",
      "StudyID": "1",
      "StudyTime": "121853.359000",
      "TransmitCoilName": "Body",
      "VariableFlipAngleFlag": "N",
      "WindowCenterWidthExplanation": "Algo1"
    },
    "slices": {}
  },
  "time": {
    "samples": {
      "AcquisitionNumber": [1, 2, 3, 4, 5, 6, 7, 8, 9, 10, 11, 12, 13, 14, 15, 16, 17, 18, 19, 20, 21, 22, 23, 24, 25, 26, 27, 28, 29, 30, 31, 32, 33, 34, 35, 36, 37, 38, 39, 40, 41, 42, 43, 44, 45, 46, 47, 48, 49, 50, 51, 52, 53, 54, 55, 56, 57, 58, 59, 60, 61, 62, 63, 64, 65, 66, 67, 68, 69, 70, 71, 72, 73, 74, 75, 76, 77, 78, 79, 80, 81, 82, 83, 84, 85, 86, 87, 88, 89, 90, 91, 92, 93, 94, 95, 96, 97, 98, 99, 100, 101, 102, 103, 104, 105, 106, 107, 108, 109, 110, 111, 112, 113, 114, 115, 116, 117, 118, 119, 120, 121, 122, 123, 124, 125, 126, 127, 128, 129, 130, 131, 132, 133, 134, 135, 136, 137, 138, 139, 140, 141, 142, 143, 144, 145, 146, 147, 148, 149, 150, 151, 152, 153, 154, 155, 156, 157, 158, 159, 160, 161, 162, 163, 164, 165, 166, 167, 168, 169, 170, 171, 172, 173, 174, 175, 176, 177, 178, 179, 180, 181, 182, 183, 184, 185, 186, 187, 188, 189, 190, 191, 192, 193, 194, 195, 196, 197, 198, 199, 200, 201, 202, 203, 204, 205, 206, 207, 208, 209, 210, 211, 212, 213, 214, 215, 216, 217, 218, 219, 220, 221, 222, 223, 224, 225, 226, 227, 228, 229, 230, 231, 232, 233, 234, 235, 236, 237, 238, 239, 240, 241, 242, 243, 244, 245, 246, 247, 248, 249, 250, 251, 252, 253, 254, 255, 256, 257, 258, 259, 260, 261, 262, 263, 264, 265, 266, 267, 268, 269, 270, 271, 272, 273, 274, 275, 276, 277, 278, 279, 280, 281, 282, 283, 284, 285, 286, 287, 288, 289, 290, 291, 292, 293, 294, 295, 296, 297, 298, 299, 300, 301, 302, 303, 304, 305, 306, 307, 308, 309, 310, 311, 312, 313, 314, 315, 316, 317, 318, 319, 320, 321, 322, 323, 324, 325, 326, 327, 328, 329, 330, 331, 332, 333, 334, 335, 336, 337, 338, 339, 340, 341, 342, 343, 344, 345, 346, 347, 348, 349, 350, 351, 352, 353, 354, 355, 356, 357, 358, 359, 360, 361, 362, 363, 364, 365, 366, 367, 368, 369, 370, 371, 372, 373, 374, 375, 376, 377, 378, 379, 380, 381, 382, 383, 384, 385, 386, 387, 388, 389, 390, 391, 392, 393, 394, 395, 396, 397, 398, 399, 400, 401, 402, 403, 404, 405, 406, 407, 408, 409, 410, 411, 412, 413, 414, 415, 416, 417, 418, 419, 420, 421, 422, 423, 424, 425, 426, 427, 428, 429, 430, 431, 432, 433, 434, 435, 436, 437, 438, 439, 440, 441, 442, 443, 444, 445, 446, 447, 448, 449, 450, 451, 452, 453, 454, 455, 456, 457, 458, 459, 460, 461, 462, 463, 464, 465, 466, 467, 468, 469, 470, 471, 472, 473, 474, 475, 476, 477, 478, 479, 480, 481, 482, 483, 484, 485, 486, 487, 488, 489, 490, 491, 492, 493, 494, 495, 496, 497, 498, 499, 500, 501, 502, 503, 504, 505, 506, 507, 508, 509, 510, 511, 512, 513, 514, 515, 516, 517, 518, 519, 520, 521, 522, 523, 524, 525, 526, 527, 528, 529, 530, 531, 532, 533, 534, 535, 536, 537, 538, 539, 540, 541, 542, 543, 544, 545, 546, 547, 548, 549, 550, 551, 552, 553, 554, 555, 556, 557, 558, 559, 560, 561, 562, 563, 564, 565, 566, 567, 568, 569, 570, 571, 572, 573, 574, 575, 576, 577, 578, 579, 580, 581, 582, 583, 584, 585, 586, 587, 588, 589, 590, 591, 592, 593, 594, 595, 596, 597, 598, 599, 600, 601, 602, 603, 604, 605, 606, 607, 608, 609, 610, 611, 612, 613, 614, 615, 616, 617, 618, 619, 620, 621, 622, 623, 624, 625, 626, 627, 628, 629, 630, 631, 632, 633, 634, 635, 636, 637, 638, 639, 640, 641, 642, 643, 644, 645, 646, 647, 648, 649, 650, 651, 652, 653, 654, 655, 656, 657, 658, 659, 660, 661, 662, 663, 664, 665, 666, 667, 668, 669, 670, 671, 672, 673, 674, 675, 676, 677, 678, 679, 680, 681, 682, 683, 684, 685, 686, 687, 688, 689, 690, 691, 692, 693, 694, 695, 696, 697, 698, 699, 700, 701, 702, 703, 704, 705, 706, 707, 708, 709, 710, 711, 712, 713, 714, 715, 716, 717, 718, 719, 720, 721, 722, 723, 724, 725, 726, 727, 728, 729, 730, 731, 732, 733, 734, 735, 736, 737, 738, 739, 740, 741, 742, 743, 744, 745, 746, 747, 748, 749, 750, 751, 752, 753, 754, 755, 756, 757, 758, 759, 760, 761, 762, 763, 764, 765, 766, 767, 768, 769, 770, 771, 772, 773, 774, 775, 776, 777, 778, 779, 780, 781, 782, 783, 784, 785, 786, 787, 788, 789, 790, 791, 792, 793, 794, 795, 796, 797, 798, 799, 800, 801, 802, 803, 804, 805, 806, 807, 808, 809, 810, 811, 812, 813, 814, 815, 816, 817, 818, 819, 820, 821, 822, 823, 824, 825, 826, 827, 828, 829, 830, 831, 832, 833, 834, 835, 836, 837, 838, 839],
      "AcquisitionTime": ["133127.810000", "133128.270000", "133128.730000", "133129.190000", "133129.650000", "133130.110000", "133130.570000", "133131.030000", "133131.490000", "133131.950000", "133132.410000", "133132.870000", "133133.330000", "133133.790000", "133134.250000", "133134.710000", "133135.170000", "133135.630000", "133136.090000", "133136.550000", "133137.010000", "133137.470000", "133137.930000", "133138.390000", "133138.850000", "133139.310000", "133139.770000", "133140.230000", "133140.690000", "133141.150000", "133141.610000", "133142.070000", "133142.530000", "133142.990000", "133143.450000", "133143.910000", "133144.370000", "133144.830000", "133145.290000", "133145.750000", "133146.210000", "133146.670000", "133147.130000", "133147.590000", "133148.050000", "133148.510000", "133148.970000", "133149.430000", "133149.890000", "133150.350000", "133150.810000", "133151.270000", "133151.730000", "133152.190000", "133152.650000", "133153.110000", "133153.570000", "133154.030000", "133154.490000", "133154.950000", "133155.410000", "133155.870000", "133156.330000", "133156.790000", "133157.250000", "133157.710000", "133158.170000", "133158.630000", "133159.090000", "133159.550000", "133200.010000", "133200.470000", "133200.930000", "133201.390000", "133201.850000", "133202.310000", "133202.770000", "133203.230000", "133203.690000", "133204.150000", "133204.610000", "133205.070000", "133205.530000", "133205.990000", "133206.450000", "133206.910000", "133207.370000", "133207.830000", "133208.290000", "133208.750000", "133209.210000", "133209.670000", "133210.130000", "133210.590000", "133211.050000", "133211.510000", "133211.970000", "133212.430000", "133212.890000", "133213.350000", "133213.810000", "133214.270000", "133214.730000", "133215.190000", "133215.650000", "133216.110000", "133216.570000", "133217.030000", "133217.490000", "133217.950000", "133218.410000", "133218.870000", "133219.330000", "133219.790000", "133220.250000", "133220.710000", "133221.170000", "133221.630000", "133222.090000", "133222.550000", "133223.010000", "133223.470000", "133223.930000", "133224.390000", "133224.850000", "133225.310000", "133225.770000", "133226.230000", "133226.690000", "133227.150000", "133227.610000", "133228.070000", "133228.530000", "133228.990000", "133229.450000", "133229.910000", "133230.370000", "133230.830000", "133231.290000", "133231.750000", "133232.210000", "133232.670000", "133233.130000", "133233.590000", "133234.050000", "133234.510000", "133234.970000", "133235.430000", "133235.890000", "133236.350000", "133236.810000", "133237.270000", "133237.730000", "133238.190000", "133238.650000", "133239.110000", "133239.570000", "133240.030000", "133240.490000", "133240.950000", "133241.410000", "133241.870000", "133242.330000", "133242.790000", "133243.250000", "133243.710000", "133244.170000", "133244.630000", "133245.090000", "133245.550000", "133246.010000", "133246.470000", "133246.930000", "133247.390000", "133247.850000", "133248.310000", "133248.770000", "133249.230000", "133249.690000", "133250.150000", "133250.610000", "133251.070000", "133251.530000", "133251.990000", "133252.450000", "133252.910000", "133253.370000", "133253.830000", "133254.290000", "133254.750000", "133255.210000", "133255.670000", "133256.130000", "133256.590000", "133257.050000", "133257.510000", "133257.970000", "133258.430000", "133258.890000", "133259.350000", "133259.810000", "133300.270000", "133300.730000", "133301.190000", "133301.650000", "133302.110000", "133302.570000", "133303.030000", "133303.490000", "133303.950000", "133304.410000", "133304.870000", "133305.330000", "133305.790000", "133306.250000", "133306.710000", "133307.170000", "133307.630000", "133308.090000", "133308.550000", "133309.010000", "133309.470000", "133309.930000", "133310.390000", "133310.850000", "133311.310000", "133311.770000", "133312.230000", "133312.690000", "133313.150000", "133313.610000", "133314.070000", "133314.530000", "133314.990000", "133315.450000", "133315.910000", "133316.370000", "133316.830000", "133317.290000", "133317.750000", "133318.210000", "133318.670000", "133319.130000", "133319.590000", "133320.050000", "133320.510000", "133320.970000", "133321.430000", "133321.890000", "133322.350000", "133322.810000", "133323.270000", "133323.730000", "133324.190000", "133324.650000", "133325.110000", "133325.570000", "133326.030000", "133326.490000", "133326.950000", "133327.410000", "133327.870000", "133328.330000", "133328.790000", "133329.250000", "133329.710000", "133330.170000", "133330.630000", "133331.090000", "133331.550000", "133332.010000", "133332.470000", "133332.930000", "133333.390000", "133333.850000", "133334.310000", "133334.770000", "133335.230000", "133335.690000", "133336.150000", "133336.610000", "133337.070000", "133337.530000", "133337.990000", "133338.450000", "133338.910000", "133339.370000", "133339.830000", "133340.290000", "133340.750000", "133341.210000", "133341.670000", "133342.130000", "133342.590000", "133343.050000", "133343.510000", "133343.970000", "133344.430000", "133344.890000", "133345.350000", "133345.810000", "133346.270000", "133346.730000", "133347.190000", "133347.650000", "133348.110000", "133348.570000", "133349.030000", "133349.490000", "133349.950000", "133350.410000", "133350.870000", "133351.330000", "133351.790000", "133352.250000", "133352.710000", "133353.170000", "133353.630000", "133354.090000", "133354.550000", "133355.010000", "133355.470000", "133355.930000", "133356.390000", "133356.850000", "133357.310000", "133357.770000", "133358.230000", "133358.690000", "133359.150000", "133359.610000", "133400.070000", "133400.530000", "133400.990000", "133401.450000", "133401.910000", "133402.370000", "133402.830000", "133403.290000", "133403.750000", "133404.210000", "133404.670000", "133405.130000", "133405.590000", "133406.050000", "133406.510000", "133406.970000", "133407.430000", "133407.890000", "133408.350000", "133408.810000", "133409.270000", "133409.730000", "133410.190000", "133410.650000", "133411.110000", "133411.570000", "133412.030000", "133412.490000", "133412.950000", "133413.410000", "133413.870000", "133414.330000", "133414.790000", "133415.250000", "133415.710000", "133416.170000", "133416.630000", "133417.090000", "133417.550000", "133418.010000", "133418.470000", "133418.930000", "133419.390000", "133419.850000", "133420.310000", "133420.770000", "133421.230000", "133421.690000", "133422.150000", "133422.610000", "133423.070000", "133423.530000", "133423.990000", "133424.450000", "133424.910000", "133425.370000", "133425.830000", "133426.290000", "133426.750000", "133427.210000", "133427.670000", "133428.130000", "133428.590000", "133429.050000", "133429.510000", "133429.970000", "133430.430000", "133430.890000", "133431.350000", "133431.810000", "133432.270000", "133432.730000", "133433.190000", "133433.650000", "133434.110000", "133434.570000", "133435.030000", "133435.490000", "133435.950000", "133436.410000", "133436.870000", "133437.330000", "133437.790000", "133438.250000", "133438.710000", "133439.170000", "133439.630000", "133440.090000", "133440.550000", "133441.010000", "133441.470000", "133441.930000", "133442.390000", "133442.850000", "133443.310000", "133443.770000", "133444.230000", "133444.690000", "133445.150000", "133445.610000", "133446.070000", "133446.530000", "133446.990000", "133447.450000", "133447.910000", "133448.370000", "133448.830000", "133449.290000", "133449.750000", "133450.210000", "133450.670000", "133451.130000", "133451.590000", "133452.050000", "133452.510000", "133452.970000", "133453.430000", "133453.890000", "133454.350000", "133454.810000", "133455.270000", "133455.730000", "133456.190000", "133456.650000", "133457.110000", "133457.570000", "133458.030000", "133458.490000", "133458.950000", "133459.410000", "133459.870000", "133500.330000", "133500.790000", "133501.250000", "133501.710000", "133502.170000", "133502.630000", "133503.090000", "133503.550000", "133504.010000", "133504.470000", "133504.930000", "133505.390000", "133505.850000", "133506.310000", "133506.770000", "133507.230000", "133507.690000", "133508.150000", "133508.610000", "133509.070000", "133509.530000", "133509.990000", "133510.450000", "133510.910000", "133511.370000", "133511.830000", "133512.290000", "133512.750000", "133513.210000", "133513.670000", "133514.130000", "133514.590000", "133515.050000", "133515.510000", "133515.970000", "133516.430000", "133516.890000", "133517.350000", "133517.810000", "133518.270000", "133518.730000", "133519.190000", "133519.650000", "133520.110000", "133520.570000", "133521.030000", "133521.490000", "133521.950000", "133522.410000", "133522.870000", "133523.330000", "133523.790000", "133524.250000", "133524.710000", "133525.170000", "133525.630000", "133526.090000", "133526.550000", "133527.010000", "133527.470000", "133527.930000", "133528.390000", "133528.850000", "133529.310000", "133529.770000", "133530.230000", "133530.690000", "133531.150000", "133531.610000", "133532.070000", "133532.530000", "133532.990000", "133533.450000", "133533.910000", "133534.370000", "133534.830000", "133535.290000", "133535.750000", "133536.210000", "133536.670000", "133537.130000", "133537.590000", "133538.050000", "133538.510000", "133538.970000", "133539.430000", "133539.890000", "133540.350000", "133540.810000", "133541.270000", "133541.730000", "133542.190000", "133542.650000", "133543.110000", "133543.570000", "133544.030000", "133544.490000", "133544.950000", "133545.410000", "133545.870000", "133546.330000", "133546.790000", "133547.250000", "133547.710000", "133548.170000", "133548.630000", "133549.090000", "133549.550000", "133550.010000", "133550.470000", "133550.930000", "133551.390000", "133551.850000", "133552.310000", "133552.770000", "133553.230000", "133553.690000", "133554.150000", "133554.610000", "133555.070000", "133555.530000", "133555.990000", "133556.450000", "133556.910000", "133557.370000", "133557.830000", "133558.290000", "133558.750000", "133559.210000", "133559.670000", "133600.130000", "133600.590000", "133601.050000", "133601.510000", "133601.970000", "133602.430000", "133602.890000", "133603.350000", "133603.810000", "133604.270000", "133604.730000", "133605.190000", "133605.650000", "133606.110000", "133606.570000", "133607.030000", "133607.490000", "133607.950000", "133608.410000", "133608.870000", "133609.330000", "133609.790000", "133610.250000", "133610.710000", "133611.170000", "133611.630000", "133612.090000", "133612.550000", "133613.010000", "133613.470000", "133613.930000", "133614.390000", "133614.850000", "133615.310000", "133615.770000", "133616.230000", "133616.690000", "133617.150000", "133617.610000", "133618.070000", "133618.530000", "133618.990000", "133619.450000", "133619.910000", "133620.370000", "133620.830000", "133621.290000", "133621.750000", "133622.210000", "133622.670000", "133623.130000", "133623.590000", "133624.050000", "133624.510000", "133624.970000", "133625.430000", "133625.890000", "133626.350000", "133626.810000", "133627.270000", "133627.730000", "133628.190000", "133628.650000", "133629.110000", "133629.570000", "133630.030000", "133630.490000", "133630.950000", "133631.410000", "133631.870000", "133632.330000", "133632.790000", "133633.250000", "133633.710000", "133634.170000", "133634.630000", "133635.090000", "133635.550000", "133636.010000", "133636.470000", "133636.930000", "133637.390000", "133637.850000", "133638.310000", "133638.770000", "133639.230000", "133639.690000", "133640.150000", "133640.610000", "133641.070000", "133641.530000", "133641.990000", "133642.450000", "133642.910000", "133643.370000", "133643.830000", "133644.290000", "133644.750000", "133645.210000", "133645.670000", "133646.130000", "133646.590000", "133647.050000", "133647.510000", "133647.970000", "133648.430000", "133648.890000", "133649.350000", "133649.810000", "133650.270000", "133650.730000", "133651.190000", "133651.650000", "133652.110000", "133652.570000", "133653.030000", "133653.490000", "133653.950000", "133654.410000", "133654.870000", "133655.330000", "133655.790000", "133656.250000", "133656.710000", "133657.170000", "133657.630000", "133658.090000", "133658.550000", "133659.010000", "133659.470000", "133659.930000", "133700.390000", "133700.850000", "133701.310000", "133701.770000", "133702.230000", "133702.690000", "133703.150000", "133703.610000", "133704.070000", "133704.530000", "133704.990000", "133705.450000", "133705.910000", "133706.370000", "133706.830000", "133707.290000", "133707.750000", "133708.210000", "133708.670000", "133709.130000", "133709.590000", "133710.050000", "133710.510000", "133710.970000", "133711.430000", "133711.890000", "133712.350000", "133712.810000", "133713.270000", "133713.730000", "133714.190000", "133714.650000", "133715.110000", "133715.570000", "133716.030000", "133716.490000", "133716.950000", "133717.410000", "133717.870000", "133718.330000", "133718.790000", "133719.250000", "133719.710000", "133720.170000", "133720.630000", "133721.090000", "133721.550000", "133722.010000", "133722.470000", "133722.930000", "133723.390000", "133723.850000", "133724.310000", "133724.770000", "133725.230000", "133725.690000", "133726.150000", "133726.610000", "133727.070000", "133727.530000", "133727.990000", "133728.450000", "133728.910000", "133729.370000", "133729.830000", "133730.290000", "133730.750000", "133731.210000", "133731.670000", "133732.130000", "133732.590000", "133733.050000", "133733.510000", "133733.970000", "133734.430000", "133734.890000", "133735.350000", "133735.810000", "133736.270000", "133736.730000", "133737.190000", "133737.650000", "133738.110000", "133738.570000", "133739.030000", "133739.490000", "133739.950000", "133740.410000", "133740.870000", "133741.330000", "133741.790000", "133742.250000", "133742.710000", "133743.170000", "133743.630000", "133744.090000", "133744.550000", "133745.010000", "133745.470000", "133745.930000", "133746.390000", "133746.850000", "133747.310000", "133747.770000", "133748.230000", "133748.690000", "133749.150000", "133749.610000", "133750.070000", "133750.530000", "133750.990000", "133751.450000", "133751.910000", "133752.370000", "133752.830000", "133753.290000"],
