{
  "AcquisitionMatrixPE": 82,
  "AcquisitionNumber": 1,
  "AcquisitionTime": "13:06:38.505000",
  "BandwidthPerPixelPhaseEncode": 24.888,
  "BaseResolution": 82,
  "BodyPartExamined": "BRAIN",
  "ConsistencyInfo": "N4_VE11E_LATEST_20181129",
  "ConversionSoftware": "dcm2niix",
  "ConversionSoftwareVersion": "v1.0.20201102",
  "DerivedVendorReportedEchoSpacing": 0.00049,
  "DeviceSerialNumber": "66112",
  "DwellTime": 2e-06,
  "EchoTime": 0.0272,
  "EchoTrainLength": 82,
  "EffectiveEchoSpacing": 0.00049,
  "FlipAngle": 44,
  "ImageComments": "Unaliased MB8/PE3",
  "ImageOrientationPatientDICOM": [0.99023, -0.0960558, 0.101082, 0.103903, 0.991721, -0.0754527],
  "ImageType": [
    "ORIGINAL",
    "PRIMARY",
    "M",
    "MB",
    "ND",
    "NORM",
    "MOSAIC"
],
  "ImagingFrequency": 123.259,
  "InPlanePhaseEncodingDirectionDICOM": "COL",
  "InstitutionAddress": "Maynard 3,Hanover,NH,US,03755",
  "InstitutionName": "Dartmouth College - PBS",
  "InstitutionalDepartmentName": "Department",
  "MRAcquisitionType": "2D",
  "MagneticFieldStrength": 3,
  "Manufacturer": "Siemens",
  "ManufacturersModelName": "Prisma",
  "Modality": "MR",
  "MultibandAccelerationFactor": 8,
  "PartialFourier": 1,
  "PatientPosition": "HFS",
  "PercentPhaseFOV": 100,
  "PercentSampling": 100,
  "PhaseEncodingDirection": "j-",
  "PhaseEncodingSteps": 82,
  "PhaseResolution": 1,
  "PixelBandwidth": 3050,
  "ProcedureStepDescription": "Wager_Wager^1076_spacetop",
  "ProtocolName": "func_run-01_task-faces_acq-ap-mb8",
  "PulseSequenceDetails": "%CustomerSeq%\\cmrr_mbep2d_bold",
  "ReceiveCoilActiveElements": "HEA;HEP",
  "ReceiveCoilName": "Head_32",
  "ReconMatrixPE": 82,
  "RepetitionTime": 0.46,
  "SAR": 0.0946572,
  "ScanOptions": "FS",
  "ScanningSequence": "EP",
  "SequenceName": "epfid2d1_82",
  "SequenceVariant": "SK\\SS",
  "SeriesDescription": "func_run-01_task-faces_acq-ap-mb8",
  "SeriesNumber": 16,
  "ShimSetting": [4248, -7760, -7230, 398, -228, 32, -2, 71],
  "SliceThickness": 2.7,
  "SliceTiming": [0, 0.25, 0.0625, 0.3125, 0.125, 0.375, 0.1875, 0, 0.25, 0.0625, 0.3125, 0.125, 0.375, 0.1875, 0, 0.25, 0.0625, 0.3125, 0.125, 0.375, 0.1875, 0, 0.25, 0.0625, 0.3125, 0.125, 0.375, 0.1875, 0, 0.25, 0.0625, 0.3125, 0.125, 0.375, 0.1875, 0, 0.25, 0.0625, 0.3125, 0.125, 0.375, 0.1875, 0, 0.25, 0.0625, 0.3125, 0.125, 0.375, 0.1875, 0, 0.25, 0.0625, 0.3125, 0.125, 0.375, 0.1875],
  "SoftwareVersions": "syngo MR E11",
  "SpacingBetweenSlices": 2.7,
  "StationName": "AWP66112",
  "TaskName": "faces",
  "TotalReadoutTime": 0.03969,
  "TxRefAmp": 242.794,
  "WipMemBlock": "32854d4a-83ed-4a62-adc0-1110a9f6cf22||Sequence: R016 ve11e/master r/434b28f1; Aug  7 2019 18:53:46 by eja",
  "dcmmeta_affine": [
    [-2.656715154647827, 0.27876317501068115, 0.25109294056892395, 89.5161361694336],
    [0.2577107846736908, 2.6607158184051514, -0.23008926212787628, -111.15914154052734],
    [0.27119532227516174, 0.20243416726589203, 2.678434371948242, -94.22096252441406],
    [0.0, 0.0, 0.0, 1.0]
],
  "dcmmeta_reorient_transform": [
    [0.0, -1.0, 0.0, 81.0],
    [1.0, 0.0, 0.0, 0.0],
    [0.0, 0.0, 1.0, 0.0],
    [0.0, 0.0, 0.0, 1.0]
],
  "dcmmeta_shape": [82, 82, 56, 914],
  "dcmmeta_slice_dim": 2,
  "dcmmeta_version": 0.6,
  "global": {
    "const": {
      "AccessionNumber": "A004846",
      "AcquisitionMatrix": [82, 0, 0, 82],
      "AngioFlag": "N",
      "BitsAllocated": 16,
      "BitsStored": 16,
      "BodyPartExamined": "BRAIN",
      "Columns": 656,
      "EchoNumbers": 1,
      "EchoTime": 27.2,
      "EchoTrainLength": 82,
      "FlipAngle": 44.0,
      "HighBit": 15,
      "ImageOrientationPatient": [0.99023013912146, -0.0960558336869, 0.10108188952628, 0.10390263508826, 0.99172129513505, -0.0754527348568],
      "ImagePositionPatient": [-954.57820966595, -794.02125194517, -97.558241912936],
      "ImageType": [
        "ORIGINAL",
        "PRIMARY",
        "M",
        "MB",
        "ND",
        "NORM",
        "MOSAIC"
],
      "ImagedNucleus": "1H",
      "ImagingFrequency": 123.259245,
      "InPlanePhaseEncodingDirection": "COL",
      "MRAcquisitionType": "2D",
      "MagneticFieldStrength": 3.0,
      "Manufacturer": "SIEMENS",
      "ManufacturerModelName": "Prisma",
      "Modality": "MR",
      "NumberOfAverages": 1.0,
      "NumberOfPhaseEncodingSteps": 82,
      "PercentPhaseFieldOfView": 100.0,
      "PercentSampling": 100.0,
      "PerformedProcedureStepStartTime": "121853.445000",
      "PhotometricInterpretation": "MONOCHROME2",
      "PixelBandwidth": 3050.0,
      "PixelRepresentation": 0,
      "PixelSpacing": [2.6829268932343, 2.6829268932343],
      "ProtocolName": "func_run-01_task-faces_acq-ap-mb8",
      "RepetitionTime": 460.0,
      "Rows": 656,
      "SAR": 0.09465720072672,
      "SamplesPerPixel": 1,
      "ScanOptions": "FS",
      "ScanningSequence": "EP",
      "SequenceName": "epfid2d1_82",
      "SequenceVariant": [
        "SK",
        "SS"
],
      "SeriesDescription": "func_run-01_task-faces_acq-ap-mb8",
      "SeriesNumber": 16,
      "SeriesTime": "130651.075000",
      "SliceLocation": -75.670841620595,
      "SliceThickness": 2.7000000476837,
      "SmallestImagePixelValue": 0,
      "SoftwareVersions": "syngo MR E11",
      "SpacingBetweenSlices": 2.6999999954099,
      "SpecificCharacterSet": "ISO_IR 100",
      "StudyID": "1",
      "StudyTime": "121853.359000",
      "TransmitCoilName": "Body",
      "VariableFlipAngleFlag": "N",
      "WindowCenterWidthExplanation": "Algo1"
    },
    "slices": {}
  },
  "time": {
    "samples": {
      "AcquisitionNumber": [1, 2, 3, 4, 5, 6, 7, 8, 9, 10, 11, 12, 13, 14, 15, 16, 17, 18, 19, 20, 21, 22, 23, 24, 25, 26, 27, 28, 29, 30, 31, 32, 33, 34, 35, 36, 37, 38, 39, 40, 41, 42, 43, 44, 45, 46, 47, 48, 49, 50, 51, 52, 53, 54, 55, 56, 57, 58, 59, 60, 61, 62, 63, 64, 65, 66, 67, 68, 69, 70, 71, 72, 73, 74, 75, 76, 77, 78, 79, 80, 81, 82, 83, 84, 85, 86, 87, 88, 89, 90, 91, 92, 93, 94, 95, 96, 97, 98, 99, 100, 101, 102, 103, 104, 105, 106, 107, 108, 109, 110, 111, 112, 113, 114, 115, 116, 117, 118, 119, 120, 121, 122, 123, 124, 125, 126, 127, 128, 129, 130, 131, 132, 133, 134, 135, 136, 137, 138, 139, 140, 141, 142, 143, 144, 145, 146, 147, 148, 149, 150, 151, 152, 153, 154, 155, 156, 157, 158, 159, 160, 161, 162, 163, 164, 165, 166, 167, 168, 169, 170, 171, 172, 173, 174, 175, 176, 177, 178, 179, 180, 181, 182, 183, 184, 185, 186, 187, 188, 189, 190, 191, 192, 193, 194, 195, 196, 197, 198, 199, 200, 201, 202, 203, 204, 205, 206, 207, 208, 209, 210, 211, 212, 213, 214, 215, 216, 217, 218, 219, 220, 221, 222, 223, 224, 225, 226, 227, 228, 229, 230, 231, 232, 233, 234, 235, 236, 237, 238, 239, 240, 241, 242, 243, 244, 245, 246, 247, 248, 249, 250, 251, 252, 253, 254, 255, 256, 257, 258, 259, 260, 261, 262, 263, 264, 265, 266, 267, 268, 269, 270, 271, 272, 273, 274, 275, 276, 277, 278, 279, 280, 281, 282, 283, 284, 285, 286, 287, 288, 289, 290, 291, 292, 293, 294, 295, 296, 297, 298, 299, 300, 301, 302, 303, 304, 305, 306, 307, 308, 309, 310, 311, 312, 313, 314, 315, 316, 317, 318, 319, 320, 321, 322, 323, 324, 325, 326, 327, 328, 329, 330, 331, 332, 333, 334, 335, 336, 337, 338, 339, 340, 341, 342, 343, 344, 345, 346, 347, 348, 349, 350, 351, 352, 353, 354, 355, 356, 357, 358, 359, 360, 361, 362, 363, 364, 365, 366, 367, 368, 369, 370, 371, 372, 373, 374, 375, 376, 377, 378, 379, 380, 381, 382, 383, 384, 385, 386, 387, 388, 389, 390, 391, 392, 393, 394, 395, 396, 397, 398, 399, 400, 401, 402, 403, 404, 405, 406, 407, 408, 409, 410, 411, 412, 413, 414, 415, 416, 417, 418, 419, 420, 421, 422, 423, 424, 425, 426, 427, 428, 429, 430, 431, 432, 433, 434, 435, 436, 437, 438, 439, 440, 441, 442, 443, 444, 445, 446, 447, 448, 449, 450, 451, 452, 453, 454, 455, 456, 457, 458, 459, 460, 461, 462, 463, 464, 465, 466, 467, 468, 469, 470, 471, 472, 473, 474, 475, 476, 477, 478, 479, 480, 481, 482, 483, 484, 485, 486, 487, 488, 489, 490, 491, 492, 493, 494, 495, 496, 497, 498, 499, 500, 501, 502, 503, 504, 505, 506, 507, 508, 509, 510, 511, 512, 513, 514, 515, 516, 517, 518, 519, 520, 521, 522, 523, 524, 525, 526, 527, 528, 529, 530, 531, 532, 533, 534, 535, 536, 537, 538, 539, 540, 541, 542, 543, 544, 545, 546, 547, 548, 549, 550, 551, 552, 553, 554, 555, 556, 557, 558, 559, 560, 561, 562, 563, 564, 565, 566, 567, 568, 569, 570, 571, 572, 573, 574, 575, 576, 577, 578, 579, 580, 581, 582, 583, 584, 585, 586, 587, 588, 589, 590, 591, 592, 593, 594, 595, 596, 597, 598, 599, 600, 601, 602, 603, 604, 605, 606, 607, 608, 609, 610, 611, 612, 613, 614, 615, 616, 617, 618, 619, 620, 621, 622, 623, 624, 625, 626, 627, 628, 629, 630, 631, 632, 633, 634, 635, 636, 637, 638, 639, 640, 641, 642, 643, 644, 645, 646, 647, 648, 649, 650, 651, 652, 653, 654, 655, 656, 657, 658, 659, 660, 661, 662, 663, 664, 665, 666, 667, 668, 669, 670, 671, 672, 673, 674, 675, 676, 677, 678, 679, 680, 681, 682, 683, 684, 685, 686, 687, 688, 689, 690, 691, 692, 693, 694, 695, 696, 697, 698, 699, 700, 701, 702, 703, 704, 705, 706, 707, 708, 709, 710, 711, 712, 713, 714, 715, 716, 717, 718, 719, 720, 721, 722, 723, 724, 725, 726, 727, 728, 729, 730, 731, 732, 733, 734, 735, 736, 737, 738, 739, 740, 741, 742, 743, 744, 745, 746, 747, 748, 749, 750, 751, 752, 753, 754, 755, 756, 757, 758, 759, 760, 761, 762, 763, 764, 765, 766, 767, 768, 769, 770, 771, 772, 773, 774, 775, 776, 777, 778, 779, 780, 781, 782, 783, 784, 785, 786, 787, 788, 789, 790, 791, 792, 793, 794, 795, 796, 797, 798, 799, 800, 801, 802, 803, 804, 805, 806, 807, 808, 809, 810, 811, 812, 813, 814, 815, 816, 817, 818, 819, 820, 821, 822, 823, 824, 825, 826, 827, 828, 829, 830, 831, 832, 833, 834, 835, 836, 837, 838, 839, 840, 841, 842, 843, 844, 845, 846, 847, 848, 849, 850, 851, 852, 853, 854, 855, 856, 857, 858, 859, 860, 861, 862, 863, 864, 865, 866, 867, 868, 869, 870, 871, 872, 873, 874, 875, 876, 877, 878, 879, 880, 881, 882, 883, 884, 885, 886, 887, 888, 889, 890, 891, 892, 893, 894, 895, 896, 897, 898, 899, 900, 901, 902, 903, 904, 905, 906, 907, 908, 909, 910, 911, 912, 913, 914],
      "AcquisitionTime": ["130638.505000", "130638.965000", "130639.425000", "130639.885000", "130640.345000", "130640.805000", "130641.265000", "130641.725000", "130642.185000", "130642.645000", "130643.105000", "130643.565000", "130644.025000", "130644.485000", "130644.945000", "130645.405000", "130645.865000", "130646.325000", "130646.785000", "130647.245000", "130647.705000", "130648.165000", "130648.625000", "130649.085000", "130649.545000", "130650.005000", "130650.465000", "130650.925000", "130651.385000", "130651.845000", "130652.305000", "130652.765000", "130653.225000", "130653.685000", "130654.145000", "130654.605000", "130655.065000", "130655.525000", "130655.985000", "130656.445000", "130656.905000", "130657.365000", "130657.825000", "130658.285000", "130658.745000", "130659.205000", "130659.665000", "130700.125000", "130700.585000", "130701.045000", "130701.505000", "130701.965000", "130702.425000", "130702.885000", "130703.345000", "130703.805000", "130704.265000", "130704.725000", "130705.185000", "130705.645000", "130706.105000", "130706.565000", "130707.025000", "130707.485000", "130707.945000", "130708.405000", "130708.865000", "130709.325000", "130709.785000", "130710.245000", "130710.705000", "130711.165000", "130711.625000", "130712.085000", "130712.545000", "130713.005000", "130713.465000", "130713.925000", "130714.385000", "130714.845000", "130715.305000", "130715.765000", "130716.225000", "130716.685000", "130717.145000", "130717.605000", "130718.065000", "130718.525000", "130718.985000", "130719.445000", "130719.905000", "130720.365000", "130720.825000", "130721.285000", "130721.745000", "130722.205000", "130722.665000", "130723.125000", "130723.585000", "130724.045000", "130724.505000", "130724.965000", "130725.425000", "130725.885000", "130726.345000", "130726.805000", "130727.265000", "130727.725000", "130728.185000", "130728.645000", "130729.105000", "130729.565000", "130730.025000", "130730.485000", "130730.945000", "130731.405000", "130731.865000", "130732.325000", "130732.785000", "130733.245000", "130733.705000", "130734.165000", "130734.625000", "130735.085000", "130735.545000", "130736.005000", "130736.465000", "130736.925000", "130737.385000", "130737.845000", "130738.305000", "130738.765000", "130739.225000", "130739.685000", "130740.145000", "130740.605000", "130741.065000", "130741.525000", "130741.985000", "130742.445000", "130742.905000", "130743.365000", "130743.825000", "130744.285000", "130744.745000", "130745.205000", "130745.665000", "130746.125000", "130746.585000", "130747.045000", "130747.505000", "130747.965000", "130748.425000", "130748.885000", "130749.345000", "130749.805000", "130750.265000", "130750.725000", "130751.185000", "130751.645000", "130752.105000", "130752.565000", "130753.025000", "130753.485000", "130753.945000", "130754.405000", "130754.865000", "130755.325000", "130755.785000", "130756.245000", "130756.705000", "130757.165000", "130757.625000", "130758.085000", "130758.545000", "130759.005000", "130759.465000", "130759.925000", "130800.385000", "130800.845000", "130801.305000", "130801.765000", "130802.225000", "130802.685000", "130803.145000", "130803.605000", "130804.065000", "130804.525000", "130804.985000", "130805.445000", "130805.905000", "130806.365000", "130806.825000", "130807.285000", "130807.745000", "130808.205000", "130808.665000", "130809.125000", "130809.585000", "130810.045000", "130810.505000", "130810.965000", "130811.425000", "130811.885000", "130812.345000", "130812.805000", "130813.265000", "130813.725000", "130814.185000", "130814.645000", "130815.105000", "130815.565000", "130816.025000", "130816.485000", "130816.945000", "130817.405000", "130817.865000", "130818.325000", "130818.785000", "130819.245000", "130819.705000", "130820.165000", "130820.625000", "130821.085000", "130821.545000", "130822.005000", "130822.465000", "130822.925000", "130823.385000", "130823.845000", "130824.305000", "130824.765000", "130825.225000", "130825.685000", "130826.145000", "130826.605000", "130827.065000", "130827.525000", "130827.985000", "130828.445000", "130828.905000", "130829.365000", "130829.825000", "130830.285000", "130830.745000", "130831.205000", "130831.665000", "130832.125000", "130832.585000", "130833.045000", "130833.505000", "130833.965000", "130834.425000", "130834.885000", "130835.345000", "130835.805000", "130836.265000", "130836.725000", "130837.185000", "130837.645000", "130838.105000", "130838.565000", "130839.025000", "130839.485000", "130839.945000", "130840.405000", "130840.865000", "130841.325000", "130841.785000", "130842.245000", "130842.705000", "130843.165000", "130843.625000", "130844.085000", "130844.545000", "130845.005000", "130845.465000", "130845.925000", "130846.385000", "130846.845000", "130847.305000", "130847.765000", "130848.225000", "130848.685000", "130849.145000", "130849.605000", "130850.065000", "130850.525000", "130850.985000", "130851.445000", "130851.905000", "130852.365000", "130852.825000", "130853.285000", "130853.745000", "130854.205000", "130854.665000", "130855.125000", "130855.585000", "130856.045000", "130856.505000", "130856.965000", "130857.425000", "130857.885000", "130858.345000", "130858.805000", "130859.265000", "130859.725000", "130900.185000", "130900.645000", "130901.105000", "130901.565000", "130902.025000", "130902.485000", "130902.945000", "130903.405000", "130903.865000", "130904.325000", "130904.785000", "130905.245000", "130905.705000", "130906.165000", "130906.625000", "130907.085000", "130907.545000", "130908.005000", "130908.465000", "130908.925000", "130909.385000", "130909.845000", "130910.305000", "130910.765000", "130911.225000", "130911.685000", "130912.145000", "130912.605000", "130913.065000", "130913.525000", "130913.985000", "130914.445000", "130914.905000", "130915.365000", "130915.825000", "130916.285000", "130916.745000", "130917.205000", "130917.665000", "130918.125000", "130918.585000", "130919.045000", "130919.505000", "130919.965000", "130920.425000", "130920.885000", "130921.345000", "130921.805000", "130922.265000", "130922.725000", "130923.185000", "130923.645000", "130924.105000", "130924.565000", "130925.025000", "130925.485000", "130925.945000", "130926.405000", "130926.865000", "130927.325000", "130927.785000", "130928.245000", "130928.705000", "130929.165000", "130929.625000", "130930.085000", "130930.545000", "130931.005000", "130931.465000", "130931.925000", "130932.385000", "130932.845000", "130933.305000", "130933.765000", "130934.225000", "130934.685000", "130935.145000", "130935.605000", "130936.065000", "130936.525000", "130936.985000", "130937.445000", "130937.905000", "130938.365000", "130938.825000", "130939.285000", "130939.745000", "130940.205000", "130940.665000", "130941.125000", "130941.585000", "130942.045000", "130942.505000", "130942.965000", "130943.425000", "130943.885000", "130944.345000", "130944.805000", "130945.265000", "130945.725000", "130946.185000", "130946.645000", "130947.105000", "130947.565000", "130948.025000", "130948.485000", "130948.945000", "130949.405000", "130949.865000", "130950.325000", "130950.785000", "130951.245000", "130951.705000", "130952.165000", "130952.625000", "130953.085000", "130953.545000", "130954.005000", "130954.465000", "130954.925000", "130955.385000", "130955.845000", "130956.305000", "130956.765000", "130957.225000", "130957.685000", "130958.145000", "130958.605000", "130959.065000", "130959.525000", "130959.985000", "131000.445000", "131000.905000", "131001.365000", "131001.825000", "131002.285000", "131002.745000", "131003.205000", "131003.665000", "131004.125000", "131004.585000", "131005.045000", "131005.505000", "131005.965000", "131006.425000", "131006.885000", "131007.345000", "131007.805000", "131008.265000", "131008.725000", "131009.185000", "131009.645000", "131010.105000", "131010.565000", "131011.025000", "131011.485000", "131011.945000", "131012.405000", "131012.865000", "131013.325000", "131013.785000", "131014.245000", "131014.705000", "131015.165000", "131015.625000", "131016.085000", "131016.545000", "131017.005000", "131017.465000", "131017.925000", "131018.385000", "131018.845000", "131019.305000", "131019.765000", "131020.225000", "131020.685000", "131021.145000", "131021.605000", "131022.065000", "131022.525000", "131022.985000", "131023.445000", "131023.905000", "131024.365000", "131024.825000", "131025.285000", "131025.745000", "131026.205000", "131026.665000", "131027.125000", "131027.585000", "131028.045000", "131028.505000", "131028.965000", "131029.425000", "131029.885000", "131030.345000", "131030.805000", "131031.265000", "131031.725000", "131032.185000", "131032.645000", "131033.105000", "131033.565000", "131034.025000", "131034.485000", "131034.945000", "131035.405000", "131035.865000", "131036.325000", "131036.785000", "131037.245000", "131037.705000", "131038.165000", "131038.625000", "131039.085000", "131039.545000", "131040.005000", "131040.465000", "131040.925000", "131041.385000", "131041.845000", "131042.305000", "131042.765000", "131043.225000", "131043.685000", "131044.145000", "131044.605000", "131045.065000", "131045.525000", "131045.985000", "131046.445000", "131046.905000", "131047.365000", "131047.825000", "131048.285000", "131048.745000", "131049.205000", "131049.665000", "131050.125000", "131050.585000", "131051.045000", "131051.505000", "131051.965000", "131052.425000", "131052.885000", "131053.345000", "131053.805000", "131054.265000", "131054.725000", "131055.185000", "131055.645000", "131056.105000", "131056.565000", "131057.025000", "131057.485000", "131057.945000", "131058.405000", "131058.865000", "131059.325000", "131059.785000", "131100.245000", "131100.705000", "131101.165000", "131101.625000", "131102.085000", "131102.545000", "131103.005000", "131103.465000", "131103.925000", "131104.385000", "131104.845000", "131105.305000", "131105.765000", "131106.225000", "131106.685000", "131107.145000", "131107.605000", "131108.065000", "131108.525000", "131108.985000", "131109.445000", "131109.905000", "131110.365000", "131110.825000", "131111.285000", "131111.745000", "131112.205000", "131112.665000", "131113.125000", "131113.585000", "131114.045000", "131114.505000", "131114.965000", "131115.425000", "131115.885000", "131116.345000", "131116.805000", "131117.265000", "131117.725000", "131118.185000", "131118.645000", "131119.105000", "131119.565000", "131120.025000", "131120.485000", "131120.945000", "131121.405000", "131121.865000", "131122.325000", "131122.785000", "131123.245000", "131123.705000", "131124.165000", "131124.625000", "131125.085000", "131125.545000", "131126.005000", "131126.465000", "131126.925000", "131127.385000", "131127.845000", "131128.305000", "131128.765000", "131129.225000", "131129.685000", "131130.145000", "131130.605000", "131131.065000", "131131.525000", "131131.985000", "131132.445000", "131132.905000", "131133.365000", "131133.825000", "131134.285000", "131134.745000", "131135.205000", "131135.665000", "131136.125000", "131136.585000", "131137.045000", "131137.505000", "131137.965000", "131138.425000", "131138.885000", "131139.345000", "131139.805000", "131140.265000", "131140.725000", "131141.185000", "131141.645000", "131142.105000", "131142.565000", "131143.025000", "131143.485000", "131143.945000", "131144.405000", "131144.865000", "131145.325000", "131145.785000", "131146.245000", "131146.705000", "131147.165000", "131147.625000", "131148.085000", "131148.545000", "131149.005000", "131149.465000", "131149.925000", "131150.385000", "131150.845000", "131151.305000", "131151.765000", "131152.225000", "131152.685000", "131153.145000", "131153.605000", "131154.065000", "131154.525000", "131154.985000", "131155.445000", "131155.905000", "131156.365000", "131156.825000", "131157.285000", "131157.745000", "131158.205000", "131158.665000", "131159.125000", "131159.585000", "131200.045000", "131200.505000", "131200.965000", "131201.425000", "131201.885000", "131202.345000", "131202.805000", "131203.265000", "131203.725000", "131204.185000", "131204.645000", "131205.105000", "131205.565000", "131206.025000", "131206.485000", "131206.945000", "131207.405000", "131207.865000", "131208.325000", "131208.785000", "131209.245000", "131209.705000", "131210.165000", "131210.625000", "131211.085000", "131211.545000", "131212.005000", "131212.465000", "131212.925000", "131213.385000", "131213.845000", "131214.305000", "131214.765000", "131215.225000", "131215.685000", "131216.145000", "131216.605000", "131217.065000", "131217.525000", "131217.985000", "131218.445000", "131218.905000", "131219.365000", "131219.825000", "131220.285000", "131220.745000", "131221.205000", "131221.665000", "131222.125000", "131222.585000", "131223.045000", "131223.505000", "131223.965000", "131224.425000", "131224.885000", "131225.345000", "131225.805000", "131226.265000", "131226.725000", "131227.185000", "131227.645000", "131228.105000", "131228.565000", "131229.025000", "131229.485000", "131229.945000", "131230.405000", "131230.865000", "131231.325000", "131231.785000", "131232.245000", "131232.705000", "131233.165000", "131233.625000", "131234.085000", "131234.545000", "131235.005000", "131235.465000", "131235.925000", "131236.385000", "131236.845000", "131237.305000", "131237.765000", "131238.225000", "131238.685000", "131239.145000", "131239.605000", "131240.065000", "131240.525000", "131240.985000", "131241.445000", "131241.905000", "131242.365000", "131242.825000", "131243.285000", "131243.745000", "131244.205000", "131244.665000", "131245.125000", "131245.585000", "131246.045000", "131246.505000", "131246.965000", "131247.425000", "131247.885000", "131248.345000", "131248.805000", "131249.265000", "131249.725000", "131250.185000", "131250.645000", "131251.105000", "131251.565000", "131252.025000", "131252.485000", "131252.945000", "131253.405000", "131253.865000", "131254.325000", "131254.785000", "131255.245000", "131255.705000", "131256.165000", "131256.625000", "131257.085000", "131257.545000", "131258.005000", "131258.465000", "131258.925000", "131259.385000", "131259.845000", "131300.305000", "131300.765000", "131301.225000", "131301.685000", "131302.145000", "131302.605000", "131303.065000", "131303.525000", "131303.985000", "131304.445000", "131304.905000", "131305.365000", "131305.825000", "131306.285000", "131306.745000", "131307.205000", "131307.665000", "131308.125000", "131308.585000", "131309.045000", "131309.505000", "131309.965000", "131310.425000", "131310.885000", "131311.345000", "131311.805000", "131312.265000", "131312.725000", "131313.185000", "131313.645000", "131314.105000", "131314.565000", "131315.025000", "131315.485000", "131315.945000", "131316.405000", "131316.865000", "131317.325000", "131317.785000", "131318.245000", "131318.705000", "131319.165000", "131319.625000", "131320.085000", "131320.545000", "131321.005000", "131321.465000", "131321.925000", "131322.385000", "131322.845000", "131323.305000", "131323.765000", "131324.225000", "131324.685000", "131325.145000", "131325.605000", "131326.065000", "131326.525000", "131326.985000", "131327.445000", "131327.905000", "131328.365000", "131328.825000", "131329.285000", "131329.745000", "131330.205000", "131330.665000", "131331.125000", "131331.585000", "131332.045000", "131332.505000", "131332.965000", "131333.425000", "131333.885000", "131334.345000", "131334.805000", "131335.265000", "131335.725000", "131336.185000", "131336.645000", "131337.105000", "131337.565000", "131338.025000", "131338.485000"],
