{
  "AcquisitionMatrixPE": 82,
  "AcquisitionNumber": 1,
  "AcquisitionTime": "13:14:10.920000",
  "BandwidthPerPixelPhaseEncode": 24.888,
  "BaseResolution": 82,
  "BodyPartExamined": "BRAIN",
  "ConsistencyInfo": "N4_VE11E_LATEST_20181129",
  "ConversionSoftware": "dcm2niix",
  "ConversionSoftwareVersion": "v1.0.20201102",
  "DerivedVendorReportedEchoSpacing": 0.00049,
  "DeviceSerialNumber": "66112",
  "DwellTime": 2e-06,
  "EchoTime": 0.0272,
  "EchoTrainLength": 82,
  "EffectiveEchoSpacing": 0.00049,
  "FlipAngle": 44,
  "ImageComments": "Unaliased MB8/PE3",
  "ImageOrientationPatientDICOM": [0.99023, -0.0960558, 0.101082, 0.103903, 0.991721, -0.0754527],
  "ImageType": [
    "ORIGINAL",
    "PRIMARY",
    "M",
    "MB",
    "ND",
    "NORM",
    "MOSAIC"
],
  "ImagingFrequency": 123.259,
  "InPlanePhaseEncodingDirectionDICOM": "COL",
  "InstitutionAddress": "Maynard 3,Hanover,NH,US,03755",
  "InstitutionName": "Dartmouth College - PBS",
  "InstitutionalDepartmentName": "Department",
  "MRAcquisitionType": "2D",
  "MagneticFieldStrength": 3,
  "Manufacturer": "Siemens",
  "ManufacturersModelName": "Prisma",
  "Modality": "MR",
  "MultibandAccelerationFactor": 8,
  "PartialFourier": 1,
  "PatientPosition": "HFS",
  "PercentPhaseFOV": 100,
  "PercentSampling": 100,
  "PhaseEncodingDirection": "j-",
  "PhaseEncodingSteps": 82,
  "PhaseResolution": 1,
  "PixelBandwidth": 3050,
  "ProcedureStepDescription": "Wager_Wager^1076_spacetop",
  "ProtocolName": "func_run-02_task-faces_acq-ap-mb8",
  "PulseSequenceDetails": "%CustomerSeq%\\cmrr_mbep2d_bold",
  "ReceiveCoilActiveElements": "HEA;HEP",
  "ReceiveCoilName": "Head_32",
  "ReconMatrixPE": 82,
  "RepetitionTime": 0.46,
  "SAR": 0.0946572,
  "ScanOptions": "FS",
  "ScanningSequence": "EP",
  "SequenceName": "epfid2d1_82",
  "SequenceVariant": "SK\\SS",
  "SeriesDescription": "func_run-02_task-faces_acq-ap-mb8",
  "SeriesNumber": 18,
  "ShimSetting": [4248, -7760, -7230, 398, -228, 32, -2, 71],
  "SliceThickness": 2.7,
  "SliceTiming": [0, 0.2525, 0.0625, 0.315, 0.1275, 0.3775, 0.19, 0, 0.2525, 0.0625, 0.315, 0.1275, 0.3775, 0.19, 0, 0.2525, 0.0625, 0.315, 0.1275, 0.3775, 0.19, 0, 0.2525, 0.0625, 0.315, 0.1275, 0.3775, 0.19, 0, 0.2525, 0.0625, 0.315, 0.1275, 0.3775, 0.19, 0, 0.2525, 0.0625, 0.315, 0.1275, 0.3775, 0.19, 0, 0.2525, 0.0625, 0.315, 0.1275, 0.3775, 0.19, 0, 0.2525, 0.0625, 0.315, 0.1275, 0.3775, 0.19],
  "SoftwareVersions": "syngo MR E11",
  "SpacingBetweenSlices": 2.7,
  "StationName": "AWP66112",
  "TaskName": "faces",
  "TotalReadoutTime": 0.03969,
  "TxRefAmp": 242.794,
  "WipMemBlock": "09681219-7e1a-4b1c-ac6f-430304ad37c8||Sequence: R016 ve11e/master r/434b28f1; Aug  7 2019 18:53:46 by eja",
  "dcmmeta_affine": [
    [-2.656715154647827, 0.27876317501068115, 0.25109294056892395, 89.5161361694336],
    [0.2577107846736908, 2.6607158184051514, -0.23008926212787628, -111.15914154052734],
    [0.27119532227516174, 0.20243416726589203, 2.678434371948242, -94.22096252441406],
    [0.0, 0.0, 0.0, 1.0]
],
  "dcmmeta_reorient_transform": [
    [0.0, -1.0, 0.0, 81.0],
    [1.0, 0.0, 0.0, 0.0],
    [0.0, 0.0, 1.0, 0.0],
    [0.0, 0.0, 0.0, 1.0]
],
  "dcmmeta_shape": [82, 82, 56, 914],
  "dcmmeta_slice_dim": 2,
  "dcmmeta_version": 0.6,
  "global": {
    "const": {
      "AccessionNumber": "A004846",
      "AcquisitionMatrix": [82, 0, 0, 82],
      "AngioFlag": "N",
      "BitsAllocated": 16,
      "BitsStored": 16,
      "BodyPartExamined": "BRAIN",
      "Columns": 656,
      "EchoNumbers": 1,
      "EchoTime": 27.2,
      "EchoTrainLength": 82,
      "FlipAngle": 44.0,
      "HighBit": 15,
      "ImageOrientationPatient": [0.99023013912146, -0.0960558336869, 0.10108188952628, 0.10390263508826, 0.99172129513505, -0.0754527348568],
      "ImagePositionPatient": [-954.57820966595, -794.02125194517, -97.558241912936],
      "ImageType": [
        "ORIGINAL",
        "PRIMARY",
        "M",
        "MB",
        "ND",
        "NORM",
        "MOSAIC"
],
      "ImagedNucleus": "1H",
      "ImagingFrequency": 123.259247,
      "InPlanePhaseEncodingDirection": "COL",
      "MRAcquisitionType": "2D",
      "MagneticFieldStrength": 3.0,
      "Manufacturer": "SIEMENS",
      "ManufacturerModelName": "Prisma",
      "Modality": "MR",
      "NumberOfAverages": 1.0,
      "NumberOfPhaseEncodingSteps": 82,
      "PercentPhaseFieldOfView": 100.0,
      "PercentSampling": 100.0,
      "PerformedProcedureStepStartTime": "121853.445000",
      "PhotometricInterpretation": "MONOCHROME2",
      "PixelBandwidth": 3050.0,
      "PixelRepresentation": 0,
      "PixelSpacing": [2.6829268932343, 2.6829268932343],
      "ProtocolName": "func_run-02_task-faces_acq-ap-mb8",
      "RepetitionTime": 460.0,
      "Rows": 656,
      "SAR": 0.09465720072672,
      "SamplesPerPixel": 1,
      "ScanOptions": "FS",
      "ScanningSequence": "EP",
      "SequenceName": "epfid2d1_82",
      "SequenceVariant": [
        "SK",
        "SS"
],
      "SeriesDescription": "func_run-02_task-faces_acq-ap-mb8",
      "SeriesNumber": 18,
      "SeriesTime": "131430.883000",
      "SliceLocation": -75.670841620595,
      "SliceThickness": 2.7000000476837,
      "SmallestImagePixelValue": 0,
      "SoftwareVersions": "syngo MR E11",
      "SpacingBetweenSlices": 2.6999999954099,
      "SpecificCharacterSet": "ISO_IR 100",
      "StudyID": "1",
      "StudyTime": "121853.359000",
      "TransmitCoilName": "Body",
      "VariableFlipAngleFlag": "N",
      "WindowCenterWidthExplanation": "Algo1"
    },
    "slices": {}
  },
  "time": {
    "samples": {
      "AcquisitionNumber": [1, 2, 3, 4, 5, 6, 7, 8, 9, 10, 11, 12, 13, 14, 15, 16, 17, 18, 19, 20, 21, 22, 23, 24, 25, 26, 27, 28, 29, 30, 31, 32, 33, 34, 35, 36, 37, 38, 39, 40, 41, 42, 43, 44, 45, 46, 47, 48, 49, 50, 51, 52, 53, 54, 55, 56, 57, 58, 59, 60, 61, 62, 63, 64, 65, 66, 67, 68, 69, 70, 71, 72, 73, 74, 75, 76, 77, 78, 79, 80, 81, 82, 83, 84, 85, 86, 87, 88, 89, 90, 91, 92, 93, 94, 95, 96, 97, 98, 99, 100, 101, 102, 103, 104, 105, 106, 107, 108, 109, 110, 111, 112, 113, 114, 115, 116, 117, 118, 119, 120, 121, 122, 123, 124, 125, 126, 127, 128, 129, 130, 131, 132, 133, 134, 135, 136, 137, 138, 139, 140, 141, 142, 143, 144, 145, 146, 147, 148, 149, 150, 151, 152, 153, 154, 155, 156, 157, 158, 159, 160, 161, 162, 163, 164, 165, 166, 167, 168, 169, 170, 171, 172, 173, 174, 175, 176, 177, 178, 179, 180, 181, 182, 183, 184, 185, 186, 187, 188, 189, 190, 191, 192, 193, 194, 195, 196, 197, 198, 199, 200, 201, 202, 203, 204, 205, 206, 207, 208, 209, 210, 211, 212, 213, 214, 215, 216, 217, 218, 219, 220, 221, 222, 223, 224, 225, 226, 227, 228, 229, 230, 231, 232, 233, 234, 235, 236, 237, 238, 239, 240, 241, 242, 243, 244, 245, 246, 247, 248, 249, 250, 251, 252, 253, 254, 255, 256, 257, 258, 259, 260, 261, 262, 263, 264, 265, 266, 267, 268, 269, 270, 271, 272, 273, 274, 275, 276, 277, 278, 279, 280, 281, 282, 283, 284, 285, 286, 287, 288, 289, 290, 291, 292, 293, 294, 295, 296, 297, 298, 299, 300, 301, 302, 303, 304, 305, 306, 307, 308, 309, 310, 311, 312, 313, 314, 315, 316, 317, 318, 319, 320, 321, 322, 323, 324, 325, 326, 327, 328, 329, 330, 331, 332, 333, 334, 335, 336, 337, 338, 339, 340, 341, 342, 343, 344, 345, 346, 347, 348, 349, 350, 351, 352, 353, 354, 355, 356, 357, 358, 359, 360, 361, 362, 363, 364, 365, 366, 367, 368, 369, 370, 371, 372, 373, 374, 375, 376, 377, 378, 379, 380, 381, 382, 383, 384, 385, 386, 387, 388, 389, 390, 391, 392, 393, 394, 395, 396, 397, 398, 399, 400, 401, 402, 403, 404, 405, 406, 407, 408, 409, 410, 411, 412, 413, 414, 415, 416, 417, 418, 419, 420, 421, 422, 423, 424, 425, 426, 427, 428, 429, 430, 431, 432, 433, 434, 435, 436, 437, 438, 439, 440, 441, 442, 443, 444, 445, 446, 447, 448, 449, 450, 451, 452, 453, 454, 455, 456, 457, 458, 459, 460, 461, 462, 463, 464, 465, 466, 467, 468, 469, 470, 471, 472, 473, 474, 475, 476, 477, 478, 479, 480, 481, 482, 483, 484, 485, 486, 487, 488, 489, 490, 491, 492, 493, 494, 495, 496, 497, 498, 499, 500, 501, 502, 503, 504, 505, 506, 507, 508, 509, 510, 511, 512, 513, 514, 515, 516, 517, 518, 519, 520, 521, 522, 523, 524, 525, 526, 527, 528, 529, 530, 531, 532, 533, 534, 535, 536, 537, 538, 539, 540, 541, 542, 543, 544, 545, 546, 547, 548, 549, 550, 551, 552, 553, 554, 555, 556, 557, 558, 559, 560, 561, 562, 563, 564, 565, 566, 567, 568, 569, 570, 571, 572, 573, 574, 575, 576, 577, 578, 579, 580, 581, 582, 583, 584, 585, 586, 587, 588, 589, 590, 591, 592, 593, 594, 595, 596, 597, 598, 599, 600, 601, 602, 603, 604, 605, 606, 607, 608, 609, 610, 611, 612, 613, 614, 615, 616, 617, 618, 619, 620, 621, 622, 623, 624, 625, 626, 627, 628, 629, 630, 631, 632, 633, 634, 635, 636, 637, 638, 639, 640, 641, 642, 643, 644, 645, 646, 647, 648, 649, 650, 651, 652, 653, 654, 655, 656, 657, 658, 659, 660, 661, 662, 663, 664, 665, 666, 667, 668, 669, 670, 671, 672, 673, 674, 675, 676, 677, 678, 679, 680, 681, 682, 683, 684, 685, 686, 687, 688, 689, 690, 691, 692, 693, 694, 695, 696, 697, 698, 699, 700, 701, 702, 703, 704, 705, 706, 707, 708, 709, 710, 711, 712, 713, 714, 715, 716, 717, 718, 719, 720, 721, 722, 723, 724, 725, 726, 727, 728, 729, 730, 731, 732, 733, 734, 735, 736, 737, 738, 739, 740, 741, 742, 743, 744, 745, 746, 747, 748, 749, 750, 751, 752, 753, 754, 755, 756, 757, 758, 759, 760, 761, 762, 763, 764, 765, 766, 767, 768, 769, 770, 771, 772, 773, 774, 775, 776, 777, 778, 779, 780, 781, 782, 783, 784, 785, 786, 787, 788, 789, 790, 791, 792, 793, 794, 795, 796, 797, 798, 799, 800, 801, 802, 803, 804, 805, 806, 807, 808, 809, 810, 811, 812, 813, 814, 815, 816, 817, 818, 819, 820, 821, 822, 823, 824, 825, 826, 827, 828, 829, 830, 831, 832, 833, 834, 835, 836, 837, 838, 839, 840, 841, 842, 843, 844, 845, 846, 847, 848, 849, 850, 851, 852, 853, 854, 855, 856, 857, 858, 859, 860, 861, 862, 863, 864, 865, 866, 867, 868, 869, 870, 871, 872, 873, 874, 875, 876, 877, 878, 879, 880, 881, 882, 883, 884, 885, 886, 887, 888, 889, 890, 891, 892, 893, 894, 895, 896, 897, 898, 899, 900, 901, 902, 903, 904, 905, 906, 907, 908, 909, 910, 911, 912, 913, 914],
      "AcquisitionTime": ["131410.920000", "131411.380000", "131411.840000", "131412.300000", "131412.760000", "131413.220000", "131413.680000", "131414.140000", "131414.600000", "131415.060000", "131415.520000", "131415.980000", "131416.440000", "131416.900000", "131417.360000", "131417.820000", "131418.280000", "131418.740000", "131419.200000", "131419.660000", "131420.120000", "131420.580000", "131421.040000", "131421.500000", "131421.960000", "131422.420000", "131422.880000", "131423.340000", "131423.800000", "131424.260000", "131424.720000", "131425.180000", "131425.640000", "131426.100000", "131426.560000", "131427.020000", "131427.480000", "131427.940000", "131428.400000", "131428.860000", "131429.320000", "131429.780000", "131430.240000", "131430.700000", "131431.160000", "131431.620000", "131432.080000", "131432.540000", "131433.000000", "131433.460000", "131433.920000", "131434.380000", "131434.840000", "131435.300000", "131435.760000", "131436.220000", "131436.680000", "131437.140000", "131437.600000", "131438.060000", "131438.520000", "131438.980000", "131439.440000", "131439.900000", "131440.360000", "131440.820000", "131441.280000", "131441.740000", "131442.200000", "131442.660000", "131443.120000", "131443.580000", "131444.040000", "131444.500000", "131444.960000", "131445.420000", "131445.880000", "131446.340000", "131446.800000", "131447.260000", "131447.720000", "131448.180000", "131448.640000", "131449.100000", "131449.560000", "131450.020000", "131450.480000", "131450.940000", "131451.400000", "131451.860000", "131452.320000", "131452.780000", "131453.240000", "131453.700000", "131454.160000", "131454.620000", "131455.080000", "131455.540000", "131456.000000", "131456.460000", "131456.920000", "131457.380000", "131457.840000", "131458.300000", "131458.760000", "131459.220000", "131459.680000", "131500.140000", "131500.600000", "131501.060000", "131501.520000", "131501.980000", "131502.440000", "131502.900000", "131503.360000", "131503.820000", "131504.280000", "131504.740000", "131505.200000", "131505.660000", "131506.120000", "131506.580000", "131507.040000", "131507.500000", "131507.960000", "131508.420000", "131508.880000", "131509.340000", "131509.800000", "131510.260000", "131510.720000", "131511.180000", "131511.640000", "131512.100000", "131512.560000", "131513.020000", "131513.480000", "131513.940000", "131514.400000", "131514.860000", "131515.320000", "131515.780000", "131516.240000", "131516.700000", "131517.160000", "131517.620000", "131518.080000", "131518.540000", "131519.000000", "131519.460000", "131519.920000", "131520.380000", "131520.840000", "131521.300000", "131521.760000", "131522.220000", "131522.680000", "131523.140000", "131523.600000", "131524.060000", "131524.520000", "131524.980000", "131525.440000", "131525.900000", "131526.360000", "131526.820000", "131527.280000", "131527.740000", "131528.200000", "131528.660000", "131529.120000", "131529.580000", "131530.040000", "131530.500000", "131530.960000", "131531.420000", "131531.880000", "131532.340000", "131532.800000", "131533.260000", "131533.720000", "131534.180000", "131534.640000", "131535.100000", "131535.560000", "131536.020000", "131536.480000", "131536.940000", "131537.400000", "131537.860000", "131538.320000", "131538.780000", "131539.240000", "131539.700000", "131540.160000", "131540.620000", "131541.080000", "131541.540000", "131542.000000", "131542.460000", "131542.920000", "131543.380000", "131543.840000", "131544.300000", "131544.760000", "131545.220000", "131545.680000", "131546.140000", "131546.600000", "131547.060000", "131547.520000", "131547.980000", "131548.440000", "131548.900000", "131549.360000", "131549.820000", "131550.280000", "131550.740000", "131551.200000", "131551.660000", "131552.120000", "131552.580000", "131553.040000", "131553.500000", "131553.960000", "131554.420000", "131554.880000", "131555.340000", "131555.800000", "131556.260000", "131556.720000", "131557.180000", "131557.640000", "131558.100000", "131558.560000", "131559.020000", "131559.480000", "131559.940000", "131600.400000", "131600.860000", "131601.320000", "131601.780000", "131602.240000", "131602.700000", "131603.160000", "131603.620000", "131604.080000", "131604.540000", "131605.000000", "131605.460000", "131605.920000", "131606.380000", "131606.840000", "131607.300000", "131607.760000", "131608.220000", "131608.680000", "131609.140000", "131609.600000", "131610.060000", "131610.520000", "131610.980000", "131611.440000", "131611.900000", "131612.360000", "131612.820000", "131613.280000", "131613.740000", "131614.200000", "131614.660000", "131615.120000", "131615.580000", "131616.040000", "131616.500000", "131616.960000", "131617.420000", "131617.880000", "131618.340000", "131618.800000", "131619.260000", "131619.720000", "131620.180000", "131620.640000", "131621.100000", "131621.560000", "131622.020000", "131622.480000", "131622.940000", "131623.400000", "131623.860000", "131624.320000", "131624.780000", "131625.240000", "131625.700000", "131626.160000", "131626.620000", "131627.080000", "131627.540000", "131628.000000", "131628.460000", "131628.920000", "131629.380000", "131629.840000", "131630.300000", "131630.760000", "131631.220000", "131631.680000", "131632.140000", "131632.600000", "131633.060000", "131633.520000", "131633.980000", "131634.440000", "131634.900000", "131635.360000", "131635.820000", "131636.280000", "131636.740000", "131637.200000", "131637.660000", "131638.120000", "131638.580000", "131639.040000", "131639.500000", "131639.960000", "131640.420000", "131640.880000", "131641.340000", "131641.800000", "131642.260000", "131642.720000", "131643.180000", "131643.640000", "131644.100000", "131644.560000", "131645.020000", "131645.480000", "131645.940000", "131646.400000", "131646.860000", "131647.320000", "131647.780000", "131648.240000", "131648.700000", "131649.160000", "131649.620000", "131650.080000", "131650.540000", "131651.000000", "131651.460000", "131651.920000", "131652.380000", "131652.840000", "131653.300000", "131653.760000", "131654.220000", "131654.680000", "131655.140000", "131655.600000", "131656.060000", "131656.520000", "131656.980000", "131657.440000", "131657.900000", "131658.360000", "131658.820000", "131659.280000", "131659.740000", "131700.200000", "131700.660000", "131701.120000", "131701.580000", "131702.040000", "131702.500000", "131702.960000", "131703.420000", "131703.880000", "131704.340000", "131704.800000", "131705.260000", "131705.720000", "131706.180000", "131706.640000", "131707.100000", "131707.560000", "131708.020000", "131708.480000", "131708.940000", "131709.400000", "131709.860000", "131710.320000", "131710.780000", "131711.240000", "131711.700000", "131712.160000", "131712.620000", "131713.080000", "131713.540000", "131714.000000", "131714.460000", "131714.920000", "131715.380000", "131715.840000", "131716.300000", "131716.760000", "131717.220000", "131717.680000", "131718.140000", "131718.600000", "131719.060000", "131719.520000", "131719.980000", "131720.440000", "131720.900000", "131721.360000", "131721.820000", "131722.280000", "131722.740000", "131723.200000", "131723.660000", "131724.120000", "131724.580000", "131725.040000", "131725.500000", "131725.960000", "131726.420000", "131726.880000", "131727.340000", "131727.800000", "131728.260000", "131728.720000", "131729.180000", "131729.640000", "131730.100000", "131730.560000", "131731.020000", "131731.480000", "131731.940000", "131732.400000", "131732.860000", "131733.320000", "131733.780000", "131734.240000", "131734.700000", "131735.160000", "131735.620000", "131736.080000", "131736.540000", "131737.000000", "131737.460000", "131737.920000", "131738.380000", "131738.840000", "131739.300000", "131739.760000", "131740.220000", "131740.680000", "131741.140000", "131741.600000", "131742.060000", "131742.520000", "131742.980000", "131743.440000", "131743.900000", "131744.360000", "131744.820000", "131745.280000", "131745.740000", "131746.200000", "131746.660000", "131747.120000", "131747.580000", "131748.040000", "131748.500000", "131748.960000", "131749.420000", "131749.880000", "131750.340000", "131750.800000", "131751.260000", "131751.720000", "131752.180000", "131752.640000", "131753.100000", "131753.560000", "131754.020000", "131754.480000", "131754.940000", "131755.400000", "131755.860000", "131756.320000", "131756.780000", "131757.240000", "131757.700000", "131758.160000", "131758.620000", "131759.080000", "131759.540000", "131800.000000", "131800.460000", "131800.920000", "131801.380000", "131801.840000", "131802.300000", "131802.760000", "131803.220000", "131803.680000", "131804.140000", "131804.600000", "131805.060000", "131805.520000", "131805.980000", "131806.440000", "131806.900000", "131807.360000", "131807.820000", "131808.280000", "131808.740000", "131809.200000", "131809.660000", "131810.120000", "131810.580000", "131811.040000", "131811.500000", "131811.960000", "131812.420000", "131812.880000", "131813.340000", "131813.800000", "131814.260000", "131814.720000", "131815.180000", "131815.640000", "131816.100000", "131816.560000", "131817.020000", "131817.480000", "131817.940000", "131818.400000", "131818.860000", "131819.320000", "131819.780000", "131820.240000", "131820.700000", "131821.160000", "131821.620000", "131822.080000", "131822.540000", "131823.000000", "131823.460000", "131823.920000", "131824.380000", "131824.840000", "131825.300000", "131825.760000", "131826.220000", "131826.680000", "131827.140000", "131827.600000", "131828.060000", "131828.520000", "131828.980000", "131829.440000", "131829.900000", "131830.360000", "131830.820000", "131831.280000", "131831.740000", "131832.200000", "131832.660000", "131833.120000", "131833.580000", "131834.040000", "131834.500000", "131834.960000", "131835.420000", "131835.880000", "131836.340000", "131836.800000", "131837.260000", "131837.720000", "131838.180000", "131838.640000", "131839.100000", "131839.560000", "131840.020000", "131840.480000", "131840.940000", "131841.400000", "131841.860000", "131842.320000", "131842.780000", "131843.240000", "131843.700000", "131844.160000", "131844.620000", "131845.080000", "131845.540000", "131846.000000", "131846.460000", "131846.920000", "131847.380000", "131847.840000", "131848.300000", "131848.760000", "131849.220000", "131849.680000", "131850.140000", "131850.600000", "131851.060000", "131851.520000", "131851.980000", "131852.440000", "131852.900000", "131853.360000", "131853.820000", "131854.280000", "131854.740000", "131855.200000", "131855.660000", "131856.120000", "131856.580000", "131857.040000", "131857.500000", "131857.960000", "131858.420000", "131858.880000", "131859.340000", "131859.800000", "131900.260000", "131900.720000", "131901.180000", "131901.640000", "131902.100000", "131902.560000", "131903.020000", "131903.480000", "131903.940000", "131904.400000", "131904.860000", "131905.320000", "131905.780000", "131906.240000", "131906.700000", "131907.160000", "131907.620000", "131908.080000", "131908.540000", "131909.000000", "131909.460000", "131909.920000", "131910.380000", "131910.840000", "131911.300000", "131911.760000", "131912.220000", "131912.680000", "131913.140000", "131913.600000", "131914.060000", "131914.520000", "131914.980000", "131915.440000", "131915.900000", "131916.360000", "131916.820000", "131917.280000", "131917.740000", "131918.200000", "131918.660000", "131919.120000", "131919.580000", "131920.040000", "131920.500000", "131920.960000", "131921.420000", "131921.880000", "131922.340000", "131922.800000", "131923.260000", "131923.720000", "131924.180000", "131924.640000", "131925.100000", "131925.560000", "131926.020000", "131926.480000", "131926.940000", "131927.400000", "131927.860000", "131928.320000", "131928.780000", "131929.240000", "131929.700000", "131930.160000", "131930.620000", "131931.080000", "131931.540000", "131932.000000", "131932.460000", "131932.920000", "131933.380000", "131933.840000", "131934.300000", "131934.760000", "131935.220000", "131935.680000", "131936.140000", "131936.600000", "131937.060000", "131937.520000", "131937.980000", "131938.440000", "131938.900000", "131939.360000", "131939.820000", "131940.280000", "131940.740000", "131941.200000", "131941.660000", "131942.120000", "131942.580000", "131943.040000", "131943.500000", "131943.960000", "131944.420000", "131944.880000", "131945.340000", "131945.800000", "131946.260000", "131946.720000", "131947.180000", "131947.640000", "131948.100000", "131948.560000", "131949.020000", "131949.480000", "131949.940000", "131950.400000", "131950.860000", "131951.320000", "131951.780000", "131952.240000", "131952.700000", "131953.160000", "131953.620000", "131954.080000", "131954.540000", "131955.000000", "131955.460000", "131955.920000", "131956.380000", "131956.840000", "131957.300000", "131957.760000", "131958.220000", "131958.680000", "131959.140000", "131959.600000", "132000.060000", "132000.520000", "132000.980000", "132001.440000", "132001.900000", "132002.360000", "132002.820000", "132003.280000", "132003.740000", "132004.200000", "132004.660000", "132005.120000", "132005.580000", "132006.040000", "132006.500000", "132006.960000", "132007.420000", "132007.880000", "132008.340000", "132008.800000", "132009.260000", "132009.720000", "132010.180000", "132010.640000", "132011.100000", "132011.560000", "132012.020000", "132012.480000", "132012.940000", "132013.400000", "132013.860000", "132014.320000", "132014.780000", "132015.240000", "132015.700000", "132016.160000", "132016.620000", "132017.080000", "132017.540000", "132018.000000", "132018.460000", "132018.920000", "132019.380000", "132019.840000", "132020.300000", "132020.760000", "132021.220000", "132021.680000", "132022.140000", "132022.600000", "132023.060000", "132023.520000", "132023.980000", "132024.440000", "132024.900000", "132025.360000", "132025.820000", "132026.280000", "132026.740000", "132027.200000", "132027.660000", "132028.120000", "132028.580000", "132029.040000", "132029.500000", "132029.960000", "132030.420000", "132030.880000", "132031.340000", "132031.800000", "132032.260000", "132032.720000", "132033.180000", "132033.640000", "132034.100000", "132034.560000", "132035.020000", "132035.480000", "132035.940000", "132036.400000", "132036.860000", "132037.320000", "132037.780000", "132038.240000", "132038.700000", "132039.160000", "132039.620000", "132040.080000", "132040.540000", "132041.000000", "132041.460000", "132041.920000", "132042.380000", "132042.840000", "132043.300000", "132043.760000", "132044.220000", "132044.680000", "132045.140000", "132045.600000", "132046.060000", "132046.520000", "132046.980000", "132047.440000", "132047.900000", "132048.360000", "132048.820000", "132049.280000", "132049.740000", "132050.200000", "132050.660000", "132051.120000", "132051.580000", "132052.040000", "132052.500000", "132052.960000", "132053.420000", "132053.880000", "132054.340000", "132054.800000", "132055.260000", "132055.720000", "132056.180000", "132056.640000", "132057.100000", "132057.560000", "132058.020000", "132058.480000", "132058.940000", "132059.400000", "132059.860000", "132100.320000", "132100.780000", "132101.240000", "132101.700000", "132102.160000", "132102.620000", "132103.080000", "132103.540000", "132104.000000", "132104.460000", "132104.920000", "132105.380000", "132105.840000", "132106.300000", "132106.760000", "132107.220000", "132107.680000", "132108.140000", "132108.600000", "132109.060000", "132109.520000", "132109.980000", "132110.440000", "132110.900000"],
