{
  "AcquisitionMatrixPE": 82,
  "AcquisitionNumber": 1,
  "AcquisitionTime": "17:52:1.135000",
  "BandwidthPerPixelPhaseEncode": 24.888,
  "BaseResolution": 82,
  "BodyPartExamined": "BRAIN",
  "ConsistencyInfo": "N4_VE11E_LATEST_20181129",
  "ConversionSoftware": "dcm2niix",
  "ConversionSoftwareVersion": "v1.0.20201102",
  "DerivedVendorReportedEchoSpacing": 0.00049,
  "DeviceSerialNumber": "66112",
  "DwellTime": 2e-06,
  "EchoTime": 0.0272,
  "EchoTrainLength": 82,
  "EffectiveEchoSpacing": 0.00049,
  "FlipAngle": 44,
  "ImageComments": "Unaliased MB8/PE3",
  "ImageOrientationPatientDICOM": [0.995597, -0.0856267, 0.0381367, 0.0811533, 0.991, 0.10646],
  "ImageType": [
    "ORIGINAL",
    "PRIMARY",
    "M",
    "MB",
    "ND",
    "NORM",
    "MOSAIC"
],
  "ImagingFrequency": 123.259,
  "InPlanePhaseEncodingDirectionDICOM": "COL",
  "InstitutionAddress": "Maynard 3,Hanover,NH,US,03755",
  "InstitutionName": "Dartmouth College - PBS",
  "InstitutionalDepartmentName": "Department",
  "MRAcquisitionType": "2D",
  "MagneticFieldStrength": 3,
  "Manufacturer": "Siemens",
  "ManufacturersModelName": "Prisma",
  "Modality": "MR",
  "MultibandAccelerationFactor": 8,
  "PartialFourier": 1,
  "PatientPosition": "HFS",
  "PercentPhaseFOV": 100,
  "PercentSampling": 100,
  "PhaseEncodingDirection": "j-",
  "PhaseEncodingSteps": 82,
  "PhaseResolution": 1,
  "PixelBandwidth": 3050,
  "ProcedureStepDescription": "Wager_Wager^1076_spacetop",
  "ProtocolName": "func_run-03_task-social_acq-ap-mb8",
  "PulseSequenceDetails": "%CustomerSeq%\\cmrr_mbep2d_bold",
  "ReceiveCoilActiveElements": "HEA;HEP",
  "ReceiveCoilName": "Head_32",
  "ReconMatrixPE": 82,
  "RepetitionTime": 0.46,
  "SAR": 0.0837076,
  "ScanOptions": "FS",
  "ScanningSequence": "EP",
  "SequenceName": "epfid2d1_82",
  "SequenceVariant": "SK\\SS",
  "SeriesDescription": "func_run-03_task-social_acq-ap-mb8",
  "SeriesNumber": 16,
  "ShimSetting": [4229, -7769, -7244, 317, -100, -25, -50, 74],
  "SliceThickness": 2.7,
  "SliceTiming": [0, 0.2525, 0.0625, 0.315, 0.125, 0.3775, 0.19, 0, 0.2525, 0.0625, 0.315, 0.125, 0.3775, 0.19, 0, 0.2525, 0.0625, 0.315, 0.125, 0.3775, 0.19, 0, 0.2525, 0.0625, 0.315, 0.125, 0.3775, 0.19, 0, 0.2525, 0.0625, 0.315, 0.125, 0.3775, 0.19, 0, 0.2525, 0.0625, 0.315, 0.125, 0.3775, 0.19, 0, 0.2525, 0.0625, 0.315, 0.125, 0.3775, 0.19, 0, 0.2525, 0.0625, 0.315, 0.125, 0.3775, 0.19],
  "SoftwareVersions": "syngo MR E11",
  "SpacingBetweenSlices": 2.7,
  "StationName": "AWP66112",
  "TaskName": "social",
  "TotalReadoutTime": 0.03969,
  "TxRefAmp": 226.948,
  "WipMemBlock": "5334f730-4e8a-4546-b169-a3b80de664db||Sequence: R016 ve11e/master r/434b28f1; Aug  7 2019 18:53:46 by eja",
  "dcmmeta_affine": [
    [-2.671114444732666, 0.2177283763885498, 0.12665516138076782, 98.30856323242188],
    [0.22973017394542694, 2.6587796211242676, 0.2778204381465912, -107.38504791259766],
    [0.10231807082891464, -0.2856246829032898, 2.682680368423462, -69.29043579101562],
    [0.0, 0.0, 0.0, 1.0]
],
  "dcmmeta_reorient_transform": [
    [0.0, -1.0, 0.0, 81.0],
    [1.0, 0.0, 0.0, 0.0],
    [0.0, 0.0, 1.0, 0.0],
    [0.0, 0.0, 0.0, 1.0]
],
  "dcmmeta_shape": [82, 82, 56, 872],
  "dcmmeta_slice_dim": 2,
  "dcmmeta_version": 0.6,
  "global": {
    "const": {
      "AccessionNumber": "A004773",
      "AcquisitionMatrix": [82, 0, 0, 82],
      "AngioFlag": "N",
      "BitsAllocated": 16,
      "BitsStored": 16,
      "BodyPartExamined": "BRAIN",
      "Columns": 656,
      "EchoNumbers": 1,
      "EchoTime": 27.2,
      "EchoTrainLength": 82,
      "FlipAngle": 44.0,
      "HighBit": 15,
      "ImageOrientationPatient": [0.99559713618189, -0.0856267012295, 0.0381367337742, 0.08115330066169, 0.99099969100344, 0.10646010625014],
      "ImagePositionPatient": [-945.04241592842, -805.11332651934, -203.76560799737],
      "ImageType": [
        "ORIGINAL",
        "PRIMARY",
        "M",
        "MB",
        "ND",
        "NORM",
        "MOSAIC"
],
      "ImagedNucleus": "1H",
      "ImagingFrequency": 123.259106,
      "InPlanePhaseEncodingDirection": "COL",
      "MRAcquisitionType": "2D",
      "MagneticFieldStrength": 3.0,
      "Manufacturer": "SIEMENS",
      "ManufacturerModelName": "Prisma",
      "Modality": "MR",
      "NumberOfAverages": 1.0,
      "NumberOfPhaseEncodingSteps": 82,
      "PercentPhaseFieldOfView": 100.0,
      "PercentSampling": 100.0,
      "PerformedProcedureStepStartTime": "165759.345000",
      "PhotometricInterpretation": "MONOCHROME2",
      "PixelBandwidth": 3050.0,
      "PixelRepresentation": 0,
      "PixelSpacing": [2.6829268932343, 2.6829268932343],
      "ProtocolName": "func_run-03_task-social_acq-ap-mb8",
      "RepetitionTime": 460.0,
      "Rows": 656,
      "SAR": 0.08370756223612,
      "SamplesPerPixel": 1,
      "ScanOptions": "FS",
      "ScanningSequence": "EP",
      "SequenceName": "epfid2d1_82",
      "SequenceVariant": [
        "SK",
        "SS"
],
      "SeriesDescription": "func_run-03_task-social_acq-ap-mb8",
      "SeriesNumber": 16,
      "SeriesTime": "175219.736000",
      "SliceLocation": -75.283918182665,
      "SliceThickness": 2.7000000476837,
      "SmallestImagePixelValue": 0,
      "SoftwareVersions": "syngo MR E11",
      "SpacingBetweenSlices": 2.7000000124068,
      "SpecificCharacterSet": "ISO_IR 100",
      "StudyID": "1",
      "StudyTime": "165759.278000",
      "TransmitCoilName": "Body",
      "VariableFlipAngleFlag": "N",
      "WindowCenterWidthExplanation": "Algo1"
    },
    "slices": {}
  },
  "time": {
    "samples": {
      "AcquisitionNumber": [1, 2, 3, 4, 5, 6, 7, 8, 9, 10, 11, 12, 13, 14, 15, 16, 17, 18, 19, 20, 21, 22, 23, 24, 25, 26, 27, 28, 29, 30, 31, 32, 33, 34, 35, 36, 37, 38, 39, 40, 41, 42, 43, 44, 45, 46, 47, 48, 49, 50, 51, 52, 53, 54, 55, 56, 57, 58, 59, 60, 61, 62, 63, 64, 65, 66, 67, 68, 69, 70, 71, 72, 73, 74, 75, 76, 77, 78, 79, 80, 81, 82, 83, 84, 85, 86, 87, 88, 89, 90, 91, 92, 93, 94, 95, 96, 97, 98, 99, 100, 101, 102, 103, 104, 105, 106, 107, 108, 109, 110, 111, 112, 113, 114, 115, 116, 117, 118, 119, 120, 121, 122, 123, 124, 125, 126, 127, 128, 129, 130, 131, 132, 133, 134, 135, 136, 137, 138, 139, 140, 141, 142, 143, 144, 145, 146, 147, 148, 149, 150, 151, 152, 153, 154, 155, 156, 157, 158, 159, 160, 161, 162, 163, 164, 165, 166, 167, 168, 169, 170, 171, 172, 173, 174, 175, 176, 177, 178, 179, 180, 181, 182, 183, 184, 185, 186, 187, 188, 189, 190, 191, 192, 193, 194, 195, 196, 197, 198, 199, 200, 201, 202, 203, 204, 205, 206, 207, 208, 209, 210, 211, 212, 213, 214, 215, 216, 217, 218, 219, 220, 221, 222, 223, 224, 225, 226, 227, 228, 229, 230, 231, 232, 233, 234, 235, 236, 237, 238, 239, 240, 241, 242, 243, 244, 245, 246, 247, 248, 249, 250, 251, 252, 253, 254, 255, 256, 257, 258, 259, 260, 261, 262, 263, 264, 265, 266, 267, 268, 269, 270, 271, 272, 273, 274, 275, 276, 277, 278, 279, 280, 281, 282, 283, 284, 285, 286, 287, 288, 289, 290, 291, 292, 293, 294, 295, 296, 297, 298, 299, 300, 301, 302, 303, 304, 305, 306, 307, 308, 309, 310, 311, 312, 313, 314, 315, 316, 317, 318, 319, 320, 321, 322, 323, 324, 325, 326, 327, 328, 329, 330, 331, 332, 333, 334, 335, 336, 337, 338, 339, 340, 341, 342, 343, 344, 345, 346, 347, 348, 349, 350, 351, 352, 353, 354, 355, 356, 357, 358, 359, 360, 361, 362, 363, 364, 365, 366, 367, 368, 369, 370, 371, 372, 373, 374, 375, 376, 377, 378, 379, 380, 381, 382, 383, 384, 385, 386, 387, 388, 389, 390, 391, 392, 393, 394, 395, 396, 397, 398, 399, 400, 401, 402, 403, 404, 405, 406, 407, 408, 409, 410, 411, 412, 413, 414, 415, 416, 417, 418, 419, 420, 421, 422, 423, 424, 425, 426, 427, 428, 429, 430, 431, 432, 433, 434, 435, 436, 437, 438, 439, 440, 441, 442, 443, 444, 445, 446, 447, 448, 449, 450, 451, 452, 453, 454, 455, 456, 457, 458, 459, 460, 461, 462, 463, 464, 465, 466, 467, 468, 469, 470, 471, 472, 473, 474, 475, 476, 477, 478, 479, 480, 481, 482, 483, 484, 485, 486, 487, 488, 489, 490, 491, 492, 493, 494, 495, 496, 497, 498, 499, 500, 501, 502, 503, 504, 505, 506, 507, 508, 509, 510, 511, 512, 513, 514, 515, 516, 517, 518, 519, 520, 521, 522, 523, 524, 525, 526, 527, 528, 529, 530, 531, 532, 533, 534, 535, 536, 537, 538, 539, 540, 541, 542, 543, 544, 545, 546, 547, 548, 549, 550, 551, 552, 553, 554, 555, 556, 557, 558, 559, 560, 561, 562, 563, 564, 565, 566, 567, 568, 569, 570, 571, 572, 573, 574, 575, 576, 577, 578, 579, 580, 581, 582, 583, 584, 585, 586, 587, 588, 589, 590, 591, 592, 593, 594, 595, 596, 597, 598, 599, 600, 601, 602, 603, 604, 605, 606, 607, 608, 609, 610, 611, 612, 613, 614, 615, 616, 617, 618, 619, 620, 621, 622, 623, 624, 625, 626, 627, 628, 629, 630, 631, 632, 633, 634, 635, 636, 637, 638, 639, 640, 641, 642, 643, 644, 645, 646, 647, 648, 649, 650, 651, 652, 653, 654, 655, 656, 657, 658, 659, 660, 661, 662, 663, 664, 665, 666, 667, 668, 669, 670, 671, 672, 673, 674, 675, 676, 677, 678, 679, 680, 681, 682, 683, 684, 685, 686, 687, 688, 689, 690, 691, 692, 693, 694, 695, 696, 697, 698, 699, 700, 701, 702, 703, 704, 705, 706, 707, 708, 709, 710, 711, 712, 713, 714, 715, 716, 717, 718, 719, 720, 721, 722, 723, 724, 725, 726, 727, 728, 729, 730, 731, 732, 733, 734, 735, 736, 737, 738, 739, 740, 741, 742, 743, 744, 745, 746, 747, 748, 749, 750, 751, 752, 753, 754, 755, 756, 757, 758, 759, 760, 761, 762, 763, 764, 765, 766, 767, 768, 769, 770, 771, 772, 773, 774, 775, 776, 777, 778, 779, 780, 781, 782, 783, 784, 785, 786, 787, 788, 789, 790, 791, 792, 793, 794, 795, 796, 797, 798, 799, 800, 801, 802, 803, 804, 805, 806, 807, 808, 809, 810, 811, 812, 813, 814, 815, 816, 817, 818, 819, 820, 821, 822, 823, 824, 825, 826, 827, 828, 829, 830, 831, 832, 833, 834, 835, 836, 837, 838, 839, 840, 841, 842, 843, 844, 845, 846, 847, 848, 849, 850, 851, 852, 853, 854, 855, 856, 857, 858, 859, 860, 861, 862, 863, 864, 865, 866, 867, 868, 869, 870, 871, 872],
      "AcquisitionTime": ["175201.135000", "175201.595000", "175202.055000", "175202.515000", "175202.975000", "175203.435000", "175203.895000", "175204.355000", "175204.815000", "175205.275000", "175205.735000", "175206.195000", "175206.655000", "175207.115000", "175207.575000", "175208.035000", "175208.495000", "175208.955000", "175209.415000", "175209.875000", "175210.335000", "175210.795000", "175211.255000", "175211.715000", "175212.175000", "175212.635000", "175213.095000", "175213.555000", "175214.015000", "175214.475000", "175214.935000", "175215.395000", "175215.855000", "175216.315000", "175216.775000", "175217.235000", "175217.695000", "175218.155000", "175218.615000", "175219.075000", "175219.535000", "175219.995000", "175220.455000", "175220.915000", "175221.375000", "175221.835000", "175222.295000", "175222.755000", "175223.215000", "175223.675000", "175224.135000", "175224.595000", "175225.055000", "175225.515000", "175225.975000", "175226.435000", "175226.895000", "175227.355000", "175227.815000", "175228.275000", "175228.735000", "175229.195000", "175229.655000", "175230.115000", "175230.575000", "175231.035000", "175231.495000", "175231.955000", "175232.415000", "175232.875000", "175233.335000", "175233.795000", "175234.255000", "175234.715000", "175235.175000", "175235.635000", "175236.095000", "175236.555000", "175237.015000", "175237.475000", "175237.935000", "175238.395000", "175238.855000", "175239.315000", "175239.775000", "175240.235000", "175240.695000", "175241.155000", "175241.615000", "175242.075000", "175242.535000", "175242.995000", "175243.455000", "175243.915000", "175244.375000", "175244.835000", "175245.295000", "175245.755000", "175246.215000", "175246.675000", "175247.135000", "175247.595000", "175248.055000", "175248.515000", "175248.975000", "175249.435000", "175249.895000", "175250.355000", "175250.815000", "175251.275000", "175251.735000", "175252.195000", "175252.655000", "175253.115000", "175253.575000", "175254.035000", "175254.495000", "175254.955000", "175255.415000", "175255.875000", "175256.335000", "175256.795000", "175257.255000", "175257.715000", "175258.175000", "175258.635000", "175259.095000", "175259.555000", "175300.015000", "175300.475000", "175300.935000", "175301.395000", "175301.855000", "175302.315000", "175302.775000", "175303.235000", "175303.695000", "175304.155000", "175304.615000", "175305.075000", "175305.535000", "175305.995000", "175306.455000", "175306.915000", "175307.375000", "175307.835000", "175308.295000", "175308.755000", "175309.215000", "175309.675000", "175310.135000", "175310.595000", "175311.055000", "175311.515000", "175311.975000", "175312.435000", "175312.895000", "175313.355000", "175313.815000", "175314.275000", "175314.735000", "175315.195000", "175315.655000", "175316.115000", "175316.575000", "175317.035000", "175317.495000", "175317.955000", "175318.415000", "175318.875000", "175319.335000", "175319.795000", "175320.255000", "175320.715000", "175321.175000", "175321.635000", "175322.095000", "175322.555000", "175323.015000", "175323.475000", "175323.935000", "175324.395000", "175324.855000", "175325.315000", "175325.775000", "175326.235000", "175326.695000", "175327.155000", "175327.615000", "175328.075000", "175328.535000", "175328.995000", "175329.455000", "175329.915000", "175330.375000", "175330.835000", "175331.295000", "175331.755000", "175332.215000", "175332.675000", "175333.135000", "175333.595000", "175334.055000", "175334.515000", "175334.975000", "175335.435000", "175335.895000", "175336.355000", "175336.815000", "175337.275000", "175337.735000", "175338.195000", "175338.655000", "175339.115000", "175339.575000", "175340.035000", "175340.495000", "175340.955000", "175341.415000", "175341.875000", "175342.335000", "175342.795000", "175343.255000", "175343.715000", "175344.175000", "175344.635000", "175345.095000", "175345.555000", "175346.015000", "175346.475000", "175346.935000", "175347.395000", "175347.855000", "175348.315000", "175348.775000", "175349.235000", "175349.695000", "175350.155000", "175350.615000", "175351.075000", "175351.535000", "175351.995000", "175352.455000", "175352.915000", "175353.375000", "175353.835000", "175354.295000", "175354.755000", "175355.215000", "175355.675000", "175356.135000", "175356.595000", "175357.055000", "175357.515000", "175357.975000", "175358.435000", "175358.895000", "175359.355000", "175359.815000", "175400.275000", "175400.735000", "175401.195000", "175401.655000", "175402.115000", "175402.575000", "175403.035000", "175403.495000", "175403.955000", "175404.415000", "175404.875000", "175405.335000", "175405.795000", "175406.255000", "175406.715000", "175407.175000", "175407.635000", "175408.095000", "175408.555000", "175409.015000", "175409.475000", "175409.935000", "175410.395000", "175410.855000", "175411.315000", "175411.775000", "175412.235000", "175412.695000", "175413.155000", "175413.615000", "175414.075000", "175414.535000", "175414.995000", "175415.455000", "175415.915000", "175416.375000", "175416.835000", "175417.295000", "175417.755000", "175418.215000", "175418.675000", "175419.135000", "175419.595000", "175420.055000", "175420.515000", "175420.975000", "175421.435000", "175421.895000", "175422.355000", "175422.815000", "175423.275000", "175423.735000", "175424.195000", "175424.655000", "175425.115000", "175425.575000", "175426.035000", "175426.495000", "175426.955000", "175427.415000", "175427.875000", "175428.335000", "175428.795000", "175429.255000", "175429.715000", "175430.175000", "175430.635000", "175431.095000", "175431.555000", "175432.015000", "175432.475000", "175432.935000", "175433.395000", "175433.855000", "175434.315000", "175434.775000", "175435.235000", "175435.695000", "175436.155000", "175436.615000", "175437.075000", "175437.535000", "175437.995000", "175438.455000", "175438.915000", "175439.375000", "175439.835000", "175440.295000", "175440.755000", "175441.215000", "175441.675000", "175442.135000", "175442.595000", "175443.055000", "175443.515000", "175443.975000", "175444.435000", "175444.895000", "175445.355000", "175445.815000", "175446.275000", "175446.735000", "175447.195000", "175447.655000", "175448.115000", "175448.575000", "175449.035000", "175449.495000", "175449.955000", "175450.415000", "175450.875000", "175451.335000", "175451.795000", "175452.255000", "175452.715000", "175453.175000", "175453.635000", "175454.095000", "175454.555000", "175455.015000", "175455.475000", "175455.935000", "175456.395000", "175456.855000", "175457.315000", "175457.775000", "175458.235000", "175458.695000", "175459.155000", "175459.615000", "175500.075000", "175500.535000", "175500.995000", "175501.455000", "175501.915000", "175502.375000", "175502.835000", "175503.295000", "175503.755000", "175504.215000", "175504.675000", "175505.135000", "175505.595000", "175506.055000", "175506.515000", "175506.975000", "175507.435000", "175507.895000", "175508.355000", "175508.815000", "175509.275000", "175509.735000", "175510.195000", "175510.655000", "175511.115000", "175511.575000", "175512.035000", "175512.495000", "175512.955000", "175513.415000", "175513.875000", "175514.335000", "175514.795000", "175515.255000", "175515.715000", "175516.175000", "175516.635000", "175517.095000", "175517.555000", "175518.015000", "175518.475000", "175518.935000", "175519.395000", "175519.855000", "175520.315000", "175520.775000", "175521.235000", "175521.695000", "175522.155000", "175522.615000", "175523.075000", "175523.535000", "175523.995000", "175524.455000", "175524.915000", "175525.375000", "175525.835000", "175526.295000", "175526.755000", "175527.215000", "175527.675000", "175528.135000", "175528.595000", "175529.055000", "175529.515000", "175529.975000", "175530.435000", "175530.895000", "175531.355000", "175531.815000", "175532.275000", "175532.735000", "175533.195000", "175533.655000", "175534.115000", "175534.575000", "175535.035000", "175535.495000", "175535.955000", "175536.415000", "175536.875000", "175537.335000", "175537.795000", "175538.255000", "175538.715000", "175539.175000", "175539.635000", "175540.095000", "175540.555000", "175541.015000", "175541.475000", "175541.935000", "175542.395000", "175542.855000", "175543.315000", "175543.775000", "175544.235000", "175544.695000", "175545.155000", "175545.615000", "175546.075000", "175546.535000", "175546.995000", "175547.455000", "175547.915000", "175548.375000", "175548.835000", "175549.295000", "175549.755000", "175550.215000", "175550.675000", "175551.135000", "175551.595000", "175552.055000", "175552.515000", "175552.975000", "175553.435000", "175553.895000", "175554.355000", "175554.815000", "175555.275000", "175555.735000", "175556.195000", "175556.655000", "175557.115000", "175557.575000", "175558.035000", "175558.495000", "175558.955000", "175559.415000", "175559.875000", "175600.335000", "175600.795000", "175601.255000", "175601.715000", "175602.175000", "175602.635000", "175603.095000", "175603.555000", "175604.015000", "175604.475000", "175604.935000", "175605.395000", "175605.855000", "175606.315000", "175606.775000", "175607.235000", "175607.695000", "175608.155000", "175608.615000", "175609.075000", "175609.535000", "175609.995000", "175610.455000", "175610.915000", "175611.375000", "175611.835000", "175612.295000", "175612.755000", "175613.215000", "175613.675000", "175614.135000", "175614.595000", "175615.055000", "175615.515000", "175615.975000", "175616.435000", "175616.895000", "175617.355000", "175617.815000", "175618.275000", "175618.735000", "175619.195000", "175619.655000", "175620.115000", "175620.575000", "175621.035000", "175621.495000", "175621.955000", "175622.415000", "175622.875000", "175623.335000", "175623.795000", "175624.255000", "175624.715000", "175625.175000", "175625.635000", "175626.095000", "175626.555000", "175627.015000", "175627.475000", "175627.935000", "175628.395000", "175628.855000", "175629.315000", "175629.775000", "175630.235000", "175630.695000", "175631.155000", "175631.615000", "175632.075000", "175632.535000", "175632.995000", "175633.455000", "175633.915000", "175634.375000", "175634.835000", "175635.295000", "175635.755000", "175636.215000", "175636.675000", "175637.135000", "175637.595000", "175638.055000", "175638.515000", "175638.975000", "175639.435000", "175639.895000", "175640.355000", "175640.815000", "175641.275000", "175641.735000", "175642.195000", "175642.655000", "175643.115000", "175643.575000", "175644.035000", "175644.495000", "175644.955000", "175645.415000", "175645.875000", "175646.335000", "175646.795000", "175647.255000", "175647.715000", "175648.175000", "175648.635000", "175649.095000", "175649.555000", "175650.015000", "175650.475000", "175650.935000", "175651.395000", "175651.855000", "175652.315000", "175652.775000", "175653.235000", "175653.695000", "175654.155000", "175654.615000", "175655.075000", "175655.535000", "175655.995000", "175656.455000", "175656.915000", "175657.375000", "175657.835000", "175658.295000", "175658.755000", "175659.215000", "175659.675000", "175700.135000", "175700.595000", "175701.055000", "175701.515000", "175701.975000", "175702.435000", "175702.895000", "175703.355000", "175703.815000", "175704.275000", "175704.735000", "175705.195000", "175705.655000", "175706.115000", "175706.575000", "175707.035000", "175707.495000", "175707.955000", "175708.415000", "175708.875000", "175709.335000", "175709.795000", "175710.255000", "175710.715000", "175711.175000", "175711.635000", "175712.095000", "175712.555000", "175713.015000", "175713.475000", "175713.935000", "175714.395000", "175714.855000", "175715.315000", "175715.775000", "175716.235000", "175716.695000", "175717.155000", "175717.615000", "175718.075000", "175718.535000", "175718.995000", "175719.455000", "175719.915000", "175720.375000", "175720.835000", "175721.295000", "175721.755000", "175722.215000", "175722.675000", "175723.135000", "175723.595000", "175724.055000", "175724.515000", "175724.975000", "175725.435000", "175725.895000", "175726.355000", "175726.815000", "175727.275000", "175727.735000", "175728.195000", "175728.655000", "175729.115000", "175729.575000", "175730.035000", "175730.495000", "175730.955000", "175731.415000", "175731.875000", "175732.335000", "175732.795000", "175733.255000", "175733.715000", "175734.175000", "175734.635000", "175735.095000", "175735.555000", "175736.015000", "175736.475000", "175736.935000", "175737.395000", "175737.855000", "175738.315000", "175738.775000", "175739.235000", "175739.695000", "175740.155000", "175740.615000", "175741.075000", "175741.535000", "175741.995000", "175742.455000", "175742.915000", "175743.375000", "175743.835000", "175744.295000", "175744.755000", "175745.215000", "175745.675000", "175746.135000", "175746.595000", "175747.055000", "175747.515000", "175747.975000", "175748.435000", "175748.895000", "175749.355000", "175749.815000", "175750.275000", "175750.735000", "175751.195000", "175751.655000", "175752.115000", "175752.575000", "175753.035000", "175753.495000", "175753.955000", "175754.415000", "175754.875000", "175755.335000", "175755.795000", "175756.255000", "175756.715000", "175757.175000", "175757.635000", "175758.095000", "175758.555000", "175759.015000", "175759.475000", "175759.935000", "175800.395000", "175800.855000", "175801.315000", "175801.775000", "175802.235000", "175802.695000", "175803.155000", "175803.615000", "175804.075000", "175804.535000", "175804.995000", "175805.455000", "175805.915000", "175806.375000", "175806.835000", "175807.295000", "175807.755000", "175808.215000", "175808.675000", "175809.135000", "175809.595000", "175810.055000", "175810.515000", "175810.975000", "175811.435000", "175811.895000", "175812.355000", "175812.815000", "175813.275000", "175813.735000", "175814.195000", "175814.655000", "175815.115000", "175815.575000", "175816.035000", "175816.495000", "175816.955000", "175817.415000", "175817.875000", "175818.335000", "175818.795000", "175819.255000", "175819.715000", "175820.175000", "175820.635000", "175821.095000", "175821.555000", "175822.015000", "175822.475000", "175822.935000", "175823.395000", "175823.855000", "175824.315000", "175824.775000", "175825.235000", "175825.695000", "175826.155000", "175826.615000", "175827.075000", "175827.535000", "175827.995000", "175828.455000", "175828.915000", "175829.375000", "175829.835000", "175830.295000", "175830.755000", "175831.215000", "175831.675000", "175832.135000", "175832.595000", "175833.055000", "175833.515000", "175833.975000", "175834.435000", "175834.895000", "175835.355000", "175835.815000", "175836.275000", "175836.735000", "175837.195000", "175837.655000", "175838.115000", "175838.575000", "175839.035000", "175839.495000", "175839.955000", "175840.415000", "175840.875000", "175841.335000", "175841.795000"],
