{
  "AcquisitionMatrixPE": 82,
  "AcquisitionNumber": 1,
  "AcquisitionTime": "20:37:38.735000",
  "BandwidthPerPixelPhaseEncode": 24.888,
  "BaseResolution": 82,
  "BodyPartExamined": "BRAIN",
  "ConsistencyInfo": "N4_VE11E_LATEST_20181129",
  "ConversionSoftware": "dcm2niix",
  "ConversionSoftwareVersion": "v1.0.20201102",
  "DerivedVendorReportedEchoSpacing": 0.00049,
  "DeviceSerialNumber": "66112",
  "DwellTime": 2e-06,
  "EchoTime": 0.0272,
  "EchoTrainLength": 82,
  "EffectiveEchoSpacing": 0.00049,
  "FlipAngle": 44,
  "ImageComments": "Unaliased MB8/PE3",
  "ImageOrientationPatientDICOM": [0.999972, 0.000374341, -0.0074723, -0.000872669, 0.997766, -0.0667986],
  "ImageType": [
    "ORIGINAL",
    "PRIMARY",
    "M",
    "MB",
    "ND",
    "NORM",
    "MOSAIC"
],
  "ImagingFrequency": 123.259,
  "InPlanePhaseEncodingDirectionDICOM": "COL",
  "InstitutionAddress": "Maynard 3,Hanover,NH,US,03755",
  "InstitutionName": "Dartmouth College - PBS",
  "InstitutionalDepartmentName": "Department",
  "MRAcquisitionType": "2D",
  "MagneticFieldStrength": 3,
  "Manufacturer": "Siemens",
  "ManufacturersModelName": "Prisma",
  "Modality": "MR",
  "MultibandAccelerationFactor": 8,
  "PartialFourier": 1,
  "PatientPosition": "HFS",
  "PercentPhaseFOV": 100,
  "PercentSampling": 100,
  "PhaseEncodingDirection": "j-",
  "PhaseEncodingSteps": 82,
  "PhaseResolution": 1,
  "PixelBandwidth": 3050,
  "ProcedureStepDescription": "Wager_Wager^1076_spacetop",
  "ProtocolName": "func_run-01_task-social_acq-ap-mb8",
  "PulseSequenceDetails": "%CustomerSeq%\\cmrr_mbep2d_bold",
  "ReceiveCoilActiveElements": "HEA;HEP",
  "ReceiveCoilName": "Head_32",
  "ReconMatrixPE": 82,
  "RepetitionTime": 0.46,
  "SAR": 0.0877603,
  "ScanOptions": "FS",
  "ScanningSequence": "EP",
  "SequenceName": "epfid2d1_82",
  "SequenceVariant": "SK\\SS",
  "SeriesDescription": "func_run-01_task-social_acq-ap-mb8",
  "SeriesNumber": 12,
  "ShimSetting": [4200, -7749, -7240, 267, -199, 132, -86, 129],
  "SliceThickness": 2.7,
  "SliceTiming": [0, 0.2525, 0.0625, 0.315, 0.125, 0.3775, 0.1875, 0, 0.2525, 0.0625, 0.315, 0.125, 0.3775, 0.1875, 0, 0.2525, 0.0625, 0.315, 0.125, 0.3775, 0.1875, 0, 0.2525, 0.0625, 0.315, 0.125, 0.3775, 0.1875, 0, 0.2525, 0.0625, 0.315, 0.125, 0.3775, 0.1875, 0, 0.2525, 0.0625, 0.315, 0.125, 0.3775, 0.1875, 0, 0.2525, 0.0625, 0.315, 0.125, 0.3775, 0.1875, 0, 0.2525, 0.0625, 0.315, 0.125, 0.3775, 0.1875],
  "SoftwareVersions": "syngo MR E11",
  "SpacingBetweenSlices": 2.7,
  "StationName": "AWP66112",
  "TaskName": "social",
  "TotalReadoutTime": 0.03969,
  "TxRefAmp": 248.836,
  "WipMemBlock": "bfd1c7dc-6523-4f11-a036-31befbfc891f||Sequence: R016 ve11e/master r/434b28f1; Aug  7 2019 18:53:46 by eja",
  "dcmmeta_affine": [
    [-2.682851791381836, -0.002341305837035179, -0.020062623545527458, 113.05838012695312],
    [-0.0010043297661468387, 2.676933526992798, -0.1803688257932663, -97.25082397460938],
    [-0.020047631114721298, 0.17921581864356995, 2.6938939094543457, -92.00786590576172],
    [0.0, 0.0, 0.0, 1.0]
],
  "dcmmeta_reorient_transform": [
    [0.0, -1.0, 0.0, 81.0],
    [1.0, 0.0, 0.0, 0.0],
    [0.0, 0.0, 1.0, 0.0],
    [0.0, 0.0, 0.0, 1.0]
],
  "dcmmeta_shape": [82, 82, 56, 872],
  "dcmmeta_slice_dim": 2,
  "dcmmeta_version": 0.6,
  "global": {
    "const": {
      "AccessionNumber": "A004877",
      "AcquisitionMatrix": [82, 0, 0, 82],
      "AngioFlag": "N",
      "BitsAllocated": 16,
      "BitsStored": 16,
      "BodyPartExamined": "BRAIN",
      "Columns": 656,
      "EchoNumbers": 1,
      "EchoTime": 27.2,
      "EchoTrainLength": 82,
      "FlipAngle": 44.0,
      "HighBit": 15,
      "ImageOrientationPatient": [0.99997201191653, 0.00037434108725, -0.0074722990013, -0.0008726685297, 0.9977660962574, -0.0667986198129],
      "ImagePositionPatient": [-882.17524399796, -888.1489403922, -20.302776103468],
      "ImageType": [
        "ORIGINAL",
        "PRIMARY",
        "M",
        "MB",
        "ND",
        "NORM",
        "MOSAIC"
],
      "ImagedNucleus": "1H",
      "ImagingFrequency": 123.259105,
      "InPlanePhaseEncodingDirection": "COL",
      "MRAcquisitionType": "2D",
      "MagneticFieldStrength": 3.0,
      "Manufacturer": "SIEMENS",
      "ManufacturerModelName": "Prisma",
      "Modality": "MR",
      "NumberOfAverages": 1.0,
      "NumberOfPhaseEncodingSteps": 82,
      "PercentPhaseFieldOfView": 100.0,
      "PercentSampling": 100.0,
      "PerformedProcedureStepStartTime": "200052.045000",
      "PhotometricInterpretation": "MONOCHROME2",
      "PixelBandwidth": 3050.0,
      "PixelRepresentation": 0,
      "PixelSpacing": [2.6829268932343, 2.6829268932343],
      "ProtocolName": "func_run-01_task-social_acq-ap-mb8",
      "RepetitionTime": 460.0,
      "Rows": 656,
      "SAR": 0.08776031669535,
      "SamplesPerPixel": 1,
      "ScanOptions": "FS",
      "ScanningSequence": "EP",
      "SequenceName": "epfid2d1_82",
      "SequenceVariant": [
        "SK",
        "SS"
],
      "SeriesDescription": "func_run-01_task-social_acq-ap-mb8",
      "SeriesNumber": 12,
      "SeriesTime": "203808.454000",
      "SliceLocation": -86.143208124054,
      "SliceThickness": 2.7000000476837,
      "SmallestImagePixelValue": 0,
      "SoftwareVersions": "syngo MR E11",
      "SpacingBetweenSlices": 2.6999999748156,
      "SpecificCharacterSet": "ISO_IR 100",
      "StudyID": "3",
      "StudyTime": "200051.993000",
      "TransmitCoilName": "Body",
      "VariableFlipAngleFlag": "N",
      "WindowCenterWidthExplanation": "Algo1"
    },
    "slices": {}
  },
  "time": {
    "samples": {
      "AcquisitionNumber": [1, 2, 3, 4, 5, 6, 7, 8, 9, 10, 11, 12, 13, 14, 15, 16, 17, 18, 19, 20, 21, 22, 23, 24, 25, 26, 27, 28, 29, 30, 31, 32, 33, 34, 35, 36, 37, 38, 39, 40, 41, 42, 43, 44, 45, 46, 47, 48, 49, 50, 51, 52, 53, 54, 55, 56, 57, 58, 59, 60, 61, 62, 63, 64, 65, 66, 67, 68, 69, 70, 71, 72, 73, 74, 75, 76, 77, 78, 79, 80, 81, 82, 83, 84, 85, 86, 87, 88, 89, 90, 91, 92, 93, 94, 95, 96, 97, 98, 99, 100, 101, 102, 103, 104, 105, 106, 107, 108, 109, 110, 111, 112, 113, 114, 115, 116, 117, 118, 119, 120, 121, 122, 123, 124, 125, 126, 127, 128, 129, 130, 131, 132, 133, 134, 135, 136, 137, 138, 139, 140, 141, 142, 143, 144, 145, 146, 147, 148, 149, 150, 151, 152, 153, 154, 155, 156, 157, 158, 159, 160, 161, 162, 163, 164, 165, 166, 167, 168, 169, 170, 171, 172, 173, 174, 175, 176, 177, 178, 179, 180, 181, 182, 183, 184, 185, 186, 187, 188, 189, 190, 191, 192, 193, 194, 195, 196, 197, 198, 199, 200, 201, 202, 203, 204, 205, 206, 207, 208, 209, 210, 211, 212, 213, 214, 215, 216, 217, 218, 219, 220, 221, 222, 223, 224, 225, 226, 227, 228, 229, 230, 231, 232, 233, 234, 235, 236, 237, 238, 239, 240, 241, 242, 243, 244, 245, 246, 247, 248, 249, 250, 251, 252, 253, 254, 255, 256, 257, 258, 259, 260, 261, 262, 263, 264, 265, 266, 267, 268, 269, 270, 271, 272, 273, 274, 275, 276, 277, 278, 279, 280, 281, 282, 283, 284, 285, 286, 287, 288, 289, 290, 291, 292, 293, 294, 295, 296, 297, 298, 299, 300, 301, 302, 303, 304, 305, 306, 307, 308, 309, 310, 311, 312, 313, 314, 315, 316, 317, 318, 319, 320, 321, 322, 323, 324, 325, 326, 327, 328, 329, 330, 331, 332, 333, 334, 335, 336, 337, 338, 339, 340, 341, 342, 343, 344, 345, 346, 347, 348, 349, 350, 351, 352, 353, 354, 355, 356, 357, 358, 359, 360, 361, 362, 363, 364, 365, 366, 367, 368, 369, 370, 371, 372, 373, 374, 375, 376, 377, 378, 379, 380, 381, 382, 383, 384, 385, 386, 387, 388, 389, 390, 391, 392, 393, 394, 395, 396, 397, 398, 399, 400, 401, 402, 403, 404, 405, 406, 407, 408, 409, 410, 411, 412, 413, 414, 415, 416, 417, 418, 419, 420, 421, 422, 423, 424, 425, 426, 427, 428, 429, 430, 431, 432, 433, 434, 435, 436, 437, 438, 439, 440, 441, 442, 443, 444, 445, 446, 447, 448, 449, 450, 451, 452, 453, 454, 455, 456, 457, 458, 459, 460, 461, 462, 463, 464, 465, 466, 467, 468, 469, 470, 471, 472, 473, 474, 475, 476, 477, 478, 479, 480, 481, 482, 483, 484, 485, 486, 487, 488, 489, 490, 491, 492, 493, 494, 495, 496, 497, 498, 499, 500, 501, 502, 503, 504, 505, 506, 507, 508, 509, 510, 511, 512, 513, 514, 515, 516, 517, 518, 519, 520, 521, 522, 523, 524, 525, 526, 527, 528, 529, 530, 531, 532, 533, 534, 535, 536, 537, 538, 539, 540, 541, 542, 543, 544, 545, 546, 547, 548, 549, 550, 551, 552, 553, 554, 555, 556, 557, 558, 559, 560, 561, 562, 563, 564, 565, 566, 567, 568, 569, 570, 571, 572, 573, 574, 575, 576, 577, 578, 579, 580, 581, 582, 583, 584, 585, 586, 587, 588, 589, 590, 591, 592, 593, 594, 595, 596, 597, 598, 599, 600, 601, 602, 603, 604, 605, 606, 607, 608, 609, 610, 611, 612, 613, 614, 615, 616, 617, 618, 619, 620, 621, 622, 623, 624, 625, 626, 627, 628, 629, 630, 631, 632, 633, 634, 635, 636, 637, 638, 639, 640, 641, 642, 643, 644, 645, 646, 647, 648, 649, 650, 651, 652, 653, 654, 655, 656, 657, 658, 659, 660, 661, 662, 663, 664, 665, 666, 667, 668, 669, 670, 671, 672, 673, 674, 675, 676, 677, 678, 679, 680, 681, 682, 683, 684, 685, 686, 687, 688, 689, 690, 691, 692, 693, 694, 695, 696, 697, 698, 699, 700, 701, 702, 703, 704, 705, 706, 707, 708, 709, 710, 711, 712, 713, 714, 715, 716, 717, 718, 719, 720, 721, 722, 723, 724, 725, 726, 727, 728, 729, 730, 731, 732, 733, 734, 735, 736, 737, 738, 739, 740, 741, 742, 743, 744, 745, 746, 747, 748, 749, 750, 751, 752, 753, 754, 755, 756, 757, 758, 759, 760, 761, 762, 763, 764, 765, 766, 767, 768, 769, 770, 771, 772, 773, 774, 775, 776, 777, 778, 779, 780, 781, 782, 783, 784, 785, 786, 787, 788, 789, 790, 791, 792, 793, 794, 795, 796, 797, 798, 799, 800, 801, 802, 803, 804, 805, 806, 807, 808, 809, 810, 811, 812, 813, 814, 815, 816, 817, 818, 819, 820, 821, 822, 823, 824, 825, 826, 827, 828, 829, 830, 831, 832, 833, 834, 835, 836, 837, 838, 839, 840, 841, 842, 843, 844, 845, 846, 847, 848, 849, 850, 851, 852, 853, 854, 855, 856, 857, 858, 859, 860, 861, 862, 863, 864, 865, 866, 867, 868, 869, 870, 871, 872],
      "AcquisitionTime": ["203738.735000", "203739.195000", "203739.655000", "203740.115000", "203740.575000", "203741.035000", "203741.495000", "203741.955000", "203742.415000", "203742.875000", "203743.335000", "203743.795000", "203744.255000", "203744.715000", "203745.175000", "203745.635000", "203746.095000", "203746.555000", "203747.015000", "203747.475000", "203747.935000", "203748.395000", "203748.855000", "203749.315000", "203749.775000", "203750.235000", "203750.695000", "203751.155000", "203751.615000", "203752.075000", "203752.535000", "203752.995000", "203753.455000", "203753.915000", "203754.375000", "203754.835000", "203755.295000", "203755.755000", "203756.215000", "203756.675000", "203757.135000", "203757.595000", "203758.055000", "203758.515000", "203758.975000", "203759.435000", "203759.895000", "203800.355000", "203800.815000", "203801.275000", "203801.735000", "203802.195000", "203802.655000", "203803.115000", "203803.575000", "203804.035000", "203804.495000", "203804.955000", "203805.415000", "203805.875000", "203806.335000", "203806.795000", "203807.255000", "203807.715000", "203808.175000", "203808.635000", "203809.095000", "203809.555000", "203810.015000", "203810.475000", "203810.935000", "203811.395000", "203811.855000", "203812.315000", "203812.775000", "203813.235000", "203813.695000", "203814.155000", "203814.615000", "203815.075000", "203815.535000", "203815.995000", "203816.455000", "203816.915000", "203817.375000", "203817.835000", "203818.295000", "203818.755000", "203819.215000", "203819.675000", "203820.135000", "203820.595000", "203821.055000", "203821.515000", "203821.975000", "203822.435000", "203822.895000", "203823.355000", "203823.815000", "203824.275000", "203824.735000", "203825.195000", "203825.655000", "203826.115000", "203826.575000", "203827.035000", "203827.495000", "203827.955000", "203828.415000", "203828.875000", "203829.335000", "203829.795000", "203830.255000", "203830.715000", "203831.175000", "203831.635000", "203832.095000", "203832.555000", "203833.015000", "203833.475000", "203833.935000", "203834.395000", "203834.855000", "203835.315000", "203835.775000", "203836.235000", "203836.695000", "203837.155000", "203837.615000", "203838.075000", "203838.535000", "203838.995000", "203839.455000", "203839.915000", "203840.375000", "203840.835000", "203841.295000", "203841.755000", "203842.215000", "203842.675000", "203843.135000", "203843.595000", "203844.055000", "203844.515000", "203844.975000", "203845.435000", "203845.895000", "203846.355000", "203846.815000", "203847.275000", "203847.735000", "203848.195000", "203848.655000", "203849.115000", "203849.575000", "203850.035000", "203850.495000", "203850.955000", "203851.415000", "203851.875000", "203852.335000", "203852.795000", "203853.255000", "203853.715000", "203854.175000", "203854.635000", "203855.095000", "203855.555000", "203856.015000", "203856.475000", "203856.935000", "203857.395000", "203857.855000", "203858.315000", "203858.775000", "203859.235000", "203859.695000", "203900.155000", "203900.615000", "203901.075000", "203901.535000", "203901.995000", "203902.455000", "203902.915000", "203903.375000", "203903.835000", "203904.295000", "203904.755000", "203905.215000", "203905.675000", "203906.135000", "203906.595000", "203907.055000", "203907.515000", "203907.975000", "203908.435000", "203908.895000", "203909.355000", "203909.815000", "203910.275000", "203910.735000", "203911.195000", "203911.655000", "203912.115000", "203912.575000", "203913.035000", "203913.495000", "203913.955000", "203914.415000", "203914.875000", "203915.335000", "203915.795000", "203916.255000", "203916.715000", "203917.175000", "203917.635000", "203918.095000", "203918.555000", "203919.015000", "203919.475000", "203919.935000", "203920.395000", "203920.855000", "203921.315000", "203921.775000", "203922.235000", "203922.695000", "203923.155000", "203923.615000", "203924.075000", "203924.535000", "203924.995000", "203925.455000", "203925.915000", "203926.375000", "203926.835000", "203927.295000", "203927.755000", "203928.215000", "203928.675000", "203929.135000", "203929.595000", "203930.055000", "203930.515000", "203930.975000", "203931.435000", "203931.895000", "203932.355000", "203932.815000", "203933.275000", "203933.735000", "203934.195000", "203934.655000", "203935.115000", "203935.575000", "203936.035000", "203936.495000", "203936.955000", "203937.415000", "203937.875000", "203938.335000", "203938.795000", "203939.255000", "203939.715000", "203940.175000", "203940.635000", "203941.095000", "203941.555000", "203942.015000", "203942.475000", "203942.935000", "203943.395000", "203943.855000", "203944.315000", "203944.775000", "203945.235000", "203945.695000", "203946.155000", "203946.615000", "203947.075000", "203947.535000", "203947.995000", "203948.455000", "203948.915000", "203949.375000", "203949.835000", "203950.295000", "203950.755000", "203951.215000", "203951.675000", "203952.135000", "203952.595000", "203953.055000", "203953.515000", "203953.975000", "203954.435000", "203954.895000", "203955.355000", "203955.815000", "203956.275000", "203956.735000", "203957.195000", "203957.655000", "203958.115000", "203958.575000", "203959.035000", "203959.495000", "203959.955000", "204000.415000", "204000.875000", "204001.335000", "204001.795000", "204002.255000", "204002.715000", "204003.175000", "204003.635000", "204004.095000", "204004.555000", "204005.015000", "204005.475000", "204005.935000", "204006.395000", "204006.855000", "204007.315000", "204007.775000", "204008.235000", "204008.695000", "204009.155000", "204009.615000", "204010.075000", "204010.535000", "204010.995000", "204011.455000", "204011.915000", "204012.375000", "204012.835000", "204013.295000", "204013.755000", "204014.215000", "204014.675000", "204015.135000", "204015.595000", "204016.055000", "204016.515000", "204016.975000", "204017.435000", "204017.895000", "204018.355000", "204018.815000", "204019.275000", "204019.735000", "204020.195000", "204020.655000", "204021.115000", "204021.575000", "204022.035000", "204022.495000", "204022.955000", "204023.415000", "204023.875000", "204024.335000", "204024.795000", "204025.255000", "204025.715000", "204026.175000", "204026.635000", "204027.095000", "204027.555000", "204028.015000", "204028.475000", "204028.935000", "204029.395000", "204029.855000", "204030.315000", "204030.775000", "204031.235000", "204031.695000", "204032.155000", "204032.615000", "204033.075000", "204033.535000", "204033.995000", "204034.455000", "204034.915000", "204035.375000", "204035.835000", "204036.295000", "204036.755000", "204037.215000", "204037.675000", "204038.135000", "204038.595000", "204039.055000", "204039.515000", "204039.975000", "204040.435000", "204040.895000", "204041.355000", "204041.815000", "204042.275000", "204042.735000", "204043.195000", "204043.655000", "204044.115000", "204044.575000", "204045.035000", "204045.495000", "204045.955000", "204046.415000", "204046.875000", "204047.335000", "204047.795000", "204048.255000", "204048.715000", "204049.175000", "204049.635000", "204050.095000", "204050.555000", "204051.015000", "204051.475000", "204051.935000", "204052.395000", "204052.855000", "204053.315000", "204053.775000", "204054.235000", "204054.695000", "204055.155000", "204055.615000", "204056.075000", "204056.535000", "204056.995000", "204057.455000", "204057.915000", "204058.375000", "204058.835000", "204059.295000", "204059.755000", "204100.215000", "204100.675000", "204101.135000", "204101.595000", "204102.055000", "204102.515000", "204102.975000", "204103.435000", "204103.895000", "204104.355000", "204104.815000", "204105.275000", "204105.735000", "204106.195000", "204106.655000", "204107.115000", "204107.575000", "204108.035000", "204108.495000", "204108.955000", "204109.415000", "204109.875000", "204110.335000", "204110.795000", "204111.255000", "204111.715000", "204112.175000", "204112.635000", "204113.095000", "204113.555000", "204114.015000", "204114.475000", "204114.935000", "204115.395000", "204115.855000", "204116.315000", "204116.775000", "204117.235000", "204117.695000", "204118.155000", "204118.615000", "204119.075000", "204119.535000", "204119.995000", "204120.455000", "204120.915000", "204121.375000", "204121.835000", "204122.295000", "204122.755000", "204123.215000", "204123.675000", "204124.135000", "204124.595000", "204125.055000", "204125.515000", "204125.975000", "204126.435000", "204126.895000", "204127.355000", "204127.815000", "204128.275000", "204128.735000", "204129.195000", "204129.655000", "204130.115000", "204130.575000", "204131.035000", "204131.495000", "204131.955000", "204132.415000", "204132.875000", "204133.335000", "204133.795000", "204134.255000", "204134.715000", "204135.175000", "204135.635000", "204136.095000", "204136.555000", "204137.015000", "204137.475000", "204137.935000", "204138.395000", "204138.855000", "204139.315000", "204139.775000", "204140.235000", "204140.695000", "204141.155000", "204141.615000", "204142.075000", "204142.535000", "204142.995000", "204143.455000", "204143.915000", "204144.375000", "204144.835000", "204145.295000", "204145.755000", "204146.215000", "204146.675000", "204147.135000", "204147.595000", "204148.055000", "204148.515000", "204148.975000", "204149.435000", "204149.895000", "204150.355000", "204150.815000", "204151.275000", "204151.735000", "204152.195000", "204152.655000", "204153.115000", "204153.575000", "204154.035000", "204154.495000", "204154.955000", "204155.415000", "204155.875000", "204156.335000", "204156.795000", "204157.255000", "204157.715000", "204158.175000", "204158.635000", "204159.095000", "204159.555000", "204200.015000", "204200.475000", "204200.935000", "204201.395000", "204201.855000", "204202.315000", "204202.775000", "204203.235000", "204203.695000", "204204.155000", "204204.615000", "204205.075000", "204205.535000", "204205.995000", "204206.455000", "204206.915000", "204207.375000", "204207.835000", "204208.295000", "204208.755000", "204209.215000", "204209.675000", "204210.135000", "204210.595000", "204211.055000", "204211.515000", "204211.975000", "204212.435000", "204212.895000", "204213.355000", "204213.815000", "204214.275000", "204214.735000", "204215.195000", "204215.655000", "204216.115000", "204216.575000", "204217.035000", "204217.495000", "204217.955000", "204218.415000", "204218.875000", "204219.335000", "204219.795000", "204220.255000", "204220.715000", "204221.175000", "204221.635000", "204222.095000", "204222.555000", "204223.015000", "204223.475000", "204223.935000", "204224.395000", "204224.855000", "204225.315000", "204225.775000", "204226.235000", "204226.695000", "204227.155000", "204227.615000", "204228.075000", "204228.535000", "204228.995000", "204229.455000", "204229.915000", "204230.375000", "204230.835000", "204231.295000", "204231.755000", "204232.215000", "204232.675000", "204233.135000", "204233.595000", "204234.055000", "204234.515000", "204234.975000", "204235.435000", "204235.895000", "204236.355000", "204236.815000", "204237.275000", "204237.735000", "204238.195000", "204238.655000", "204239.115000", "204239.575000", "204240.035000", "204240.495000", "204240.955000", "204241.415000", "204241.875000", "204242.335000", "204242.795000", "204243.255000", "204243.715000", "204244.175000", "204244.635000", "204245.095000", "204245.555000", "204246.015000", "204246.475000", "204246.935000", "204247.395000", "204247.855000", "204248.315000", "204248.775000", "204249.235000", "204249.695000", "204250.155000", "204250.615000", "204251.075000", "204251.535000", "204251.995000", "204252.455000", "204252.915000", "204253.375000", "204253.835000", "204254.295000", "204254.755000", "204255.215000", "204255.675000", "204256.135000", "204256.595000", "204257.055000", "204257.515000", "204257.975000", "204258.435000", "204258.895000", "204259.355000", "204259.815000", "204300.275000", "204300.735000", "204301.195000", "204301.655000", "204302.115000", "204302.575000", "204303.035000", "204303.495000", "204303.955000", "204304.415000", "204304.875000", "204305.335000", "204305.795000", "204306.255000", "204306.715000", "204307.175000", "204307.635000", "204308.095000", "204308.555000", "204309.015000", "204309.475000", "204309.935000", "204310.395000", "204310.855000", "204311.315000", "204311.775000", "204312.235000", "204312.695000", "204313.155000", "204313.615000", "204314.075000", "204314.535000", "204314.995000", "204315.455000", "204315.915000", "204316.375000", "204316.835000", "204317.295000", "204317.755000", "204318.215000", "204318.675000", "204319.135000", "204319.595000", "204320.055000", "204320.515000", "204320.975000", "204321.435000", "204321.895000", "204322.355000", "204322.815000", "204323.275000", "204323.735000", "204324.195000", "204324.655000", "204325.115000", "204325.575000", "204326.035000", "204326.495000", "204326.955000", "204327.415000", "204327.875000", "204328.335000", "204328.795000", "204329.255000", "204329.715000", "204330.175000", "204330.635000", "204331.095000", "204331.555000", "204332.015000", "204332.475000", "204332.935000", "204333.395000", "204333.855000", "204334.315000", "204334.775000", "204335.235000", "204335.695000", "204336.155000", "204336.615000", "204337.075000", "204337.535000", "204337.995000", "204338.455000", "204338.915000", "204339.375000", "204339.835000", "204340.295000", "204340.755000", "204341.215000", "204341.675000", "204342.135000", "204342.595000", "204343.055000", "204343.515000", "204343.975000", "204344.435000", "204344.895000", "204345.355000", "204345.815000", "204346.275000", "204346.735000", "204347.195000", "204347.655000", "204348.115000", "204348.575000", "204349.035000", "204349.495000", "204349.955000", "204350.415000", "204350.875000", "204351.335000", "204351.795000", "204352.255000", "204352.715000", "204353.175000", "204353.635000", "204354.095000", "204354.555000", "204355.015000", "204355.475000", "204355.935000", "204356.395000", "204356.855000", "204357.315000", "204357.775000", "204358.235000", "204358.695000", "204359.155000", "204359.615000", "204400.075000", "204400.535000", "204400.995000", "204401.455000", "204401.915000", "204402.375000", "204402.835000", "204403.295000", "204403.755000", "204404.215000", "204404.675000", "204405.135000", "204405.595000", "204406.055000", "204406.515000", "204406.975000", "204407.435000", "204407.895000", "204408.355000", "204408.815000", "204409.275000", "204409.735000", "204410.195000", "204410.655000", "204411.115000", "204411.575000", "204412.035000", "204412.495000", "204412.955000", "204413.415000", "204413.875000", "204414.335000", "204414.795000", "204415.255000", "204415.715000", "204416.175000", "204416.635000", "204417.095000", "204417.555000", "204418.015000", "204418.475000", "204418.935000", "204419.395000"],
