{
  "AcquisitionMatrixPE": 82,
  "AcquisitionNumber": 1,
  "AcquisitionTime": "20:47:12.220000",
  "BandwidthPerPixelPhaseEncode": 24.888,
  "BaseResolution": 82,
  "BodyPartExamined": "BRAIN",
  "ConsistencyInfo": "N4_VE11E_LATEST_20181129",
  "ConversionSoftware": "dcm2niix",
  "ConversionSoftwareVersion": "v1.0.20201102",
  "DerivedVendorReportedEchoSpacing": 0.00049,
  "DeviceSerialNumber": "66112",
  "DwellTime": 2e-06,
  "EchoTime": 0.0272,
  "EchoTrainLength": 82,
  "EffectiveEchoSpacing": 0.00049,
  "FlipAngle": 44,
  "ImageComments": "Unaliased MB8/PE3",
  "ImageOrientationPatientDICOM": [0.999972, 0.000374341, -0.0074723, -0.000872669, 0.997766, -0.0667986],
  "ImageType": [
    "ORIGINAL",
    "PRIMARY",
    "M",
    "MB",
    "ND",
    "NORM",
    "MOSAIC"
],
  "ImagingFrequency": 123.259,
  "InPlanePhaseEncodingDirectionDICOM": "COL",
  "InstitutionAddress": "Maynard 3,Hanover,NH,US,03755",
  "InstitutionName": "Dartmouth College - PBS",
  "InstitutionalDepartmentName": "Department",
  "MRAcquisitionType": "2D",
  "MagneticFieldStrength": 3,
  "Manufacturer": "Siemens",
  "ManufacturersModelName": "Prisma",
  "Modality": "MR",
  "MultibandAccelerationFactor": 8,
  "PartialFourier": 1,
  "PatientPosition": "HFS",
  "PercentPhaseFOV": 100,
  "PercentSampling": 100,
  "PhaseEncodingDirection": "j-",
  "PhaseEncodingSteps": 82,
  "PhaseResolution": 1,
  "PixelBandwidth": 3050,
  "ProcedureStepDescription": "Wager_Wager^1076_spacetop",
  "ProtocolName": "func_run-02_task-social_acq-ap-mb8",
  "PulseSequenceDetails": "%CustomerSeq%\\cmrr_mbep2d_bold",
  "ReceiveCoilActiveElements": "HEA;HEP",
  "ReceiveCoilName": "Head_32",
  "ReconMatrixPE": 82,
  "RepetitionTime": 0.46,
  "SAR": 0.0877603,
  "ScanOptions": "FS",
  "ScanningSequence": "EP",
  "SequenceName": "epfid2d1_82",
  "SequenceVariant": "SK\\SS",
  "SeriesDescription": "func_run-02_task-social_acq-ap-mb8",
  "SeriesNumber": 14,
  "ShimSetting": [4200, -7749, -7240, 267, -199, 132, -86, 129],
  "SliceThickness": 2.7,
  "SliceTiming": [0, 0.25, 0.0625, 0.3125, 0.125, 0.3775, 0.1875, 0, 0.25, 0.0625, 0.3125, 0.125, 0.3775, 0.1875, 0, 0.25, 0.0625, 0.3125, 0.125, 0.3775, 0.1875, 0, 0.25, 0.0625, 0.3125, 0.125, 0.3775, 0.1875, 0, 0.25, 0.0625, 0.3125, 0.125, 0.3775, 0.1875, 0, 0.25, 0.0625, 0.3125, 0.125, 0.3775, 0.1875, 0, 0.25, 0.0625, 0.3125, 0.125, 0.3775, 0.1875, 0, 0.25, 0.0625, 0.3125, 0.125, 0.3775, 0.1875],
  "SoftwareVersions": "syngo MR E11",
  "SpacingBetweenSlices": 2.7,
  "StationName": "AWP66112",
  "TaskName": "social",
  "TotalReadoutTime": 0.03969,
  "TxRefAmp": 248.836,
  "WipMemBlock": "14928f2d-030f-4e38-a73b-c82a3026077a||Sequence: R016 ve11e/master r/434b28f1; Aug  7 2019 18:53:46 by eja",
  "dcmmeta_affine": [
    [-2.682851791381836, -0.002341305837035179, -0.020062623545527458, 113.05838012695312],
    [-0.0010043297661468387, 2.676933526992798, -0.1803688257932663, -97.25082397460938],
    [-0.020047631114721298, 0.17921581864356995, 2.6938939094543457, -92.00786590576172],
    [0.0, 0.0, 0.0, 1.0]
],
  "dcmmeta_reorient_transform": [
    [0.0, -1.0, 0.0, 81.0],
    [1.0, 0.0, 0.0, 0.0],
    [0.0, 0.0, 1.0, 0.0],
    [0.0, 0.0, 0.0, 1.0]
],
  "dcmmeta_shape": [82, 82, 56, 872],
  "dcmmeta_slice_dim": 2,
  "dcmmeta_version": 0.6,
  "global": {
    "const": {
      "AccessionNumber": "A004877",
      "AcquisitionMatrix": [82, 0, 0, 82],
      "AngioFlag": "N",
      "BitsAllocated": 16,
      "BitsStored": 16,
      "BodyPartExamined": "BRAIN",
      "Columns": 656,
      "EchoNumbers": 1,
      "EchoTime": 27.2,
      "EchoTrainLength": 82,
      "FlipAngle": 44.0,
      "HighBit": 15,
      "ImageOrientationPatient": [0.99997201191653, 0.00037434108725, -0.0074722990013, -0.0008726685297, 0.9977660962574, -0.0667986198129],
      "ImagePositionPatient": [-882.17524399796, -888.1489403922, -20.302776103468],
      "ImageType": [
        "ORIGINAL",
        "PRIMARY",
        "M",
        "MB",
        "ND",
        "NORM",
        "MOSAIC"
],
      "ImagedNucleus": "1H",
      "ImagingFrequency": 123.259111,
      "InPlanePhaseEncodingDirection": "COL",
      "MRAcquisitionType": "2D",
      "MagneticFieldStrength": 3.0,
      "Manufacturer": "SIEMENS",
      "ManufacturerModelName": "Prisma",
      "Modality": "MR",
      "NumberOfAverages": 1.0,
      "NumberOfPhaseEncodingSteps": 82,
      "PercentPhaseFieldOfView": 100.0,
      "PercentSampling": 100.0,
      "PerformedProcedureStepStartTime": "200052.045000",
      "PhotometricInterpretation": "MONOCHROME2",
      "PixelBandwidth": 3050.0,
      "PixelRepresentation": 0,
      "PixelSpacing": [2.6829268932343, 2.6829268932343],
      "ProtocolName": "func_run-02_task-social_acq-ap-mb8",
      "RepetitionTime": 460.0,
      "Rows": 656,
      "SAR": 0.08776031669535,
      "SamplesPerPixel": 1,
      "ScanOptions": "FS",
      "ScanningSequence": "EP",
      "SequenceName": "epfid2d1_82",
      "SequenceVariant": [
        "SK",
        "SS"
],
      "SeriesDescription": "func_run-02_task-social_acq-ap-mb8",
      "SeriesNumber": 14,
      "SeriesTime": "204728.280000",
      "SliceLocation": -86.143208124054,
      "SliceThickness": 2.7000000476837,
      "SmallestImagePixelValue": 0,
      "SoftwareVersions": "syngo MR E11",
      "SpacingBetweenSlices": 2.6999999748156,
      "SpecificCharacterSet": "ISO_IR 100",
      "StudyID": "3",
      "StudyTime": "200051.993000",
      "TransmitCoilName": "Body",
      "VariableFlipAngleFlag": "N",
      "WindowCenterWidthExplanation": "Algo1"
    },
    "slices": {}
  },
  "time": {
    "samples": {
      "AcquisitionNumber": [1, 2, 3, 4, 5, 6, 7, 8, 9, 10, 11, 12, 13, 14, 15, 16, 17, 18, 19, 20, 21, 22, 23, 24, 25, 26, 27, 28, 29, 30, 31, 32, 33, 34, 35, 36, 37, 38, 39, 40, 41, 42, 43, 44, 45, 46, 47, 48, 49, 50, 51, 52, 53, 54, 55, 56, 57, 58, 59, 60, 61, 62, 63, 64, 65, 66, 67, 68, 69, 70, 71, 72, 73, 74, 75, 76, 77, 78, 79, 80, 81, 82, 83, 84, 85, 86, 87, 88, 89, 90, 91, 92, 93, 94, 95, 96, 97, 98, 99, 100, 101, 102, 103, 104, 105, 106, 107, 108, 109, 110, 111, 112, 113, 114, 115, 116, 117, 118, 119, 120, 121, 122, 123, 124, 125, 126, 127, 128, 129, 130, 131, 132, 133, 134, 135, 136, 137, 138, 139, 140, 141, 142, 143, 144, 145, 146, 147, 148, 149, 150, 151, 152, 153, 154, 155, 156, 157, 158, 159, 160, 161, 162, 163, 164, 165, 166, 167, 168, 169, 170, 171, 172, 173, 174, 175, 176, 177, 178, 179, 180, 181, 182, 183, 184, 185, 186, 187, 188, 189, 190, 191, 192, 193, 194, 195, 196, 197, 198, 199, 200, 201, 202, 203, 204, 205, 206, 207, 208, 209, 210, 211, 212, 213, 214, 215, 216, 217, 218, 219, 220, 221, 222, 223, 224, 225, 226, 227, 228, 229, 230, 231, 232, 233, 234, 235, 236, 237, 238, 239, 240, 241, 242, 243, 244, 245, 246, 247, 248, 249, 250, 251, 252, 253, 254, 255, 256, 257, 258, 259, 260, 261, 262, 263, 264, 265, 266, 267, 268, 269, 270, 271, 272, 273, 274, 275, 276, 277, 278, 279, 280, 281, 282, 283, 284, 285, 286, 287, 288, 289, 290, 291, 292, 293, 294, 295, 296, 297, 298, 299, 300, 301, 302, 303, 304, 305, 306, 307, 308, 309, 310, 311, 312, 313, 314, 315, 316, 317, 318, 319, 320, 321, 322, 323, 324, 325, 326, 327, 328, 329, 330, 331, 332, 333, 334, 335, 336, 337, 338, 339, 340, 341, 342, 343, 344, 345, 346, 347, 348, 349, 350, 351, 352, 353, 354, 355, 356, 357, 358, 359, 360, 361, 362, 363, 364, 365, 366, 367, 368, 369, 370, 371, 372, 373, 374, 375, 376, 377, 378, 379, 380, 381, 382, 383, 384, 385, 386, 387, 388, 389, 390, 391, 392, 393, 394, 395, 396, 397, 398, 399, 400, 401, 402, 403, 404, 405, 406, 407, 408, 409, 410, 411, 412, 413, 414, 415, 416, 417, 418, 419, 420, 421, 422, 423, 424, 425, 426, 427, 428, 429, 430, 431, 432, 433, 434, 435, 436, 437, 438, 439, 440, 441, 442, 443, 444, 445, 446, 447, 448, 449, 450, 451, 452, 453, 454, 455, 456, 457, 458, 459, 460, 461, 462, 463, 464, 465, 466, 467, 468, 469, 470, 471, 472, 473, 474, 475, 476, 477, 478, 479, 480, 481, 482, 483, 484, 485, 486, 487, 488, 489, 490, 491, 492, 493, 494, 495, 496, 497, 498, 499, 500, 501, 502, 503, 504, 505, 506, 507, 508, 509, 510, 511, 512, 513, 514, 515, 516, 517, 518, 519, 520, 521, 522, 523, 524, 525, 526, 527, 528, 529, 530, 531, 532, 533, 534, 535, 536, 537, 538, 539, 540, 541, 542, 543, 544, 545, 546, 547, 548, 549, 550, 551, 552, 553, 554, 555, 556, 557, 558, 559, 560, 561, 562, 563, 564, 565, 566, 567, 568, 569, 570, 571, 572, 573, 574, 575, 576, 577, 578, 579, 580, 581, 582, 583, 584, 585, 586, 587, 588, 589, 590, 591, 592, 593, 594, 595, 596, 597, 598, 599, 600, 601, 602, 603, 604, 605, 606, 607, 608, 609, 610, 611, 612, 613, 614, 615, 616, 617, 618, 619, 620, 621, 622, 623, 624, 625, 626, 627, 628, 629, 630, 631, 632, 633, 634, 635, 636, 637, 638, 639, 640, 641, 642, 643, 644, 645, 646, 647, 648, 649, 650, 651, 652, 653, 654, 655, 656, 657, 658, 659, 660, 661, 662, 663, 664, 665, 666, 667, 668, 669, 670, 671, 672, 673, 674, 675, 676, 677, 678, 679, 680, 681, 682, 683, 684, 685, 686, 687, 688, 689, 690, 691, 692, 693, 694, 695, 696, 697, 698, 699, 700, 701, 702, 703, 704, 705, 706, 707, 708, 709, 710, 711, 712, 713, 714, 715, 716, 717, 718, 719, 720, 721, 722, 723, 724, 725, 726, 727, 728, 729, 730, 731, 732, 733, 734, 735, 736, 737, 738, 739, 740, 741, 742, 743, 744, 745, 746, 747, 748, 749, 750, 751, 752, 753, 754, 755, 756, 757, 758, 759, 760, 761, 762, 763, 764, 765, 766, 767, 768, 769, 770, 771, 772, 773, 774, 775, 776, 777, 778, 779, 780, 781, 782, 783, 784, 785, 786, 787, 788, 789, 790, 791, 792, 793, 794, 795, 796, 797, 798, 799, 800, 801, 802, 803, 804, 805, 806, 807, 808, 809, 810, 811, 812, 813, 814, 815, 816, 817, 818, 819, 820, 821, 822, 823, 824, 825, 826, 827, 828, 829, 830, 831, 832, 833, 834, 835, 836, 837, 838, 839, 840, 841, 842, 843, 844, 845, 846, 847, 848, 849, 850, 851, 852, 853, 854, 855, 856, 857, 858, 859, 860, 861, 862, 863, 864, 865, 866, 867, 868, 869, 870, 871, 872],
      "AcquisitionTime": ["204712.220000", "204712.680000", "204713.140000", "204713.600000", "204714.060000", "204714.520000", "204714.980000", "204715.440000", "204715.900000", "204716.360000", "204716.820000", "204717.280000", "204717.740000", "204718.200000", "204718.660000", "204719.120000", "204719.580000", "204720.040000", "204720.500000", "204720.960000", "204721.420000", "204721.880000", "204722.340000", "204722.800000", "204723.260000", "204723.720000", "204724.180000", "204724.640000", "204725.100000", "204725.560000", "204726.020000", "204726.480000", "204726.940000", "204727.400000", "204727.860000", "204728.320000", "204728.780000", "204729.240000", "204729.700000", "204730.160000", "204730.620000", "204731.080000", "204731.540000", "204732.000000", "204732.460000", "204732.920000", "204733.380000", "204733.840000", "204734.300000", "204734.760000", "204735.220000", "204735.680000", "204736.140000", "204736.600000", "204737.060000", "204737.520000", "204737.980000", "204738.440000", "204738.900000", "204739.360000", "204739.820000", "204740.280000", "204740.740000", "204741.200000", "204741.660000", "204742.120000", "204742.580000", "204743.040000", "204743.500000", "204743.960000", "204744.420000", "204744.880000", "204745.340000", "204745.800000", "204746.260000", "204746.720000", "204747.180000", "204747.640000", "204748.100000", "204748.560000", "204749.020000", "204749.480000", "204749.940000", "204750.400000", "204750.860000", "204751.320000", "204751.780000", "204752.240000", "204752.700000", "204753.160000", "204753.620000", "204754.080000", "204754.540000", "204755.000000", "204755.460000", "204755.920000", "204756.380000", "204756.840000", "204757.300000", "204757.760000", "204758.220000", "204758.680000", "204759.140000", "204759.600000", "204800.060000", "204800.520000", "204800.980000", "204801.440000", "204801.900000", "204802.360000", "204802.820000", "204803.280000", "204803.740000", "204804.200000", "204804.660000", "204805.120000", "204805.580000", "204806.040000", "204806.500000", "204806.960000", "204807.420000", "204807.880000", "204808.340000", "204808.800000", "204809.260000", "204809.720000", "204810.180000", "204810.640000", "204811.100000", "204811.560000", "204812.020000", "204812.480000", "204812.940000", "204813.400000", "204813.860000", "204814.320000", "204814.780000", "204815.240000", "204815.700000", "204816.160000", "204816.620000", "204817.080000", "204817.540000", "204818.000000", "204818.460000", "204818.920000", "204819.380000", "204819.840000", "204820.300000", "204820.760000", "204821.220000", "204821.680000", "204822.140000", "204822.600000", "204823.060000", "204823.520000", "204823.980000", "204824.440000", "204824.900000", "204825.360000", "204825.820000", "204826.280000", "204826.740000", "204827.200000", "204827.660000", "204828.120000", "204828.580000", "204829.040000", "204829.500000", "204829.960000", "204830.420000", "204830.880000", "204831.340000", "204831.800000", "204832.260000", "204832.720000", "204833.180000", "204833.640000", "204834.100000", "204834.560000", "204835.020000", "204835.480000", "204835.940000", "204836.400000", "204836.860000", "204837.320000", "204837.780000", "204838.240000", "204838.700000", "204839.160000", "204839.620000", "204840.080000", "204840.540000", "204841.000000", "204841.460000", "204841.920000", "204842.380000", "204842.840000", "204843.300000", "204843.760000", "204844.220000", "204844.680000", "204845.140000", "204845.600000", "204846.060000", "204846.520000", "204846.980000", "204847.440000", "204847.900000", "204848.360000", "204848.820000", "204849.280000", "204849.740000", "204850.200000", "204850.660000", "204851.120000", "204851.580000", "204852.040000", "204852.500000", "204852.960000", "204853.420000", "204853.880000", "204854.340000", "204854.800000", "204855.260000", "204855.720000", "204856.180000", "204856.640000", "204857.100000", "204857.560000", "204858.020000", "204858.480000", "204858.940000", "204859.400000", "204859.860000", "204900.320000", "204900.780000", "204901.240000", "204901.700000", "204902.160000", "204902.620000", "204903.080000", "204903.540000", "204904.000000", "204904.460000", "204904.920000", "204905.380000", "204905.840000", "204906.300000", "204906.760000", "204907.220000", "204907.680000", "204908.140000", "204908.600000", "204909.060000", "204909.520000", "204909.980000", "204910.440000", "204910.900000", "204911.360000", "204911.820000", "204912.280000", "204912.740000", "204913.200000", "204913.660000", "204914.120000", "204914.580000", "204915.040000", "204915.500000", "204915.960000", "204916.420000", "204916.880000", "204917.340000", "204917.800000", "204918.260000", "204918.720000", "204919.180000", "204919.640000", "204920.100000", "204920.560000", "204921.020000", "204921.480000", "204921.940000", "204922.400000", "204922.860000", "204923.320000", "204923.780000", "204924.240000", "204924.700000", "204925.160000", "204925.620000", "204926.080000", "204926.540000", "204927.000000", "204927.460000", "204927.920000", "204928.380000", "204928.840000", "204929.300000", "204929.760000", "204930.220000", "204930.680000", "204931.140000", "204931.600000", "204932.060000", "204932.520000", "204932.980000", "204933.440000", "204933.900000", "204934.360000", "204934.820000", "204935.280000", "204935.740000", "204936.200000", "204936.660000", "204937.120000", "204937.580000", "204938.040000", "204938.500000", "204938.960000", "204939.420000", "204939.880000", "204940.340000", "204940.800000", "204941.260000", "204941.720000", "204942.180000", "204942.640000", "204943.100000", "204943.560000", "204944.020000", "204944.480000", "204944.940000", "204945.400000", "204945.860000", "204946.320000", "204946.780000", "204947.240000", "204947.700000", "204948.160000", "204948.620000", "204949.080000", "204949.540000", "204950.000000", "204950.460000", "204950.920000", "204951.380000", "204951.840000", "204952.300000", "204952.760000", "204953.220000", "204953.680000", "204954.140000", "204954.600000", "204955.060000", "204955.520000", "204955.980000", "204956.440000", "204956.900000", "204957.360000", "204957.820000", "204958.280000", "204958.740000", "204959.200000", "204959.660000", "205000.120000", "205000.580000", "205001.040000", "205001.500000", "205001.960000", "205002.420000", "205002.880000", "205003.340000", "205003.800000", "205004.260000", "205004.720000", "205005.180000", "205005.640000", "205006.100000", "205006.560000", "205007.020000", "205007.480000", "205007.940000", "205008.400000", "205008.860000", "205009.320000", "205009.780000", "205010.240000", "205010.700000", "205011.160000", "205011.620000", "205012.080000", "205012.540000", "205013.000000", "205013.460000", "205013.920000", "205014.380000", "205014.840000", "205015.300000", "205015.760000", "205016.220000", "205016.680000", "205017.140000", "205017.600000", "205018.060000", "205018.520000", "205018.980000", "205019.440000", "205019.900000", "205020.360000", "205020.820000", "205021.280000", "205021.740000", "205022.200000", "205022.660000", "205023.120000", "205023.580000", "205024.040000", "205024.500000", "205024.960000", "205025.420000", "205025.880000", "205026.340000", "205026.800000", "205027.260000", "205027.720000", "205028.180000", "205028.640000", "205029.100000", "205029.560000", "205030.020000", "205030.480000", "205030.940000", "205031.400000", "205031.860000", "205032.320000", "205032.780000", "205033.240000", "205033.700000", "205034.160000", "205034.620000", "205035.080000", "205035.540000", "205036.000000", "205036.460000", "205036.920000", "205037.380000", "205037.840000", "205038.300000", "205038.760000", "205039.220000", "205039.680000", "205040.140000", "205040.600000", "205041.060000", "205041.520000", "205041.980000", "205042.440000", "205042.900000", "205043.360000", "205043.820000", "205044.280000", "205044.740000", "205045.200000", "205045.660000", "205046.120000", "205046.580000", "205047.040000", "205047.500000", "205047.960000", "205048.420000", "205048.880000", "205049.340000", "205049.800000", "205050.260000", "205050.720000", "205051.180000", "205051.640000", "205052.100000", "205052.560000", "205053.020000", "205053.480000", "205053.940000", "205054.400000", "205054.860000", "205055.320000", "205055.780000", "205056.240000", "205056.700000", "205057.160000", "205057.620000", "205058.080000", "205058.540000", "205059.000000", "205059.460000", "205059.920000", "205100.380000", "205100.840000", "205101.300000", "205101.760000", "205102.220000", "205102.680000", "205103.140000", "205103.600000", "205104.060000", "205104.520000", "205104.980000", "205105.440000", "205105.900000", "205106.360000", "205106.820000", "205107.280000", "205107.740000", "205108.200000", "205108.660000", "205109.120000", "205109.580000", "205110.040000", "205110.500000", "205110.960000", "205111.420000", "205111.880000", "205112.340000", "205112.800000", "205113.260000", "205113.720000", "205114.180000", "205114.640000", "205115.100000", "205115.560000", "205116.020000", "205116.480000", "205116.940000", "205117.400000", "205117.860000", "205118.320000", "205118.780000", "205119.240000", "205119.700000", "205120.160000", "205120.620000", "205121.080000", "205121.540000", "205122.000000", "205122.460000", "205122.920000", "205123.380000", "205123.840000", "205124.300000", "205124.760000", "205125.220000", "205125.680000", "205126.140000", "205126.600000", "205127.060000", "205127.520000", "205127.980000", "205128.440000", "205128.900000", "205129.360000", "205129.820000", "205130.280000", "205130.740000", "205131.200000", "205131.660000", "205132.120000", "205132.580000", "205133.040000", "205133.500000", "205133.960000", "205134.420000", "205134.880000", "205135.340000", "205135.800000", "205136.260000", "205136.720000", "205137.180000", "205137.640000", "205138.100000", "205138.560000", "205139.020000", "205139.480000", "205139.940000", "205140.400000", "205140.860000", "205141.320000", "205141.780000", "205142.240000", "205142.700000", "205143.160000", "205143.620000", "205144.080000", "205144.540000", "205145.000000", "205145.460000", "205145.920000", "205146.380000", "205146.840000", "205147.300000", "205147.760000", "205148.220000", "205148.680000", "205149.140000", "205149.600000", "205150.060000", "205150.520000", "205150.980000", "205151.440000", "205151.900000", "205152.360000", "205152.820000", "205153.280000", "205153.740000", "205154.200000", "205154.660000", "205155.120000", "205155.580000", "205156.040000", "205156.500000", "205156.960000", "205157.420000", "205157.880000", "205158.340000", "205158.800000", "205159.260000", "205159.720000", "205200.180000", "205200.640000", "205201.100000", "205201.560000", "205202.020000", "205202.480000", "205202.940000", "205203.400000", "205203.860000", "205204.320000", "205204.780000", "205205.240000", "205205.700000", "205206.160000", "205206.620000", "205207.080000", "205207.540000", "205208.000000", "205208.460000", "205208.920000", "205209.380000", "205209.840000", "205210.300000", "205210.760000", "205211.220000", "205211.680000", "205212.140000", "205212.600000", "205213.060000", "205213.520000", "205213.980000", "205214.440000", "205214.900000", "205215.360000", "205215.820000", "205216.280000", "205216.740000", "205217.200000", "205217.660000", "205218.120000", "205218.580000", "205219.040000", "205219.500000", "205219.960000", "205220.420000", "205220.880000", "205221.340000", "205221.800000", "205222.260000", "205222.720000", "205223.180000", "205223.640000", "205224.100000", "205224.560000", "205225.020000", "205225.480000", "205225.940000", "205226.400000", "205226.860000", "205227.320000", "205227.780000", "205228.240000", "205228.700000", "205229.160000", "205229.620000", "205230.080000", "205230.540000", "205231.000000", "205231.460000", "205231.920000", "205232.380000", "205232.840000", "205233.300000", "205233.760000", "205234.220000", "205234.680000", "205235.140000", "205235.600000", "205236.060000", "205236.520000", "205236.980000", "205237.440000", "205237.900000", "205238.360000", "205238.820000", "205239.280000", "205239.740000", "205240.200000", "205240.660000", "205241.120000", "205241.580000", "205242.040000", "205242.500000", "205242.960000", "205243.420000", "205243.880000", "205244.340000", "205244.800000", "205245.260000", "205245.720000", "205246.180000", "205246.640000", "205247.100000", "205247.560000", "205248.020000", "205248.480000", "205248.940000", "205249.400000", "205249.860000", "205250.320000", "205250.780000", "205251.240000", "205251.700000", "205252.160000", "205252.620000", "205253.080000", "205253.540000", "205254.000000", "205254.460000", "205254.920000", "205255.380000", "205255.840000", "205256.300000", "205256.760000", "205257.220000", "205257.680000", "205258.140000", "205258.600000", "205259.060000", "205259.520000", "205259.980000", "205300.440000", "205300.900000", "205301.360000", "205301.820000", "205302.280000", "205302.740000", "205303.200000", "205303.660000", "205304.120000", "205304.580000", "205305.040000", "205305.500000", "205305.960000", "205306.420000", "205306.880000", "205307.340000", "205307.800000", "205308.260000", "205308.720000", "205309.180000", "205309.640000", "205310.100000", "205310.560000", "205311.020000", "205311.480000", "205311.940000", "205312.400000", "205312.860000", "205313.320000", "205313.780000", "205314.240000", "205314.700000", "205315.160000", "205315.620000", "205316.080000", "205316.540000", "205317.000000", "205317.460000", "205317.920000", "205318.380000", "205318.840000", "205319.300000", "205319.760000", "205320.220000", "205320.680000", "205321.140000", "205321.600000", "205322.060000", "205322.520000", "205322.980000", "205323.440000", "205323.900000", "205324.360000", "205324.820000", "205325.280000", "205325.740000", "205326.200000", "205326.660000", "205327.120000", "205327.580000", "205328.040000", "205328.500000", "205328.960000", "205329.420000", "205329.880000", "205330.340000", "205330.800000", "205331.260000", "205331.720000", "205332.180000", "205332.640000", "205333.100000", "205333.560000", "205334.020000", "205334.480000", "205334.940000", "205335.400000", "205335.860000", "205336.320000", "205336.780000", "205337.240000", "205337.700000", "205338.160000", "205338.620000", "205339.080000", "205339.540000", "205340.000000", "205340.460000", "205340.920000", "205341.380000", "205341.840000", "205342.300000", "205342.760000", "205343.220000", "205343.680000", "205344.140000", "205344.600000", "205345.060000", "205345.520000", "205345.980000", "205346.440000", "205346.900000", "205347.360000", "205347.820000", "205348.280000", "205348.740000", "205349.200000", "205349.660000", "205350.120000", "205350.580000", "205351.040000", "205351.500000", "205351.960000", "205352.420000", "205352.880000"],
