{
  "AcquisitionMatrixPE": 82,
  "AcquisitionNumber": 1,
  "AcquisitionTime": "21:38:1.920000",
  "BandwidthPerPixelPhaseEncode": 24.888,
  "BaseResolution": 82,
  "BodyPartExamined": "BRAIN",
  "ConsistencyInfo": "N4_VE11E_LATEST_20181129",
  "ConversionSoftware": "dcm2niix",
  "ConversionSoftwareVersion": "v1.0.20201102",
  "DerivedVendorReportedEchoSpacing": 0.00049,
  "DeviceSerialNumber": "66112",
  "DwellTime": 2e-06,
  "EchoTime": 0.0272,
  "EchoTrainLength": 82,
  "EffectiveEchoSpacing": 0.00049,
  "FlipAngle": 44,
  "ImageComments": "Unaliased MB8/PE3",
  "ImageOrientationPatientDICOM": [0.998666, -0.00338627, -0.0515294, 0.000522822, 0.99846, -0.0554815],
  "ImageType": [
    "ORIGINAL",
    "PRIMARY",
    "M",
    "MB",
    "ND",
    "NORM",
    "MOSAIC"
],
  "ImagingFrequency": 123.259,
  "InPlanePhaseEncodingDirectionDICOM": "COL",
  "InstitutionAddress": "Maynard 3,Hanover,NH,US,03755",
  "InstitutionName": "Dartmouth College - PBS",
  "InstitutionalDepartmentName": "Department",
  "MRAcquisitionType": "2D",
  "MagneticFieldStrength": 3,
  "Manufacturer": "Siemens",
  "ManufacturersModelName": "Prisma",
  "Modality": "MR",
  "MultibandAccelerationFactor": 8,
  "PartialFourier": 1,
  "PatientPosition": "HFS",
  "PercentPhaseFOV": 100,
  "PercentSampling": 100,
  "PhaseEncodingDirection": "j-",
  "PhaseEncodingSteps": 82,
  "PhaseResolution": 1,
  "PixelBandwidth": 3050,
  "ProcedureStepDescription": "Wager_Wager^1076_spacetop",
  "ProtocolName": "func_run-02_task-alignvideo_acq-ap-mb8",
  "PulseSequenceDetails": "%CustomerSeq%\\cmrr_mbep2d_bold",
  "ReceiveCoilActiveElements": "HEA;HEP",
  "ReceiveCoilName": "Head_32",
  "ReconMatrixPE": 82,
  "RepetitionTime": 0.46,
  "SAR": 0.0877921,
  "ScanOptions": "FS",
  "ScanningSequence": "EP",
  "SequenceName": "epfid2d1_82",
  "SequenceVariant": "SK\\SS",
  "SeriesDescription": "func_run-02_task-alignvideo_acq-ap-mb8",
  "SeriesNumber": 32,
  "ShimSetting": [4200, -7750, -7242, 260, -199, 112, -78, 128],
  "SliceThickness": 2.7,
  "SliceTiming": [0, 0.25, 0.0625, 0.3125, 0.125, 0.375, 0.1875, 0, 0.25, 0.0625, 0.3125, 0.125, 0.375, 0.1875, 0, 0.25, 0.0625, 0.3125, 0.125, 0.375, 0.1875, 0, 0.25, 0.0625, 0.3125, 0.125, 0.375, 0.1875, 0, 0.25, 0.0625, 0.3125, 0.125, 0.375, 0.1875, 0, 0.25, 0.0625, 0.3125, 0.125, 0.375, 0.1875, 0, 0.25, 0.0625, 0.3125, 0.125, 0.375, 0.1875, 0, 0.25, 0.0625, 0.3125, 0.125, 0.375, 0.1875],
  "SoftwareVersions": "syngo MR E11",
  "SpacingBetweenSlices": 2.7,
  "StationName": "AWP66112",
  "TaskName": "alignvideo",
  "TotalReadoutTime": 0.03969,
  "TxRefAmp": 248.836,
  "WipMemBlock": "57918481-9f4d-40fe-9a54-ce8ef1f87651||Sequence: R016 ve11e/master r/434b28f1; Aug  7 2019 18:53:46 by eja",
  "dcmmeta_affine": [
    [-2.679347276687622, 0.0014026928693056107, -0.13942241668701172, 116.70128631591797],
    [0.009085113182663918, 2.6787941455841064, -0.14952737092971802, -99.59321594238281],
    [-0.1382496953010559, 0.14885273575782776, 2.692248582839966, -90.7495346069336],
    [0.0, 0.0, 0.0, 1.0]
],
  "dcmmeta_reorient_transform": [
    [0.0, -1.0, 0.0, 81.0],
    [1.0, 0.0, 0.0, 0.0],
    [0.0, 0.0, 1.0, 0.0],
    [0.0, 0.0, 0.0, 1.0]
],
  "dcmmeta_shape": [82, 82, 56, 926],
  "dcmmeta_slice_dim": 2,
  "dcmmeta_version": 0.6,
  "global": {
    "const": {
      "AccessionNumber": "A004877",
      "AcquisitionMatrix": [82, 0, 0, 82],
      "AngioFlag": "N",
      "BitsAllocated": 16,
      "BitsStored": 16,
      "BodyPartExamined": "BRAIN",
      "Columns": 656,
      "EchoNumbers": 1,
      "EchoTime": 27.2,
      "EchoTrainLength": 82,
      "FlipAngle": 44.0,
      "HighBit": 15,
      "ImageOrientationPatient": [0.9986657352416, -0.0033862694892, -0.0515294326894, 0.00052282189672, 0.9984595798839, -0.0554814743436],
      "ImagePositionPatient": [-886.19011079143, -883.59557145078, 3.7059392403872],
      "ImageType": [
        "ORIGINAL",
        "PRIMARY",
        "M",
        "MB",
        "ND",
        "NORM",
        "MOSAIC"
],
      "ImagedNucleus": "1H",
      "ImagingFrequency": 123.259121,
      "InPlanePhaseEncodingDirection": "COL",
      "MRAcquisitionType": "2D",
      "MagneticFieldStrength": 3.0,
      "Manufacturer": "SIEMENS",
      "ManufacturerModelName": "Prisma",
      "Modality": "MR",
      "NumberOfAverages": 1.0,
      "NumberOfPhaseEncodingSteps": 82,
      "PercentPhaseFieldOfView": 100.0,
      "PercentSampling": 100.0,
      "PerformedProcedureStepStartTime": "200052.045000",
      "PhotometricInterpretation": "MONOCHROME2",
      "PixelBandwidth": 3050.0,
      "PixelRepresentation": 0,
      "PixelSpacing": [2.6829268932343, 2.6829268932343],
      "ProtocolName": "func_run-02_task-alignvideo_acq-ap-mb8",
      "RepetitionTime": 460.0,
      "Rows": 656,
      "SAR": 0.08779210342072,
      "SamplesPerPixel": 1,
      "ScanOptions": "FS",
      "ScanningSequence": "EP",
      "SequenceName": "epfid2d1_82",
      "SequenceVariant": [
        "SK",
        "SS"
],
      "SeriesDescription": "func_run-02_task-alignvideo_acq-ap-mb8",
      "SeriesNumber": 32,
      "SeriesTime": "213828.384000",
      "SliceLocation": -90.999694150887,
      "SliceThickness": 2.7000000476837,
      "SmallestImagePixelValue": 0,
      "SoftwareVersions": "syngo MR E11",
      "SpacingBetweenSlices": 2.6999999935022,
      "SpecificCharacterSet": "ISO_IR 100",
      "StudyID": "3",
      "StudyTime": "200051.993000",
      "TransmitCoilName": "Body",
      "VariableFlipAngleFlag": "N",
      "WindowCenterWidthExplanation": "Algo1"
    },
    "slices": {}
  },
  "time": {
    "samples": {
      "AcquisitionNumber": [1, 2, 3, 4, 5, 6, 7, 8, 9, 10, 11, 12, 13, 14, 15, 16, 17, 18, 19, 20, 21, 22, 23, 24, 25, 26, 27, 28, 29, 30, 31, 32, 33, 34, 35, 36, 37, 38, 39, 40, 41, 42, 43, 44, 45, 46, 47, 48, 49, 50, 51, 52, 53, 54, 55, 56, 57, 58, 59, 60, 61, 62, 63, 64, 65, 66, 67, 68, 69, 70, 71, 72, 73, 74, 75, 76, 77, 78, 79, 80, 81, 82, 83, 84, 85, 86, 87, 88, 89, 90, 91, 92, 93, 94, 95, 96, 97, 98, 99, 100, 101, 102, 103, 104, 105, 106, 107, 108, 109, 110, 111, 112, 113, 114, 115, 116, 117, 118, 119, 120, 121, 122, 123, 124, 125, 126, 127, 128, 129, 130, 131, 132, 133, 134, 135, 136, 137, 138, 139, 140, 141, 142, 143, 144, 145, 146, 147, 148, 149, 150, 151, 152, 153, 154, 155, 156, 157, 158, 159, 160, 161, 162, 163, 164, 165, 166, 167, 168, 169, 170, 171, 172, 173, 174, 175, 176, 177, 178, 179, 180, 181, 182, 183, 184, 185, 186, 187, 188, 189, 190, 191, 192, 193, 194, 195, 196, 197, 198, 199, 200, 201, 202, 203, 204, 205, 206, 207, 208, 209, 210, 211, 212, 213, 214, 215, 216, 217, 218, 219, 220, 221, 222, 223, 224, 225, 226, 227, 228, 229, 230, 231, 232, 233, 234, 235, 236, 237, 238, 239, 240, 241, 242, 243, 244, 245, 246, 247, 248, 249, 250, 251, 252, 253, 254, 255, 256, 257, 258, 259, 260, 261, 262, 263, 264, 265, 266, 267, 268, 269, 270, 271, 272, 273, 274, 275, 276, 277, 278, 279, 280, 281, 282, 283, 284, 285, 286, 287, 288, 289, 290, 291, 292, 293, 294, 295, 296, 297, 298, 299, 300, 301, 302, 303, 304, 305, 306, 307, 308, 309, 310, 311, 312, 313, 314, 315, 316, 317, 318, 319, 320, 321, 322, 323, 324, 325, 326, 327, 328, 329, 330, 331, 332, 333, 334, 335, 336, 337, 338, 339, 340, 341, 342, 343, 344, 345, 346, 347, 348, 349, 350, 351, 352, 353, 354, 355, 356, 357, 358, 359, 360, 361, 362, 363, 364, 365, 366, 367, 368, 369, 370, 371, 372, 373, 374, 375, 376, 377, 378, 379, 380, 381, 382, 383, 384, 385, 386, 387, 388, 389, 390, 391, 392, 393, 394, 395, 396, 397, 398, 399, 400, 401, 402, 403, 404, 405, 406, 407, 408, 409, 410, 411, 412, 413, 414, 415, 416, 417, 418, 419, 420, 421, 422, 423, 424, 425, 426, 427, 428, 429, 430, 431, 432, 433, 434, 435, 436, 437, 438, 439, 440, 441, 442, 443, 444, 445, 446, 447, 448, 449, 450, 451, 452, 453, 454, 455, 456, 457, 458, 459, 460, 461, 462, 463, 464, 465, 466, 467, 468, 469, 470, 471, 472, 473, 474, 475, 476, 477, 478, 479, 480, 481, 482, 483, 484, 485, 486, 487, 488, 489, 490, 491, 492, 493, 494, 495, 496, 497, 498, 499, 500, 501, 502, 503, 504, 505, 506, 507, 508, 509, 510, 511, 512, 513, 514, 515, 516, 517, 518, 519, 520, 521, 522, 523, 524, 525, 526, 527, 528, 529, 530, 531, 532, 533, 534, 535, 536, 537, 538, 539, 540, 541, 542, 543, 544, 545, 546, 547, 548, 549, 550, 551, 552, 553, 554, 555, 556, 557, 558, 559, 560, 561, 562, 563, 564, 565, 566, 567, 568, 569, 570, 571, 572, 573, 574, 575, 576, 577, 578, 579, 580, 581, 582, 583, 584, 585, 586, 587, 588, 589, 590, 591, 592, 593, 594, 595, 596, 597, 598, 599, 600, 601, 602, 603, 604, 605, 606, 607, 608, 609, 610, 611, 612, 613, 614, 615, 616, 617, 618, 619, 620, 621, 622, 623, 624, 625, 626, 627, 628, 629, 630, 631, 632, 633, 634, 635, 636, 637, 638, 639, 640, 641, 642, 643, 644, 645, 646, 647, 648, 649, 650, 651, 652, 653, 654, 655, 656, 657, 658, 659, 660, 661, 662, 663, 664, 665, 666, 667, 668, 669, 670, 671, 672, 673, 674, 675, 676, 677, 678, 679, 680, 681, 682, 683, 684, 685, 686, 687, 688, 689, 690, 691, 692, 693, 694, 695, 696, 697, 698, 699, 700, 701, 702, 703, 704, 705, 706, 707, 708, 709, 710, 711, 712, 713, 714, 715, 716, 717, 718, 719, 720, 721, 722, 723, 724, 725, 726, 727, 728, 729, 730, 731, 732, 733, 734, 735, 736, 737, 738, 739, 740, 741, 742, 743, 744, 745, 746, 747, 748, 749, 750, 751, 752, 753, 754, 755, 756, 757, 758, 759, 760, 761, 762, 763, 764, 765, 766, 767, 768, 769, 770, 771, 772, 773, 774, 775, 776, 777, 778, 779, 780, 781, 782, 783, 784, 785, 786, 787, 788, 789, 790, 791, 792, 793, 794, 795, 796, 797, 798, 799, 800, 801, 802, 803, 804, 805, 806, 807, 808, 809, 810, 811, 812, 813, 814, 815, 816, 817, 818, 819, 820, 821, 822, 823, 824, 825, 826, 827, 828, 829, 830, 831, 832, 833, 834, 835, 836, 837, 838, 839, 840, 841, 842, 843, 844, 845, 846, 847, 848, 849, 850, 851, 852, 853, 854, 855, 856, 857, 858, 859, 860, 861, 862, 863, 864, 865, 866, 867, 868, 869, 870, 871, 872, 873, 874, 875, 876, 877, 878, 879, 880, 881, 882, 883, 884, 885, 886, 887, 888, 889, 890, 891, 892, 893, 894, 895, 896, 897, 898, 899, 900, 901, 902, 903, 904, 905, 906, 907, 908, 909, 910, 911, 912, 913, 914, 915, 916, 917, 918, 919, 920, 921, 922, 923, 924, 925, 926],
      "AcquisitionTime": ["213801.920000", "213802.380000", "213802.840000", "213803.300000", "213803.760000", "213804.220000", "213804.680000", "213805.140000", "213805.600000", "213806.060000", "213806.520000", "213806.980000", "213807.440000", "213807.900000", "213808.360000", "213808.820000", "213809.280000", "213809.740000", "213810.200000", "213810.660000", "213811.120000", "213811.580000", "213812.040000", "213812.500000", "213812.960000", "213813.420000", "213813.880000", "213814.340000", "213814.800000", "213815.260000", "213815.720000", "213816.180000", "213816.640000", "213817.100000", "213817.560000", "213818.020000", "213818.480000", "213818.940000", "213819.400000", "213819.860000", "213820.320000", "213820.780000", "213821.240000", "213821.700000", "213822.160000", "213822.620000", "213823.080000", "213823.540000", "213824.000000", "213824.460000", "213824.920000", "213825.380000", "213825.840000", "213826.300000", "213826.760000", "213827.220000", "213827.680000", "213828.140000", "213828.600000", "213829.060000", "213829.520000", "213829.980000", "213830.440000", "213830.900000", "213831.360000", "213831.820000", "213832.280000", "213832.740000", "213833.200000", "213833.660000", "213834.120000", "213834.580000", "213835.040000", "213835.500000", "213835.960000", "213836.420000", "213836.880000", "213837.340000", "213837.800000", "213838.260000", "213838.720000", "213839.180000", "213839.640000", "213840.100000", "213840.560000", "213841.020000", "213841.480000", "213841.940000", "213842.400000", "213842.860000", "213843.320000", "213843.780000", "213844.240000", "213844.700000", "213845.160000", "213845.620000", "213846.080000", "213846.540000", "213847.000000", "213847.460000", "213847.920000", "213848.380000", "213848.840000", "213849.300000", "213849.760000", "213850.220000", "213850.680000", "213851.140000", "213851.600000", "213852.060000", "213852.520000", "213852.980000", "213853.440000", "213853.900000", "213854.360000", "213854.820000", "213855.280000", "213855.740000", "213856.200000", "213856.660000", "213857.120000", "213857.580000", "213858.040000", "213858.500000", "213858.960000", "213859.420000", "213859.880000", "213900.340000", "213900.800000", "213901.260000", "213901.720000", "213902.180000", "213902.640000", "213903.100000", "213903.560000", "213904.020000", "213904.480000", "213904.940000", "213905.400000", "213905.860000", "213906.320000", "213906.780000", "213907.240000", "213907.700000", "213908.160000", "213908.620000", "213909.080000", "213909.540000", "213910.000000", "213910.460000", "213910.920000", "213911.380000", "213911.840000", "213912.300000", "213912.760000", "213913.220000", "213913.680000", "213914.140000", "213914.600000", "213915.060000", "213915.520000", "213915.980000", "213916.440000", "213916.900000", "213917.360000", "213917.820000", "213918.280000", "213918.740000", "213919.200000", "213919.660000", "213920.120000", "213920.580000", "213921.040000", "213921.500000", "213921.960000", "213922.420000", "213922.880000", "213923.340000", "213923.800000", "213924.260000", "213924.720000", "213925.180000", "213925.640000", "213926.100000", "213926.560000", "213927.020000", "213927.480000", "213927.940000", "213928.400000", "213928.860000", "213929.320000", "213929.780000", "213930.240000", "213930.700000", "213931.160000", "213931.620000", "213932.080000", "213932.540000", "213933.000000", "213933.460000", "213933.920000", "213934.380000", "213934.840000", "213935.300000", "213935.760000", "213936.220000", "213936.680000", "213937.140000", "213937.600000", "213938.060000", "213938.520000", "213938.980000", "213939.440000", "213939.900000", "213940.360000", "213940.820000", "213941.280000", "213941.740000", "213942.200000", "213942.660000", "213943.120000", "213943.580000", "213944.040000", "213944.500000", "213944.960000", "213945.420000", "213945.880000", "213946.340000", "213946.800000", "213947.260000", "213947.720000", "213948.180000", "213948.640000", "213949.100000", "213949.560000", "213950.020000", "213950.480000", "213950.940000", "213951.400000", "213951.860000", "213952.320000", "213952.780000", "213953.240000", "213953.700000", "213954.160000", "213954.620000", "213955.080000", "213955.540000", "213956.000000", "213956.460000", "213956.920000", "213957.380000", "213957.840000", "213958.300000", "213958.760000", "213959.220000", "213959.680000", "214000.140000", "214000.600000", "214001.060000", "214001.520000", "214001.980000", "214002.440000", "214002.900000", "214003.360000", "214003.820000", "214004.280000", "214004.740000", "214005.200000", "214005.660000", "214006.120000", "214006.580000", "214007.040000", "214007.500000", "214007.960000", "214008.420000", "214008.880000", "214009.340000", "214009.800000", "214010.260000", "214010.720000", "214011.180000", "214011.640000", "214012.100000", "214012.560000", "214013.020000", "214013.480000", "214013.940000", "214014.400000", "214014.860000", "214015.320000", "214015.780000", "214016.240000", "214016.700000", "214017.160000", "214017.620000", "214018.080000", "214018.540000", "214019.000000", "214019.460000", "214019.920000", "214020.380000", "214020.840000", "214021.300000", "214021.760000", "214022.220000", "214022.680000", "214023.140000", "214023.600000", "214024.060000", "214024.520000", "214024.980000", "214025.440000", "214025.900000", "214026.360000", "214026.820000", "214027.280000", "214027.740000", "214028.200000", "214028.660000", "214029.120000", "214029.580000", "214030.040000", "214030.500000", "214030.960000", "214031.420000", "214031.880000", "214032.340000", "214032.800000", "214033.260000", "214033.720000", "214034.180000", "214034.640000", "214035.100000", "214035.560000", "214036.020000", "214036.480000", "214036.940000", "214037.400000", "214037.860000", "214038.320000", "214038.780000", "214039.240000", "214039.700000", "214040.160000", "214040.620000", "214041.080000", "214041.540000", "214042.000000", "214042.460000", "214042.920000", "214043.380000", "214043.840000", "214044.300000", "214044.760000", "214045.220000", "214045.680000", "214046.140000", "214046.600000", "214047.060000", "214047.520000", "214047.980000", "214048.440000", "214048.900000", "214049.360000", "214049.820000", "214050.280000", "214050.740000", "214051.200000", "214051.660000", "214052.120000", "214052.580000", "214053.040000", "214053.500000", "214053.960000", "214054.420000", "214054.880000", "214055.340000", "214055.800000", "214056.260000", "214056.720000", "214057.180000", "214057.640000", "214058.100000", "214058.560000", "214059.020000", "214059.480000", "214059.940000", "214100.400000", "214100.860000", "214101.320000", "214101.780000", "214102.240000", "214102.700000", "214103.160000", "214103.620000", "214104.080000", "214104.540000", "214105.000000", "214105.460000", "214105.920000", "214106.380000", "214106.840000", "214107.300000", "214107.760000", "214108.220000", "214108.680000", "214109.140000", "214109.600000", "214110.060000", "214110.520000", "214110.980000", "214111.440000", "214111.900000", "214112.360000", "214112.820000", "214113.280000", "214113.740000", "214114.200000", "214114.660000", "214115.120000", "214115.580000", "214116.040000", "214116.500000", "214116.960000", "214117.420000", "214117.880000", "214118.340000", "214118.800000", "214119.260000", "214119.720000", "214120.180000", "214120.640000", "214121.100000", "214121.560000", "214122.020000", "214122.480000", "214122.940000", "214123.400000", "214123.860000", "214124.320000", "214124.780000", "214125.240000", "214125.700000", "214126.160000", "214126.620000", "214127.080000", "214127.540000", "214128.000000", "214128.460000", "214128.920000", "214129.380000", "214129.840000", "214130.300000", "214130.760000", "214131.220000", "214131.680000", "214132.140000", "214132.600000", "214133.060000", "214133.520000", "214133.980000", "214134.440000", "214134.900000", "214135.360000", "214135.820000", "214136.280000", "214136.740000", "214137.200000", "214137.660000", "214138.120000", "214138.580000", "214139.040000", "214139.500000", "214139.960000", "214140.420000", "214140.880000", "214141.340000", "214141.800000", "214142.260000", "214142.720000", "214143.180000", "214143.640000", "214144.100000", "214144.560000", "214145.020000", "214145.480000", "214145.940000", "214146.400000", "214146.860000", "214147.320000", "214147.780000", "214148.240000", "214148.700000", "214149.160000", "214149.620000", "214150.080000", "214150.540000", "214151.000000", "214151.460000", "214151.920000", "214152.380000", "214152.840000", "214153.300000", "214153.760000", "214154.220000", "214154.680000", "214155.140000", "214155.600000", "214156.060000", "214156.520000", "214156.980000", "214157.440000", "214157.900000", "214158.360000", "214158.820000", "214159.280000", "214159.740000", "214200.200000", "214200.660000", "214201.120000", "214201.580000", "214202.040000", "214202.500000", "214202.960000", "214203.420000", "214203.880000", "214204.340000", "214204.800000", "214205.260000", "214205.720000", "214206.180000", "214206.640000", "214207.100000", "214207.560000", "214208.020000", "214208.480000", "214208.940000", "214209.400000", "214209.860000", "214210.320000", "214210.780000", "214211.240000", "214211.700000", "214212.160000", "214212.620000", "214213.080000", "214213.540000", "214214.000000", "214214.460000", "214214.920000", "214215.380000", "214215.840000", "214216.300000", "214216.760000", "214217.220000", "214217.680000", "214218.140000", "214218.600000", "214219.060000", "214219.520000", "214219.980000", "214220.440000", "214220.900000", "214221.360000", "214221.820000", "214222.280000", "214222.740000", "214223.200000", "214223.660000", "214224.120000", "214224.580000", "214225.040000", "214225.500000", "214225.960000", "214226.420000", "214226.880000", "214227.340000", "214227.800000", "214228.260000", "214228.720000", "214229.180000", "214229.640000", "214230.100000", "214230.560000", "214231.020000", "214231.480000", "214231.940000", "214232.400000", "214232.860000", "214233.320000", "214233.780000", "214234.240000", "214234.700000", "214235.160000", "214235.620000", "214236.080000", "214236.540000", "214237.000000", "214237.460000", "214237.920000", "214238.380000", "214238.840000", "214239.300000", "214239.760000", "214240.220000", "214240.680000", "214241.140000", "214241.600000", "214242.060000", "214242.520000", "214242.980000", "214243.440000", "214243.900000", "214244.360000", "214244.820000", "214245.280000", "214245.740000", "214246.200000", "214246.660000", "214247.120000", "214247.580000", "214248.040000", "214248.500000", "214248.960000", "214249.420000", "214249.880000", "214250.340000", "214250.800000", "214251.260000", "214251.720000", "214252.180000", "214252.640000", "214253.100000", "214253.560000", "214254.020000", "214254.480000", "214254.940000", "214255.400000", "214255.860000", "214256.320000", "214256.780000", "214257.240000", "214257.700000", "214258.160000", "214258.620000", "214259.080000", "214259.540000", "214300.000000", "214300.460000", "214300.920000", "214301.380000", "214301.840000", "214302.300000", "214302.760000", "214303.220000", "214303.680000", "214304.140000", "214304.600000", "214305.060000", "214305.520000", "214305.980000", "214306.440000", "214306.900000", "214307.360000", "214307.820000", "214308.280000", "214308.740000", "214309.200000", "214309.660000", "214310.120000", "214310.580000", "214311.040000", "214311.500000", "214311.960000", "214312.420000", "214312.880000", "214313.340000", "214313.800000", "214314.260000", "214314.720000", "214315.180000", "214315.640000", "214316.100000", "214316.560000", "214317.020000", "214317.480000", "214317.940000", "214318.400000", "214318.860000", "214319.320000", "214319.780000", "214320.240000", "214320.700000", "214321.160000", "214321.620000", "214322.080000", "214322.540000", "214323.000000", "214323.460000", "214323.920000", "214324.380000", "214324.840000", "214325.300000", "214325.760000", "214326.220000", "214326.680000", "214327.140000", "214327.600000", "214328.060000", "214328.520000", "214328.980000", "214329.440000", "214329.900000", "214330.360000", "214330.820000", "214331.280000", "214331.740000", "214332.200000", "214332.660000", "214333.120000", "214333.580000", "214334.040000", "214334.500000", "214334.960000", "214335.420000", "214335.880000", "214336.340000", "214336.800000", "214337.260000", "214337.720000", "214338.180000", "214338.640000", "214339.100000", "214339.560000", "214340.020000", "214340.480000", "214340.940000", "214341.400000", "214341.860000", "214342.320000", "214342.780000", "214343.240000", "214343.700000", "214344.160000", "214344.620000", "214345.080000", "214345.540000", "214346.000000", "214346.460000", "214346.920000", "214347.380000", "214347.840000", "214348.300000", "214348.760000", "214349.220000", "214349.680000", "214350.140000", "214350.600000", "214351.060000", "214351.520000", "214351.980000", "214352.440000", "214352.900000", "214353.360000", "214353.820000", "214354.280000", "214354.740000", "214355.200000", "214355.660000", "214356.120000", "214356.580000", "214357.040000", "214357.500000", "214357.960000", "214358.420000", "214358.880000", "214359.340000", "214359.800000", "214400.260000", "214400.720000", "214401.180000", "214401.640000", "214402.100000", "214402.560000", "214403.020000", "214403.480000", "214403.940000", "214404.400000", "214404.860000", "214405.320000", "214405.780000", "214406.240000", "214406.700000", "214407.160000", "214407.620000", "214408.080000", "214408.540000", "214409.000000", "214409.460000", "214409.920000", "214410.380000", "214410.840000", "214411.300000", "214411.760000", "214412.220000", "214412.680000", "214413.140000", "214413.600000", "214414.060000", "214414.520000", "214414.980000", "214415.440000", "214415.900000", "214416.360000", "214416.820000", "214417.280000", "214417.740000", "214418.200000", "214418.660000", "214419.120000", "214419.580000", "214420.040000", "214420.500000", "214420.960000", "214421.420000", "214421.880000", "214422.340000", "214422.800000", "214423.260000", "214423.720000", "214424.180000", "214424.640000", "214425.100000", "214425.560000", "214426.020000", "214426.480000", "214426.940000", "214427.400000", "214427.860000", "214428.320000", "214428.780000", "214429.240000", "214429.700000", "214430.160000", "214430.620000", "214431.080000", "214431.540000", "214432.000000", "214432.460000", "214432.920000", "214433.380000", "214433.840000", "214434.300000", "214434.760000", "214435.220000", "214435.680000", "214436.140000", "214436.600000", "214437.060000", "214437.520000", "214437.980000", "214438.440000", "214438.900000", "214439.360000", "214439.820000", "214440.280000", "214440.740000", "214441.200000", "214441.660000", "214442.120000", "214442.580000", "214443.040000", "214443.500000", "214443.960000", "214444.420000", "214444.880000", "214445.340000", "214445.800000", "214446.260000", "214446.720000", "214447.180000", "214447.640000", "214448.100000", "214448.560000", "214449.020000", "214449.480000", "214449.940000", "214450.400000", "214450.860000", "214451.320000", "214451.780000", "214452.240000", "214452.700000", "214453.160000", "214453.620000", "214454.080000", "214454.540000", "214455.000000", "214455.460000", "214455.920000", "214456.380000", "214456.840000", "214457.300000", "214457.760000", "214458.220000", "214458.680000", "214459.140000", "214459.600000", "214500.060000", "214500.520000", "214500.980000", "214501.440000", "214501.900000", "214502.360000", "214502.820000", "214503.280000", "214503.740000", "214504.200000", "214504.660000", "214505.120000", "214505.580000", "214506.040000", "214506.500000", "214506.960000", "214507.420000"],
