{
  "AcquisitionMatrixPE": 82,
  "AcquisitionNumber": 1,
  "AcquisitionTime": "15:58:59.370000",
  "BandwidthPerPixelPhaseEncode": 24.888,
  "BaseResolution": 82,
  "BodyPartExamined": "BRAIN",
  "ConsistencyInfo": "N4_VE11E_LATEST_20181129",
  "ConversionSoftware": "dcm2niix",
  "ConversionSoftwareVersion": "v1.0.20201102",
  "DerivedVendorReportedEchoSpacing": 0.00049,
  "DeviceSerialNumber": "66112",
  "DwellTime": 2e-06,
  "EchoTime": 0.0272,
  "EchoTrainLength": 82,
  "EffectiveEchoSpacing": 0.00049,
  "FlipAngle": 44,
  "ImageComments": "Unaliased MB8/PE3",
  "ImageOrientationPatientDICOM": [0.988788, 0.123504, -0.0839404, -0.118081, 0.990756, 0.0667743],
  "ImageType": [
    "ORIGINAL",
    "PRIMARY",
    "M",
    "MB",
    "ND",
    "NORM",
    "MOSAIC"
],
  "ImagingFrequency": 123.252,
  "InPlanePhaseEncodingDirectionDICOM": "COL",
  "InstitutionAddress": "Maynard 3,Hanover,NH,US,03755",
  "InstitutionName": "Dartmouth College - PBS",
  "InstitutionalDepartmentName": "Department",
  "MRAcquisitionType": "2D",
  "MagneticFieldStrength": 3,
  "Manufacturer": "Siemens",
  "ManufacturersModelName": "Prisma",
  "Modality": "MR",
  "MultibandAccelerationFactor": 8,
  "PartialFourier": 1,
  "PatientPosition": "HFS",
  "PercentPhaseFOV": 100,
  "PercentSampling": 100,
  "PhaseEncodingDirection": "j-",
  "PhaseEncodingSteps": 82,
  "PhaseResolution": 1,
  "PixelBandwidth": 3050,
  "ProcedureStepDescription": "Wager_Wager^1076_spacetop",
  "ProtocolName": "func_run-06_task-social_acq-ap-mb8",
  "PulseSequenceDetails": "%CustomerSeq%\\cmrr_mbep2d_bold",
  "ReceiveCoilActiveElements": "HEA;HEP",
  "ReceiveCoilName": "Head_32",
  "ReconMatrixPE": 82,
  "RepetitionTime": 0.46,
  "SAR": 0.0924284,
  "ScanOptions": "FS",
  "ScanningSequence": "EP",
  "SequenceName": "epfid2d1_82",
  "SequenceVariant": "SK\\SS",
  "SeriesDescription": "func_run-06_task-social_acq-ap-mb8",
  "SeriesNumber": 22,
  "ShimSetting": [4110, -7715, -7308, 549, -10, -67, 65, 48],
  "SliceThickness": 2.7,
  "SliceTiming": [0, 0.25, 0.0625, 0.3125, 0.125, 0.3775, 0.1875, 0, 0.25, 0.0625, 0.3125, 0.125, 0.3775, 0.1875, 0, 0.25, 0.0625, 0.3125, 0.125, 0.3775, 0.1875, 0, 0.25, 0.0625, 0.3125, 0.125, 0.3775, 0.1875, 0, 0.25, 0.0625, 0.3125, 0.125, 0.3775, 0.1875, 0, 0.25, 0.0625, 0.3125, 0.125, 0.3775, 0.1875, 0, 0.25, 0.0625, 0.3125, 0.125, 0.3775, 0.1875, 0, 0.25, 0.0625, 0.3125, 0.125, 0.3775, 0.1875],
  "SoftwareVersions": "syngo MR E11",
  "SpacingBetweenSlices": 2.7,
  "StationName": "AWP66112",
  "TaskName": "social",
  "TotalReadoutTime": 0.03969,
  "TxRefAmp": 250.893,
  "WipMemBlock": "cb033d0a-b1cb-4961-88fe-641530611e82||Sequence: R016 ve11e/master r/434b28f1; Aug  7 2019 18:53:46 by eja",
  "dcmmeta_affine": [
    [-2.6528446674346924, -0.3168022930622101, -0.2468107044696808, 134.1791229248047],
    [-0.33135107159614563, 2.6581268310546875, 0.15150736272335052, -80.68218231201172],
    [-0.22520603239536285, -0.1791505515575409, 2.6844234466552734, -70.10169219970703],
    [0.0, 0.0, 0.0, 1.0]
],
  "dcmmeta_reorient_transform": [
    [0.0, -1.0, 0.0, 81.0],
    [1.0, 0.0, 0.0, 0.0],
    [0.0, 0.0, 1.0, 0.0],
    [0.0, 0.0, 0.0, 1.0]
],
  "dcmmeta_shape": [82, 82, 56, 872],
  "dcmmeta_slice_dim": 2,
  "dcmmeta_version": 0.6,
  "global": {
    "const": {
      "AccessionNumber": "A004221",
      "AcquisitionMatrix": [82, 0, 0, 82],
      "AngioFlag": "N",
      "BitsAllocated": 16,
      "BitsStored": 16,
      "BodyPartExamined": "BRAIN",
      "Columns": 656,
      "EchoNumbers": 1,
      "EchoTime": 27.2,
      "EchoTrainLength": 82,
      "FlipAngle": 44.0,
      "HighBit": 15,
      "ImageOrientationPatient": [0.98878757688885, 0.12350357290955, -0.0839404269041, -0.1180808561229, 0.99075632962392, 0.06677429690709],
      "ImagePositionPatient": [-778.96233381021, -992.60623272474, -71.394964910432],
      "ImageType": [
        "ORIGINAL",
        "PRIMARY",
        "M",
        "MB",
        "ND",
        "NORM",
        "MOSAIC"
],
      "ImagedNucleus": "1H",
      "ImagingFrequency": 123.25224,
      "InPlanePhaseEncodingDirection": "COL",
      "MRAcquisitionType": "2D",
      "MagneticFieldStrength": 3.0,
      "Manufacturer": "SIEMENS",
      "ManufacturerModelName": "Prisma",
      "Modality": "MR",
      "NumberOfAverages": 1.0,
      "NumberOfPhaseEncodingSteps": 82,
      "PercentPhaseFieldOfView": 100.0,
      "PercentSampling": 100.0,
      "PerformedProcedureStepStartTime": "143943.129000",
      "PhotometricInterpretation": "MONOCHROME2",
      "PixelBandwidth": 3050.0,
      "PixelRepresentation": 0,
      "PixelSpacing": [2.6829268932343, 2.6829268932343],
      "ProtocolName": "func_run-06_task-social_acq-ap-mb8",
      "RepetitionTime": 460.0,
      "Rows": 656,
      "SAR": 0.09242843145658,
      "SamplesPerPixel": 1,
      "ScanOptions": "FS",
      "ScanningSequence": "EP",
      "SequenceName": "epfid2d1_82",
      "SequenceVariant": [
        "SK",
        "SS"
],
      "SeriesDescription": "func_run-06_task-social_acq-ap-mb8",
      "SeriesNumber": 22,
      "SeriesTime": "155907.628000",
      "SliceLocation": -86.490156105832,
      "SliceThickness": 2.7000000476837,
      "SmallestImagePixelValue": 0,
      "SoftwareVersions": "syngo MR E11",
      "SpacingBetweenSlices": 2.6999999623865,
      "SpecificCharacterSet": "ISO_IR 100",
      "StudyID": "1",
      "StudyTime": "143943.079000",
      "TransmitCoilName": "Body",
      "VariableFlipAngleFlag": "N",
      "WindowCenterWidthExplanation": "Algo1"
    },
    "slices": {}
  },
  "time": {
    "samples": {
      "AcquisitionNumber": [1, 2, 3, 4, 5, 6, 7, 8, 9, 10, 11, 12, 13, 14, 15, 16, 17, 18, 19, 20, 21, 22, 23, 24, 25, 26, 27, 28, 29, 30, 31, 32, 33, 34, 35, 36, 37, 38, 39, 40, 41, 42, 43, 44, 45, 46, 47, 48, 49, 50, 51, 52, 53, 54, 55, 56, 57, 58, 59, 60, 61, 62, 63, 64, 65, 66, 67, 68, 69, 70, 71, 72, 73, 74, 75, 76, 77, 78, 79, 80, 81, 82, 83, 84, 85, 86, 87, 88, 89, 90, 91, 92, 93, 94, 95, 96, 97, 98, 99, 100, 101, 102, 103, 104, 105, 106, 107, 108, 109, 110, 111, 112, 113, 114, 115, 116, 117, 118, 119, 120, 121, 122, 123, 124, 125, 126, 127, 128, 129, 130, 131, 132, 133, 134, 135, 136, 137, 138, 139, 140, 141, 142, 143, 144, 145, 146, 147, 148, 149, 150, 151, 152, 153, 154, 155, 156, 157, 158, 159, 160, 161, 162, 163, 164, 165, 166, 167, 168, 169, 170, 171, 172, 173, 174, 175, 176, 177, 178, 179, 180, 181, 182, 183, 184, 185, 186, 187, 188, 189, 190, 191, 192, 193, 194, 195, 196, 197, 198, 199, 200, 201, 202, 203, 204, 205, 206, 207, 208, 209, 210, 211, 212, 213, 214, 215, 216, 217, 218, 219, 220, 221, 222, 223, 224, 225, 226, 227, 228, 229, 230, 231, 232, 233, 234, 235, 236, 237, 238, 239, 240, 241, 242, 243, 244, 245, 246, 247, 248, 249, 250, 251, 252, 253, 254, 255, 256, 257, 258, 259, 260, 261, 262, 263, 264, 265, 266, 267, 268, 269, 270, 271, 272, 273, 274, 275, 276, 277, 278, 279, 280, 281, 282, 283, 284, 285, 286, 287, 288, 289, 290, 291, 292, 293, 294, 295, 296, 297, 298, 299, 300, 301, 302, 303, 304, 305, 306, 307, 308, 309, 310, 311, 312, 313, 314, 315, 316, 317, 318, 319, 320, 321, 322, 323, 324, 325, 326, 327, 328, 329, 330, 331, 332, 333, 334, 335, 336, 337, 338, 339, 340, 341, 342, 343, 344, 345, 346, 347, 348, 349, 350, 351, 352, 353, 354, 355, 356, 357, 358, 359, 360, 361, 362, 363, 364, 365, 366, 367, 368, 369, 370, 371, 372, 373, 374, 375, 376, 377, 378, 379, 380, 381, 382, 383, 384, 385, 386, 387, 388, 389, 390, 391, 392, 393, 394, 395, 396, 397, 398, 399, 400, 401, 402, 403, 404, 405, 406, 407, 408, 409, 410, 411, 412, 413, 414, 415, 416, 417, 418, 419, 420, 421, 422, 423, 424, 425, 426, 427, 428, 429, 430, 431, 432, 433, 434, 435, 436, 437, 438, 439, 440, 441, 442, 443, 444, 445, 446, 447, 448, 449, 450, 451, 452, 453, 454, 455, 456, 457, 458, 459, 460, 461, 462, 463, 464, 465, 466, 467, 468, 469, 470, 471, 472, 473, 474, 475, 476, 477, 478, 479, 480, 481, 482, 483, 484, 485, 486, 487, 488, 489, 490, 491, 492, 493, 494, 495, 496, 497, 498, 499, 500, 501, 502, 503, 504, 505, 506, 507, 508, 509, 510, 511, 512, 513, 514, 515, 516, 517, 518, 519, 520, 521, 522, 523, 524, 525, 526, 527, 528, 529, 530, 531, 532, 533, 534, 535, 536, 537, 538, 539, 540, 541, 542, 543, 544, 545, 546, 547, 548, 549, 550, 551, 552, 553, 554, 555, 556, 557, 558, 559, 560, 561, 562, 563, 564, 565, 566, 567, 568, 569, 570, 571, 572, 573, 574, 575, 576, 577, 578, 579, 580, 581, 582, 583, 584, 585, 586, 587, 588, 589, 590, 591, 592, 593, 594, 595, 596, 597, 598, 599, 600, 601, 602, 603, 604, 605, 606, 607, 608, 609, 610, 611, 612, 613, 614, 615, 616, 617, 618, 619, 620, 621, 622, 623, 624, 625, 626, 627, 628, 629, 630, 631, 632, 633, 634, 635, 636, 637, 638, 639, 640, 641, 642, 643, 644, 645, 646, 647, 648, 649, 650, 651, 652, 653, 654, 655, 656, 657, 658, 659, 660, 661, 662, 663, 664, 665, 666, 667, 668, 669, 670, 671, 672, 673, 674, 675, 676, 677, 678, 679, 680, 681, 682, 683, 684, 685, 686, 687, 688, 689, 690, 691, 692, 693, 694, 695, 696, 697, 698, 699, 700, 701, 702, 703, 704, 705, 706, 707, 708, 709, 710, 711, 712, 713, 714, 715, 716, 717, 718, 719, 720, 721, 722, 723, 724, 725, 726, 727, 728, 729, 730, 731, 732, 733, 734, 735, 736, 737, 738, 739, 740, 741, 742, 743, 744, 745, 746, 747, 748, 749, 750, 751, 752, 753, 754, 755, 756, 757, 758, 759, 760, 761, 762, 763, 764, 765, 766, 767, 768, 769, 770, 771, 772, 773, 774, 775, 776, 777, 778, 779, 780, 781, 782, 783, 784, 785, 786, 787, 788, 789, 790, 791, 792, 793, 794, 795, 796, 797, 798, 799, 800, 801, 802, 803, 804, 805, 806, 807, 808, 809, 810, 811, 812, 813, 814, 815, 816, 817, 818, 819, 820, 821, 822, 823, 824, 825, 826, 827, 828, 829, 830, 831, 832, 833, 834, 835, 836, 837, 838, 839, 840, 841, 842, 843, 844, 845, 846, 847, 848, 849, 850, 851, 852, 853, 854, 855, 856, 857, 858, 859, 860, 861, 862, 863, 864, 865, 866, 867, 868, 869, 870, 871, 872],
      "AcquisitionTime": ["155859.370000", "155859.830000", "155900.290000", "155900.750000", "155901.210000", "155901.670000", "155902.130000", "155902.590000", "155903.050000", "155903.510000", "155903.970000", "155904.430000", "155904.890000", "155905.350000", "155905.810000", "155906.270000", "155906.730000", "155907.190000", "155907.650000", "155908.110000", "155908.570000", "155909.030000", "155909.490000", "155909.950000", "155910.410000", "155910.870000", "155911.330000", "155911.790000", "155912.250000", "155912.710000", "155913.170000", "155913.630000", "155914.090000", "155914.550000", "155915.010000", "155915.470000", "155915.930000", "155916.390000", "155916.850000", "155917.310000", "155917.770000", "155918.230000", "155918.690000", "155919.150000", "155919.610000", "155920.070000", "155920.530000", "155920.990000", "155921.450000", "155921.910000", "155922.370000", "155922.830000", "155923.290000", "155923.750000", "155924.210000", "155924.670000", "155925.130000", "155925.590000", "155926.050000", "155926.510000", "155926.970000", "155927.430000", "155927.890000", "155928.350000", "155928.810000", "155929.270000", "155929.730000", "155930.190000", "155930.650000", "155931.110000", "155931.570000", "155932.030000", "155932.490000", "155932.950000", "155933.410000", "155933.870000", "155934.330000", "155934.790000", "155935.250000", "155935.710000", "155936.170000", "155936.630000", "155937.090000", "155937.550000", "155938.010000", "155938.470000", "155938.930000", "155939.390000", "155939.850000", "155940.310000", "155940.770000", "155941.230000", "155941.690000", "155942.150000", "155942.610000", "155943.070000", "155943.530000", "155943.990000", "155944.450000", "155944.910000", "155945.370000", "155945.830000", "155946.290000", "155946.750000", "155947.210000", "155947.670000", "155948.130000", "155948.590000", "155949.050000", "155949.510000", "155949.970000", "155950.430000", "155950.890000", "155951.350000", "155951.810000", "155952.270000", "155952.730000", "155953.190000", "155953.650000", "155954.110000", "155954.570000", "155955.030000", "155955.490000", "155955.950000", "155956.410000", "155956.870000", "155957.330000", "155957.790000", "155958.250000", "155958.710000", "155959.170000", "155959.630000", "160000.090000", "160000.550000", "160001.010000", "160001.470000", "160001.930000", "160002.390000", "160002.850000", "160003.310000", "160003.770000", "160004.230000", "160004.690000", "160005.150000", "160005.610000", "160006.070000", "160006.530000", "160006.990000", "160007.450000", "160007.910000", "160008.370000", "160008.830000", "160009.290000", "160009.750000", "160010.210000", "160010.670000", "160011.130000", "160011.590000", "160012.050000", "160012.510000", "160012.970000", "160013.430000", "160013.890000", "160014.350000", "160014.810000", "160015.270000", "160015.730000", "160016.190000", "160016.650000", "160017.110000", "160017.570000", "160018.030000", "160018.490000", "160018.950000", "160019.410000", "160019.870000", "160020.330000", "160020.790000", "160021.250000", "160021.710000", "160022.170000", "160022.630000", "160023.090000", "160023.550000", "160024.010000", "160024.470000", "160024.930000", "160025.390000", "160025.850000", "160026.310000", "160026.770000", "160027.230000", "160027.690000", "160028.150000", "160028.610000", "160029.070000", "160029.530000", "160029.990000", "160030.450000", "160030.910000", "160031.370000", "160031.830000", "160032.290000", "160032.750000", "160033.210000", "160033.670000", "160034.130000", "160034.590000", "160035.050000", "160035.510000", "160035.970000", "160036.430000", "160036.890000", "160037.350000", "160037.810000", "160038.270000", "160038.730000", "160039.190000", "160039.650000", "160040.110000", "160040.570000", "160041.030000", "160041.490000", "160041.950000", "160042.410000", "160042.870000", "160043.330000", "160043.790000", "160044.250000", "160044.710000", "160045.170000", "160045.630000", "160046.090000", "160046.550000", "160047.010000", "160047.470000", "160047.930000", "160048.390000", "160048.850000", "160049.310000", "160049.770000", "160050.230000", "160050.690000", "160051.150000", "160051.610000", "160052.070000", "160052.530000", "160052.990000", "160053.450000", "160053.910000", "160054.370000", "160054.830000", "160055.290000", "160055.750000", "160056.210000", "160056.670000", "160057.130000", "160057.590000", "160058.050000", "160058.510000", "160058.970000", "160059.430000", "160059.890000", "160100.350000", "160100.810000", "160101.270000", "160101.730000", "160102.190000", "160102.650000", "160103.110000", "160103.570000", "160104.030000", "160104.490000", "160104.950000", "160105.410000", "160105.870000", "160106.330000", "160106.790000", "160107.250000", "160107.710000", "160108.170000", "160108.630000", "160109.090000", "160109.550000", "160110.010000", "160110.470000", "160110.930000", "160111.390000", "160111.850000", "160112.310000", "160112.770000", "160113.230000", "160113.690000", "160114.150000", "160114.610000", "160115.070000", "160115.530000", "160115.990000", "160116.450000", "160116.910000", "160117.370000", "160117.830000", "160118.290000", "160118.750000", "160119.210000", "160119.670000", "160120.130000", "160120.590000", "160121.050000", "160121.510000", "160121.970000", "160122.430000", "160122.890000", "160123.350000", "160123.810000", "160124.270000", "160124.730000", "160125.190000", "160125.650000", "160126.110000", "160126.570000", "160127.030000", "160127.490000", "160127.950000", "160128.410000", "160128.870000", "160129.330000", "160129.790000", "160130.250000", "160130.710000", "160131.170000", "160131.630000", "160132.090000", "160132.550000", "160133.010000", "160133.470000", "160133.930000", "160134.390000", "160134.850000", "160135.310000", "160135.770000", "160136.230000", "160136.690000", "160137.150000", "160137.610000", "160138.070000", "160138.530000", "160138.990000", "160139.450000", "160139.910000", "160140.370000", "160140.830000", "160141.290000", "160141.750000", "160142.210000", "160142.670000", "160143.130000", "160143.590000", "160144.050000", "160144.510000", "160144.970000", "160145.430000", "160145.890000", "160146.350000", "160146.810000", "160147.270000", "160147.730000", "160148.190000", "160148.650000", "160149.110000", "160149.570000", "160150.030000", "160150.490000", "160150.950000", "160151.410000", "160151.870000", "160152.330000", "160152.790000", "160153.250000", "160153.710000", "160154.170000", "160154.630000", "160155.090000", "160155.550000", "160156.010000", "160156.470000", "160156.930000", "160157.390000", "160157.850000", "160158.310000", "160158.770000", "160159.230000", "160159.690000", "160200.150000", "160200.610000", "160201.070000", "160201.530000", "160201.990000", "160202.450000", "160202.910000", "160203.370000", "160203.830000", "160204.290000", "160204.750000", "160205.210000", "160205.670000", "160206.130000", "160206.590000", "160207.050000", "160207.510000", "160207.970000", "160208.430000", "160208.890000", "160209.350000", "160209.810000", "160210.270000", "160210.730000", "160211.190000", "160211.650000", "160212.110000", "160212.570000", "160213.030000", "160213.490000", "160213.950000", "160214.410000", "160214.870000", "160215.330000", "160215.790000", "160216.250000", "160216.710000", "160217.170000", "160217.630000", "160218.090000", "160218.550000", "160219.010000", "160219.470000", "160219.930000", "160220.390000", "160220.850000", "160221.310000", "160221.770000", "160222.230000", "160222.690000", "160223.150000", "160223.610000", "160224.070000", "160224.530000", "160224.990000", "160225.450000", "160225.910000", "160226.370000", "160226.830000", "160227.290000", "160227.750000", "160228.210000", "160228.670000", "160229.130000", "160229.590000", "160230.050000", "160230.510000", "160230.970000", "160231.430000", "160231.890000", "160232.350000", "160232.810000", "160233.270000", "160233.730000", "160234.190000", "160234.650000", "160235.110000", "160235.570000", "160236.030000", "160236.490000", "160236.950000", "160237.410000", "160237.870000", "160238.330000", "160238.790000", "160239.250000", "160239.710000", "160240.170000", "160240.630000", "160241.090000", "160241.550000", "160242.010000", "160242.470000", "160242.930000", "160243.390000", "160243.850000", "160244.310000", "160244.770000", "160245.230000", "160245.690000", "160246.150000", "160246.610000", "160247.070000", "160247.530000", "160247.990000", "160248.450000", "160248.910000", "160249.370000", "160249.830000", "160250.290000", "160250.750000", "160251.210000", "160251.670000", "160252.130000", "160252.590000", "160253.050000", "160253.510000", "160253.970000", "160254.430000", "160254.890000", "160255.350000", "160255.810000", "160256.270000", "160256.730000", "160257.190000", "160257.650000", "160258.110000", "160258.570000", "160259.030000", "160259.490000", "160259.950000", "160300.410000", "160300.870000", "160301.330000", "160301.790000", "160302.250000", "160302.710000", "160303.170000", "160303.630000", "160304.090000", "160304.550000", "160305.010000", "160305.470000", "160305.930000", "160306.390000", "160306.850000", "160307.310000", "160307.770000", "160308.230000", "160308.690000", "160309.150000", "160309.610000", "160310.070000", "160310.530000", "160310.990000", "160311.450000", "160311.910000", "160312.370000", "160312.830000", "160313.290000", "160313.750000", "160314.210000", "160314.670000", "160315.130000", "160315.590000", "160316.050000", "160316.510000", "160316.970000", "160317.430000", "160317.890000", "160318.350000", "160318.810000", "160319.270000", "160319.730000", "160320.190000", "160320.650000", "160321.110000", "160321.570000", "160322.030000", "160322.490000", "160322.950000", "160323.410000", "160323.870000", "160324.330000", "160324.790000", "160325.250000", "160325.710000", "160326.170000", "160326.630000", "160327.090000", "160327.550000", "160328.010000", "160328.470000", "160328.930000", "160329.390000", "160329.850000", "160330.310000", "160330.770000", "160331.230000", "160331.690000", "160332.150000", "160332.610000", "160333.070000", "160333.530000", "160333.990000", "160334.450000", "160334.910000", "160335.370000", "160335.830000", "160336.290000", "160336.750000", "160337.210000", "160337.670000", "160338.130000", "160338.590000", "160339.050000", "160339.510000", "160339.970000", "160340.430000", "160340.890000", "160341.350000", "160341.810000", "160342.270000", "160342.730000", "160343.190000", "160343.650000", "160344.110000", "160344.570000", "160345.030000", "160345.490000", "160345.950000", "160346.410000", "160346.870000", "160347.330000", "160347.790000", "160348.250000", "160348.710000", "160349.170000", "160349.630000", "160350.090000", "160350.550000", "160351.010000", "160351.470000", "160351.930000", "160352.390000", "160352.850000", "160353.310000", "160353.770000", "160354.230000", "160354.690000", "160355.150000", "160355.610000", "160356.070000", "160356.530000", "160356.990000", "160357.450000", "160357.910000", "160358.370000", "160358.830000", "160359.290000", "160359.750000", "160400.210000", "160400.670000", "160401.130000", "160401.590000", "160402.050000", "160402.510000", "160402.970000", "160403.430000", "160403.890000", "160404.350000", "160404.810000", "160405.270000", "160405.730000", "160406.190000", "160406.650000", "160407.110000", "160407.570000", "160408.030000", "160408.490000", "160408.950000", "160409.410000", "160409.870000", "160410.330000", "160410.790000", "160411.250000", "160411.710000", "160412.170000", "160412.630000", "160413.090000", "160413.550000", "160414.010000", "160414.470000", "160414.930000", "160415.390000", "160415.850000", "160416.310000", "160416.770000", "160417.230000", "160417.690000", "160418.150000", "160418.610000", "160419.070000", "160419.530000", "160419.990000", "160420.450000", "160420.910000", "160421.370000", "160421.830000", "160422.290000", "160422.750000", "160423.210000", "160423.670000", "160424.130000", "160424.590000", "160425.050000", "160425.510000", "160425.970000", "160426.430000", "160426.890000", "160427.350000", "160427.810000", "160428.270000", "160428.730000", "160429.190000", "160429.650000", "160430.110000", "160430.570000", "160431.030000", "160431.490000", "160431.950000", "160432.410000", "160432.870000", "160433.330000", "160433.790000", "160434.250000", "160434.710000", "160435.170000", "160435.630000", "160436.090000", "160436.550000", "160437.010000", "160437.470000", "160437.930000", "160438.390000", "160438.850000", "160439.310000", "160439.770000", "160440.230000", "160440.690000", "160441.150000", "160441.610000", "160442.070000", "160442.530000", "160442.990000", "160443.450000", "160443.910000", "160444.370000", "160444.830000", "160445.290000", "160445.750000", "160446.210000", "160446.670000", "160447.130000", "160447.590000", "160448.050000", "160448.510000", "160448.970000", "160449.430000", "160449.890000", "160450.350000", "160450.810000", "160451.270000", "160451.730000", "160452.190000", "160452.650000", "160453.110000", "160453.570000", "160454.030000", "160454.490000", "160454.950000", "160455.410000", "160455.870000", "160456.330000", "160456.790000", "160457.250000", "160457.710000", "160458.170000", "160458.630000", "160459.090000", "160459.550000", "160500.010000", "160500.470000", "160500.930000", "160501.390000", "160501.850000", "160502.310000", "160502.770000", "160503.230000", "160503.690000", "160504.150000", "160504.610000", "160505.070000", "160505.530000", "160505.990000", "160506.450000", "160506.910000", "160507.370000", "160507.830000", "160508.290000", "160508.750000", "160509.210000", "160509.670000", "160510.130000", "160510.590000", "160511.050000", "160511.510000", "160511.970000", "160512.430000", "160512.890000", "160513.350000", "160513.810000", "160514.270000", "160514.730000", "160515.190000", "160515.650000", "160516.110000", "160516.570000", "160517.030000", "160517.490000", "160517.950000", "160518.410000", "160518.870000", "160519.330000", "160519.790000", "160520.250000", "160520.710000", "160521.170000", "160521.630000", "160522.090000", "160522.550000", "160523.010000", "160523.470000", "160523.930000", "160524.390000", "160524.850000", "160525.310000", "160525.770000", "160526.230000", "160526.690000", "160527.150000", "160527.610000", "160528.070000", "160528.530000", "160528.990000", "160529.450000", "160529.910000", "160530.370000", "160530.830000", "160531.290000", "160531.750000", "160532.210000", "160532.670000", "160533.130000", "160533.590000", "160534.050000", "160534.510000", "160534.970000", "160535.430000", "160535.890000", "160536.350000", "160536.810000", "160537.270000", "160537.730000", "160538.190000", "160538.650000", "160539.110000", "160539.570000", "160540.030000"],
