{
  "AcquisitionMatrixPE": 82,
  "AcquisitionNumber": 1,
  "AcquisitionTime": "16:19:40.375000",
  "BandwidthPerPixelPhaseEncode": 24.888,
  "BaseResolution": 82,
  "BodyPartExamined": "BRAIN",
  "ConsistencyInfo": "N4_VE11E_LATEST_20181129",
  "ConversionSoftware": "dcm2niix",
  "ConversionSoftwareVersion": "v1.0.20201102",
  "DerivedVendorReportedEchoSpacing": 0.00049,
  "DeviceSerialNumber": "66112",
  "DwellTime": 2e-06,
  "EchoTime": 0.0272,
  "EchoTrainLength": 82,
  "EffectiveEchoSpacing": 0.00049,
  "FlipAngle": 44,
  "ImageComments": "Unaliased MB8/PE3",
  "ImageOrientationPatientDICOM": [0.992997, 0.108942, -0.0457074, -0.104543, 0.990479, 0.0895633],
  "ImageType": [
    "ORIGINAL",
    "PRIMARY",
    "M",
    "MB",
    "ND",
    "NORM",
    "MOSAIC"
],
  "ImagingFrequency": 123.252,
  "InPlanePhaseEncodingDirectionDICOM": "COL",
  "InstitutionAddress": "Maynard 3,Hanover,NH,US,03755",
  "InstitutionName": "Dartmouth College - PBS",
  "InstitutionalDepartmentName": "Department",
  "MRAcquisitionType": "2D",
  "MagneticFieldStrength": 3,
  "Manufacturer": "Siemens",
  "ManufacturersModelName": "Prisma",
  "Modality": "MR",
  "MultibandAccelerationFactor": 8,
  "PartialFourier": 1,
  "PatientPosition": "HFS",
  "PercentPhaseFOV": 100,
  "PercentSampling": 100,
  "PhaseEncodingDirection": "j-",
  "PhaseEncodingSteps": 82,
  "PhaseResolution": 1,
  "PixelBandwidth": 3050,
  "ProcedureStepDescription": "Wager_Wager^1076_spacetop",
  "ProtocolName": "func_run-02_task-alignvideo_acq-ap-mb8",
  "PulseSequenceDetails": "%CustomerSeq%\\cmrr_mbep2d_bold",
  "ReceiveCoilActiveElements": "HEA;HEP",
  "ReceiveCoilName": "Head_32",
  "ReconMatrixPE": 82,
  "RepetitionTime": 0.46,
  "SAR": 0.0924619,
  "ScanOptions": "FS",
  "ScanningSequence": "EP",
  "SequenceName": "epfid2d1_82",
  "SequenceVariant": "SK\\SS",
  "SeriesDescription": "func_run-02_task-alignvideo_acq-ap-mb8",
  "SeriesNumber": 32,
  "ShimSetting": [4110, -7714, -7308, 559, -9, -47, 62, 47],
  "SliceThickness": 2.7,
  "SliceTiming": [0, 0.25, 0.0625, 0.315, 0.125, 0.3775, 0.1875, 0, 0.25, 0.0625, 0.315, 0.125, 0.3775, 0.1875, 0, 0.25, 0.0625, 0.315, 0.125, 0.3775, 0.1875, 0, 0.25, 0.0625, 0.315, 0.125, 0.3775, 0.1875, 0, 0.25, 0.0625, 0.315, 0.125, 0.3775, 0.1875, 0, 0.25, 0.0625, 0.315, 0.125, 0.3775, 0.1875, 0, 0.25, 0.0625, 0.315, 0.125, 0.3775, 0.1875, 0, 0.25, 0.0625, 0.315, 0.125, 0.3775, 0.1875],
  "SoftwareVersions": "syngo MR E11",
  "SpacingBetweenSlices": 2.7,
  "StationName": "AWP66112",
  "TaskName": "alignvideo",
  "TotalReadoutTime": 0.03969,
  "TxRefAmp": 250.893,
  "WipMemBlock": "4527b231-8164-4de0-bb48-2431f476b9fb||Sequence: R016 ve11e/master r/434b28f1; Aug  7 2019 18:53:46 by eja",
  "dcmmeta_affine": [
    [-2.664137601852417, -0.28048214316368103, -0.14857956767082214, 132.66600036621094],
    [-0.2922837436199188, 2.657383441925049, 0.22722570598125458, -88.07304382324219],
    [-0.12262966483831406, -0.2402918040752411, 2.6863160133361816, -67.56301879882812],
    [0.0, 0.0, 0.0, 1.0]
],
  "dcmmeta_reorient_transform": [
    [0.0, -1.0, 0.0, 81.0],
    [1.0, 0.0, 0.0, 0.0],
    [0.0, 0.0, 1.0, 0.0],
    [0.0, 0.0, 0.0, 1.0]
],
  "dcmmeta_shape": [82, 82, 56, 926],
  "dcmmeta_slice_dim": 2,
  "dcmmeta_version": 0.6,
  "global": {
    "const": {
      "AccessionNumber": "A004221",
      "AcquisitionMatrix": [82, 0, 0, 82],
      "AngioFlag": "N",
      "BitsAllocated": 16,
      "BitsStored": 16,
      "BodyPartExamined": "BRAIN",
      "Columns": 656,
      "EchoNumbers": 1,
      "EchoTime": 27.2,
      "EchoTrainLength": 82,
      "FlipAngle": 44.0,
      "HighBit": 15,
      "ImageOrientationPatient": [0.99299670035719, 0.10894211747687, -0.0457074186472, -0.1045433452643, 0.99047922886274, 0.08956330806981],
      "ImagePositionPatient": [-794.05605123848, -973.7294672275, -120.79569063106],
      "ImageType": [
        "ORIGINAL",
        "PRIMARY",
        "M",
        "MB",
        "ND",
        "NORM",
        "MOSAIC"
],
      "ImagedNucleus": "1H",
      "ImagingFrequency": 123.25224,
      "InPlanePhaseEncodingDirection": "COL",
      "MRAcquisitionType": "2D",
      "MagneticFieldStrength": 3.0,
      "Manufacturer": "SIEMENS",
      "ManufacturerModelName": "Prisma",
      "Modality": "MR",
      "NumberOfAverages": 1.0,
      "NumberOfPhaseEncodingSteps": 82,
      "PercentPhaseFieldOfView": 100.0,
      "PercentSampling": 100.0,
      "PerformedProcedureStepStartTime": "143943.129000",
      "PhotometricInterpretation": "MONOCHROME2",
      "PixelBandwidth": 3050.0,
      "PixelRepresentation": 0,
      "PixelSpacing": [2.6829268932343, 2.6829268932343],
      "ProtocolName": "func_run-02_task-alignvideo_acq-ap-mb8",
      "RepetitionTime": 460.0,
      "Rows": 656,
      "SAR": 0.0924619115787,
      "SamplesPerPixel": 1,
      "ScanOptions": "FS",
      "ScanningSequence": "EP",
      "SequenceName": "epfid2d1_82",
      "SequenceVariant": [
        "SK",
        "SS"
],
      "SeriesDescription": "func_run-02_task-alignvideo_acq-ap-mb8",
      "SeriesNumber": 32,
      "SeriesTime": "162007.571000",
      "SliceLocation": -81.933154974128,
      "SliceThickness": 2.7000000476837,
      "SmallestImagePixelValue": 0,
      "SoftwareVersions": "syngo MR E11",
      "SpacingBetweenSlices": 2.7000001131397,
      "SpecificCharacterSet": "ISO_IR 100",
      "StudyID": "1",
      "StudyTime": "143943.079000",
      "TransmitCoilName": "Body",
      "VariableFlipAngleFlag": "N",
      "WindowCenterWidthExplanation": "Algo1"
    },
    "slices": {}
  },
  "time": {
    "samples": {
      "AcquisitionNumber": [1, 2, 3, 4, 5, 6, 7, 8, 9, 10, 11, 12, 13, 14, 15, 16, 17, 18, 19, 20, 21, 22, 23, 24, 25, 26, 27, 28, 29, 30, 31, 32, 33, 34, 35, 36, 37, 38, 39, 40, 41, 42, 43, 44, 45, 46, 47, 48, 49, 50, 51, 52, 53, 54, 55, 56, 57, 58, 59, 60, 61, 62, 63, 64, 65, 66, 67, 68, 69, 70, 71, 72, 73, 74, 75, 76, 77, 78, 79, 80, 81, 82, 83, 84, 85, 86, 87, 88, 89, 90, 91, 92, 93, 94, 95, 96, 97, 98, 99, 100, 101, 102, 103, 104, 105, 106, 107, 108, 109, 110, 111, 112, 113, 114, 115, 116, 117, 118, 119, 120, 121, 122, 123, 124, 125, 126, 127, 128, 129, 130, 131, 132, 133, 134, 135, 136, 137, 138, 139, 140, 141, 142, 143, 144, 145, 146, 147, 148, 149, 150, 151, 152, 153, 154, 155, 156, 157, 158, 159, 160, 161, 162, 163, 164, 165, 166, 167, 168, 169, 170, 171, 172, 173, 174, 175, 176, 177, 178, 179, 180, 181, 182, 183, 184, 185, 186, 187, 188, 189, 190, 191, 192, 193, 194, 195, 196, 197, 198, 199, 200, 201, 202, 203, 204, 205, 206, 207, 208, 209, 210, 211, 212, 213, 214, 215, 216, 217, 218, 219, 220, 221, 222, 223, 224, 225, 226, 227, 228, 229, 230, 231, 232, 233, 234, 235, 236, 237, 238, 239, 240, 241, 242, 243, 244, 245, 246, 247, 248, 249, 250, 251, 252, 253, 254, 255, 256, 257, 258, 259, 260, 261, 262, 263, 264, 265, 266, 267, 268, 269, 270, 271, 272, 273, 274, 275, 276, 277, 278, 279, 280, 281, 282, 283, 284, 285, 286, 287, 288, 289, 290, 291, 292, 293, 294, 295, 296, 297, 298, 299, 300, 301, 302, 303, 304, 305, 306, 307, 308, 309, 310, 311, 312, 313, 314, 315, 316, 317, 318, 319, 320, 321, 322, 323, 324, 325, 326, 327, 328, 329, 330, 331, 332, 333, 334, 335, 336, 337, 338, 339, 340, 341, 342, 343, 344, 345, 346, 347, 348, 349, 350, 351, 352, 353, 354, 355, 356, 357, 358, 359, 360, 361, 362, 363, 364, 365, 366, 367, 368, 369, 370, 371, 372, 373, 374, 375, 376, 377, 378, 379, 380, 381, 382, 383, 384, 385, 386, 387, 388, 389, 390, 391, 392, 393, 394, 395, 396, 397, 398, 399, 400, 401, 402, 403, 404, 405, 406, 407, 408, 409, 410, 411, 412, 413, 414, 415, 416, 417, 418, 419, 420, 421, 422, 423, 424, 425, 426, 427, 428, 429, 430, 431, 432, 433, 434, 435, 436, 437, 438, 439, 440, 441, 442, 443, 444, 445, 446, 447, 448, 449, 450, 451, 452, 453, 454, 455, 456, 457, 458, 459, 460, 461, 462, 463, 464, 465, 466, 467, 468, 469, 470, 471, 472, 473, 474, 475, 476, 477, 478, 479, 480, 481, 482, 483, 484, 485, 486, 487, 488, 489, 490, 491, 492, 493, 494, 495, 496, 497, 498, 499, 500, 501, 502, 503, 504, 505, 506, 507, 508, 509, 510, 511, 512, 513, 514, 515, 516, 517, 518, 519, 520, 521, 522, 523, 524, 525, 526, 527, 528, 529, 530, 531, 532, 533, 534, 535, 536, 537, 538, 539, 540, 541, 542, 543, 544, 545, 546, 547, 548, 549, 550, 551, 552, 553, 554, 555, 556, 557, 558, 559, 560, 561, 562, 563, 564, 565, 566, 567, 568, 569, 570, 571, 572, 573, 574, 575, 576, 577, 578, 579, 580, 581, 582, 583, 584, 585, 586, 587, 588, 589, 590, 591, 592, 593, 594, 595, 596, 597, 598, 599, 600, 601, 602, 603, 604, 605, 606, 607, 608, 609, 610, 611, 612, 613, 614, 615, 616, 617, 618, 619, 620, 621, 622, 623, 624, 625, 626, 627, 628, 629, 630, 631, 632, 633, 634, 635, 636, 637, 638, 639, 640, 641, 642, 643, 644, 645, 646, 647, 648, 649, 650, 651, 652, 653, 654, 655, 656, 657, 658, 659, 660, 661, 662, 663, 664, 665, 666, 667, 668, 669, 670, 671, 672, 673, 674, 675, 676, 677, 678, 679, 680, 681, 682, 683, 684, 685, 686, 687, 688, 689, 690, 691, 692, 693, 694, 695, 696, 697, 698, 699, 700, 701, 702, 703, 704, 705, 706, 707, 708, 709, 710, 711, 712, 713, 714, 715, 716, 717, 718, 719, 720, 721, 722, 723, 724, 725, 726, 727, 728, 729, 730, 731, 732, 733, 734, 735, 736, 737, 738, 739, 740, 741, 742, 743, 744, 745, 746, 747, 748, 749, 750, 751, 752, 753, 754, 755, 756, 757, 758, 759, 760, 761, 762, 763, 764, 765, 766, 767, 768, 769, 770, 771, 772, 773, 774, 775, 776, 777, 778, 779, 780, 781, 782, 783, 784, 785, 786, 787, 788, 789, 790, 791, 792, 793, 794, 795, 796, 797, 798, 799, 800, 801, 802, 803, 804, 805, 806, 807, 808, 809, 810, 811, 812, 813, 814, 815, 816, 817, 818, 819, 820, 821, 822, 823, 824, 825, 826, 827, 828, 829, 830, 831, 832, 833, 834, 835, 836, 837, 838, 839, 840, 841, 842, 843, 844, 845, 846, 847, 848, 849, 850, 851, 852, 853, 854, 855, 856, 857, 858, 859, 860, 861, 862, 863, 864, 865, 866, 867, 868, 869, 870, 871, 872, 873, 874, 875, 876, 877, 878, 879, 880, 881, 882, 883, 884, 885, 886, 887, 888, 889, 890, 891, 892, 893, 894, 895, 896, 897, 898, 899, 900, 901, 902, 903, 904, 905, 906, 907, 908, 909, 910, 911, 912, 913, 914, 915, 916, 917, 918, 919, 920, 921, 922, 923, 924, 925, 926],
      "AcquisitionTime": ["161940.375000", "161940.835000", "161941.295000", "161941.755000", "161942.215000", "161942.675000", "161943.135000", "161943.595000", "161944.055000", "161944.515000", "161944.975000", "161945.435000", "161945.895000", "161946.355000", "161946.815000", "161947.275000", "161947.735000", "161948.195000", "161948.655000", "161949.115000", "161949.575000", "161950.035000", "161950.495000", "161950.955000", "161951.415000", "161951.875000", "161952.335000", "161952.795000", "161953.255000", "161953.715000", "161954.175000", "161954.635000", "161955.095000", "161955.555000", "161956.015000", "161956.475000", "161956.935000", "161957.395000", "161957.855000", "161958.315000", "161958.775000", "161959.235000", "161959.695000", "162000.155000", "162000.615000", "162001.075000", "162001.535000", "162001.995000", "162002.455000", "162002.915000", "162003.375000", "162003.835000", "162004.295000", "162004.755000", "162005.215000", "162005.675000", "162006.135000", "162006.595000", "162007.055000", "162007.515000", "162007.975000", "162008.435000", "162008.895000", "162009.355000", "162009.815000", "162010.275000", "162010.735000", "162011.195000", "162011.655000", "162012.115000", "162012.575000", "162013.035000", "162013.495000", "162013.955000", "162014.415000", "162014.875000", "162015.335000", "162015.795000", "162016.255000", "162016.715000", "162017.175000", "162017.635000", "162018.095000", "162018.555000", "162019.015000", "162019.475000", "162019.935000", "162020.395000", "162020.855000", "162021.315000", "162021.775000", "162022.235000", "162022.695000", "162023.155000", "162023.615000", "162024.075000", "162024.535000", "162024.995000", "162025.455000", "162025.915000", "162026.375000", "162026.835000", "162027.295000", "162027.755000", "162028.215000", "162028.675000", "162029.135000", "162029.595000", "162030.055000", "162030.515000", "162030.975000", "162031.435000", "162031.895000", "162032.355000", "162032.815000", "162033.275000", "162033.735000", "162034.195000", "162034.655000", "162035.115000", "162035.575000", "162036.035000", "162036.495000", "162036.955000", "162037.415000", "162037.875000", "162038.335000", "162038.795000", "162039.255000", "162039.715000", "162040.175000", "162040.635000", "162041.095000", "162041.555000", "162042.015000", "162042.475000", "162042.935000", "162043.395000", "162043.855000", "162044.315000", "162044.775000", "162045.235000", "162045.695000", "162046.155000", "162046.615000", "162047.075000", "162047.535000", "162047.995000", "162048.455000", "162048.915000", "162049.375000", "162049.835000", "162050.295000", "162050.755000", "162051.215000", "162051.675000", "162052.135000", "162052.595000", "162053.055000", "162053.515000", "162053.975000", "162054.435000", "162054.895000", "162055.355000", "162055.815000", "162056.275000", "162056.735000", "162057.195000", "162057.655000", "162058.115000", "162058.575000", "162059.035000", "162059.495000", "162059.955000", "162100.415000", "162100.875000", "162101.335000", "162101.795000", "162102.255000", "162102.715000", "162103.175000", "162103.635000", "162104.095000", "162104.555000", "162105.015000", "162105.475000", "162105.935000", "162106.395000", "162106.855000", "162107.315000", "162107.775000", "162108.235000", "162108.695000", "162109.155000", "162109.615000", "162110.075000", "162110.535000", "162110.995000", "162111.455000", "162111.915000", "162112.375000", "162112.835000", "162113.295000", "162113.755000", "162114.215000", "162114.675000", "162115.135000", "162115.595000", "162116.055000", "162116.515000", "162116.975000", "162117.435000", "162117.895000", "162118.355000", "162118.815000", "162119.275000", "162119.735000", "162120.195000", "162120.655000", "162121.115000", "162121.575000", "162122.035000", "162122.495000", "162122.955000", "162123.415000", "162123.875000", "162124.335000", "162124.795000", "162125.255000", "162125.715000", "162126.175000", "162126.635000", "162127.095000", "162127.555000", "162128.015000", "162128.475000", "162128.935000", "162129.395000", "162129.855000", "162130.315000", "162130.775000", "162131.235000", "162131.695000", "162132.155000", "162132.615000", "162133.075000", "162133.535000", "162133.995000", "162134.455000", "162134.915000", "162135.375000", "162135.835000", "162136.295000", "162136.755000", "162137.215000", "162137.675000", "162138.135000", "162138.595000", "162139.055000", "162139.515000", "162139.975000", "162140.435000", "162140.895000", "162141.355000", "162141.815000", "162142.275000", "162142.735000", "162143.195000", "162143.655000", "162144.115000", "162144.575000", "162145.035000", "162145.495000", "162145.955000", "162146.415000", "162146.875000", "162147.335000", "162147.795000", "162148.255000", "162148.715000", "162149.175000", "162149.635000", "162150.095000", "162150.555000", "162151.015000", "162151.475000", "162151.935000", "162152.395000", "162152.855000", "162153.315000", "162153.775000", "162154.235000", "162154.695000", "162155.155000", "162155.615000", "162156.075000", "162156.535000", "162156.995000", "162157.455000", "162157.915000", "162158.375000", "162158.835000", "162159.295000", "162159.755000", "162200.215000", "162200.675000", "162201.135000", "162201.595000", "162202.055000", "162202.515000", "162202.975000", "162203.435000", "162203.895000", "162204.355000", "162204.815000", "162205.275000", "162205.735000", "162206.195000", "162206.655000", "162207.115000", "162207.575000", "162208.035000", "162208.495000", "162208.955000", "162209.415000", "162209.875000", "162210.335000", "162210.795000", "162211.255000", "162211.715000", "162212.175000", "162212.635000", "162213.095000", "162213.555000", "162214.015000", "162214.475000", "162214.935000", "162215.395000", "162215.855000", "162216.315000", "162216.775000", "162217.235000", "162217.695000", "162218.155000", "162218.615000", "162219.075000", "162219.535000", "162219.995000", "162220.455000", "162220.915000", "162221.375000", "162221.835000", "162222.295000", "162222.755000", "162223.215000", "162223.675000", "162224.135000", "162224.595000", "162225.055000", "162225.515000", "162225.975000", "162226.435000", "162226.895000", "162227.355000", "162227.815000", "162228.275000", "162228.735000", "162229.195000", "162229.655000", "162230.115000", "162230.575000", "162231.035000", "162231.495000", "162231.955000", "162232.415000", "162232.875000", "162233.335000", "162233.795000", "162234.255000", "162234.715000", "162235.175000", "162235.635000", "162236.095000", "162236.555000", "162237.015000", "162237.475000", "162237.935000", "162238.395000", "162238.855000", "162239.315000", "162239.775000", "162240.235000", "162240.695000", "162241.155000", "162241.615000", "162242.075000", "162242.535000", "162242.995000", "162243.455000", "162243.915000", "162244.375000", "162244.835000", "162245.295000", "162245.755000", "162246.215000", "162246.675000", "162247.135000", "162247.595000", "162248.055000", "162248.515000", "162248.975000", "162249.435000", "162249.895000", "162250.355000", "162250.815000", "162251.275000", "162251.735000", "162252.195000", "162252.655000", "162253.115000", "162253.575000", "162254.035000", "162254.495000", "162254.955000", "162255.415000", "162255.875000", "162256.335000", "162256.795000", "162257.255000", "162257.715000", "162258.175000", "162258.635000", "162259.095000", "162259.555000", "162300.015000", "162300.475000", "162300.935000", "162301.395000", "162301.855000", "162302.315000", "162302.775000", "162303.235000", "162303.695000", "162304.155000", "162304.615000", "162305.075000", "162305.535000", "162305.995000", "162306.455000", "162306.915000", "162307.375000", "162307.835000", "162308.295000", "162308.755000", "162309.215000", "162309.675000", "162310.135000", "162310.595000", "162311.055000", "162311.515000", "162311.975000", "162312.435000", "162312.895000", "162313.355000", "162313.815000", "162314.275000", "162314.735000", "162315.195000", "162315.655000", "162316.115000", "162316.575000", "162317.035000", "162317.495000", "162317.955000", "162318.415000", "162318.875000", "162319.335000", "162319.795000", "162320.255000", "162320.715000", "162321.175000", "162321.635000", "162322.095000", "162322.555000", "162323.015000", "162323.475000", "162323.935000", "162324.395000", "162324.855000", "162325.315000", "162325.775000", "162326.235000", "162326.695000", "162327.155000", "162327.615000", "162328.075000", "162328.535000", "162328.995000", "162329.455000", "162329.915000", "162330.375000", "162330.835000", "162331.295000", "162331.755000", "162332.215000", "162332.675000", "162333.135000", "162333.595000", "162334.055000", "162334.515000", "162334.975000", "162335.435000", "162335.895000", "162336.355000", "162336.815000", "162337.275000", "162337.735000", "162338.195000", "162338.655000", "162339.115000", "162339.575000", "162340.035000", "162340.495000", "162340.955000", "162341.415000", "162341.875000", "162342.335000", "162342.795000", "162343.255000", "162343.715000", "162344.175000", "162344.635000", "162345.095000", "162345.555000", "162346.015000", "162346.475000", "162346.935000", "162347.395000", "162347.855000", "162348.315000", "162348.775000", "162349.235000", "162349.695000", "162350.155000", "162350.615000", "162351.075000", "162351.535000", "162351.995000", "162352.455000", "162352.915000", "162353.375000", "162353.835000", "162354.295000", "162354.755000", "162355.215000", "162355.675000", "162356.135000", "162356.595000", "162357.055000", "162357.515000", "162357.975000", "162358.435000", "162358.895000", "162359.355000", "162359.815000", "162400.275000", "162400.735000", "162401.195000", "162401.655000", "162402.115000", "162402.575000", "162403.035000", "162403.495000", "162403.955000", "162404.415000", "162404.875000", "162405.335000", "162405.795000", "162406.255000", "162406.715000", "162407.175000", "162407.635000", "162408.095000", "162408.555000", "162409.015000", "162409.475000", "162409.935000", "162410.395000", "162410.855000", "162411.315000", "162411.775000", "162412.235000", "162412.695000", "162413.155000", "162413.615000", "162414.075000", "162414.535000", "162414.995000", "162415.455000", "162415.915000", "162416.375000", "162416.835000", "162417.295000", "162417.755000", "162418.215000", "162418.675000", "162419.135000", "162419.595000", "162420.055000", "162420.515000", "162420.975000", "162421.435000", "162421.895000", "162422.355000", "162422.815000", "162423.275000", "162423.735000", "162424.195000", "162424.655000", "162425.115000", "162425.575000", "162426.035000", "162426.495000", "162426.955000", "162427.415000", "162427.875000", "162428.335000", "162428.795000", "162429.255000", "162429.715000", "162430.175000", "162430.635000", "162431.095000", "162431.555000", "162432.015000", "162432.475000", "162432.935000", "162433.395000", "162433.855000", "162434.315000", "162434.775000", "162435.235000", "162435.695000", "162436.155000", "162436.615000", "162437.075000", "162437.535000", "162437.995000", "162438.455000", "162438.915000", "162439.375000", "162439.835000", "162440.295000", "162440.755000", "162441.215000", "162441.675000", "162442.135000", "162442.595000", "162443.055000", "162443.515000", "162443.975000", "162444.435000", "162444.895000", "162445.355000", "162445.815000", "162446.275000", "162446.735000", "162447.195000", "162447.655000", "162448.115000", "162448.575000", "162449.035000", "162449.495000", "162449.955000", "162450.415000", "162450.875000", "162451.335000", "162451.795000", "162452.255000", "162452.715000", "162453.175000", "162453.635000", "162454.095000", "162454.555000", "162455.015000", "162455.475000", "162455.935000", "162456.395000", "162456.855000", "162457.315000", "162457.775000", "162458.235000", "162458.695000", "162459.155000", "162459.615000", "162500.075000", "162500.535000", "162500.995000", "162501.455000", "162501.915000", "162502.375000", "162502.835000", "162503.295000", "162503.755000", "162504.215000", "162504.675000", "162505.135000", "162505.595000", "162506.055000", "162506.515000", "162506.975000", "162507.435000", "162507.895000", "162508.355000", "162508.815000", "162509.275000", "162509.735000", "162510.195000", "162510.655000", "162511.115000", "162511.575000", "162512.035000", "162512.495000", "162512.955000", "162513.415000", "162513.875000", "162514.335000", "162514.795000", "162515.255000", "162515.715000", "162516.175000", "162516.635000", "162517.095000", "162517.555000", "162518.015000", "162518.475000", "162518.935000", "162519.395000", "162519.855000", "162520.315000", "162520.775000", "162521.235000", "162521.695000", "162522.155000", "162522.615000", "162523.075000", "162523.535000", "162523.995000", "162524.455000", "162524.915000", "162525.375000", "162525.835000", "162526.295000", "162526.755000", "162527.215000", "162527.675000", "162528.135000", "162528.595000", "162529.055000", "162529.515000", "162529.975000", "162530.435000", "162530.895000", "162531.355000", "162531.815000", "162532.275000", "162532.735000", "162533.195000", "162533.655000", "162534.115000", "162534.575000", "162535.035000", "162535.495000", "162535.955000", "162536.415000", "162536.875000", "162537.335000", "162537.795000", "162538.255000", "162538.715000", "162539.175000", "162539.635000", "162540.095000", "162540.555000", "162541.015000", "162541.475000", "162541.935000", "162542.395000", "162542.855000", "162543.315000", "162543.775000", "162544.235000", "162544.695000", "162545.155000", "162545.615000", "162546.075000", "162546.535000", "162546.995000", "162547.455000", "162547.915000", "162548.375000", "162548.835000", "162549.295000", "162549.755000", "162550.215000", "162550.675000", "162551.135000", "162551.595000", "162552.055000", "162552.515000", "162552.975000", "162553.435000", "162553.895000", "162554.355000", "162554.815000", "162555.275000", "162555.735000", "162556.195000", "162556.655000", "162557.115000", "162557.575000", "162558.035000", "162558.495000", "162558.955000", "162559.415000", "162559.875000", "162600.335000", "162600.795000", "162601.255000", "162601.715000", "162602.175000", "162602.635000", "162603.095000", "162603.555000", "162604.015000", "162604.475000", "162604.935000", "162605.395000", "162605.855000", "162606.315000", "162606.775000", "162607.235000", "162607.695000", "162608.155000", "162608.615000", "162609.075000", "162609.535000", "162609.995000", "162610.455000", "162610.915000", "162611.375000", "162611.835000", "162612.295000", "162612.755000", "162613.215000", "162613.675000", "162614.135000", "162614.595000", "162615.055000", "162615.515000", "162615.975000", "162616.435000", "162616.895000", "162617.355000", "162617.815000", "162618.275000", "162618.735000", "162619.195000", "162619.655000", "162620.115000", "162620.575000", "162621.035000", "162621.495000", "162621.955000", "162622.415000", "162622.875000", "162623.335000", "162623.795000", "162624.255000", "162624.715000", "162625.175000", "162625.635000", "162626.095000", "162626.555000", "162627.015000", "162627.475000", "162627.935000", "162628.395000", "162628.855000", "162629.315000", "162629.775000", "162630.235000", "162630.695000", "162631.155000", "162631.615000", "162632.075000", "162632.535000", "162632.995000", "162633.455000", "162633.915000", "162634.375000", "162634.835000", "162635.295000", "162635.755000", "162636.215000", "162636.675000", "162637.135000", "162637.595000", "162638.055000", "162638.515000", "162638.975000", "162639.435000", "162639.895000", "162640.355000", "162640.815000", "162641.275000", "162641.735000", "162642.195000", "162642.655000", "162643.115000", "162643.575000", "162644.035000", "162644.495000", "162644.955000", "162645.415000", "162645.875000"],
