{
  "AcquisitionMatrixPE": 82,
  "AcquisitionNumber": 1,
  "AcquisitionTime": "15:18:7.097500",
  "BandwidthPerPixelPhaseEncode": 24.888,
  "BaseResolution": 82,
  "BodyPartExamined": "BRAIN",
  "ConsistencyInfo": "N4_VE11E_LATEST_20181129",
  "ConversionSoftware": "dcm2niix",
  "ConversionSoftwareVersion": "v1.0.20201102",
  "DerivedVendorReportedEchoSpacing": 0.00049,
  "DeviceSerialNumber": "66112",
  "DwellTime": 2e-06,
  "EchoTime": 0.0272,
  "EchoTrainLength": 82,
  "EffectiveEchoSpacing": 0.00049,
  "FlipAngle": 44,
  "ImageComments": "Unaliased MB8/PE3",
  "ImageOrientationPatientDICOM": [0.988788, 0.123504, -0.0839404, -0.118081, 0.990756, 0.0667743],
  "ImageType": [
    "ORIGINAL",
    "PRIMARY",
    "M",
    "MB",
    "ND",
    "NORM",
    "MOSAIC"
],
  "ImagingFrequency": 123.252,
  "InPlanePhaseEncodingDirectionDICOM": "COL",
  "InstitutionAddress": "Maynard 3,Hanover,NH,US,03755",
  "InstitutionName": "Dartmouth College - PBS",
  "InstitutionalDepartmentName": "Department",
  "MRAcquisitionType": "2D",
  "MagneticFieldStrength": 3,
  "Manufacturer": "Siemens",
  "ManufacturersModelName": "Prisma",
  "Modality": "MR",
  "MultibandAccelerationFactor": 8,
  "PartialFourier": 1,
  "PatientPosition": "HFS",
  "PercentPhaseFOV": 100,
  "PercentSampling": 100,
  "PhaseEncodingDirection": "j-",
  "PhaseEncodingSteps": 82,
  "PhaseResolution": 1,
  "PixelBandwidth": 3050,
  "ProcedureStepDescription": "Wager_Wager^1076_spacetop",
  "ProtocolName": "func_run-01_task-social_acq-ap-mb8",
  "PulseSequenceDetails": "%CustomerSeq%\\cmrr_mbep2d_bold",
  "ReceiveCoilActiveElements": "HEA;HEP",
  "ReceiveCoilName": "Head_32",
  "ReconMatrixPE": 82,
  "RepetitionTime": 0.46,
  "SAR": 0.0924284,
  "ScanOptions": "FS",
  "ScanningSequence": "EP",
  "SequenceName": "epfid2d1_82",
  "SequenceVariant": "SK\\SS",
  "SeriesDescription": "func_run-01_task-social_acq-ap-mb8",
  "SeriesNumber": 12,
  "ShimSetting": [4110, -7715, -7308, 549, -10, -67, 65, 48],
  "SliceThickness": 2.7,
  "SliceTiming": [0, 0.25, 0.0625, 0.315, 0.125, 0.3775, 0.1875, 0, 0.25, 0.0625, 0.315, 0.125, 0.3775, 0.1875, 0, 0.25, 0.0625, 0.315, 0.125, 0.3775, 0.1875, 0, 0.25, 0.0625, 0.315, 0.125, 0.3775, 0.1875, 0, 0.25, 0.0625, 0.315, 0.125, 0.3775, 0.1875, 0, 0.25, 0.0625, 0.315, 0.125, 0.3775, 0.1875, 0, 0.25, 0.0625, 0.315, 0.125, 0.3775, 0.1875, 0, 0.25, 0.0625, 0.315, 0.125, 0.3775, 0.1875],
  "SoftwareVersions": "syngo MR E11",
  "SpacingBetweenSlices": 2.7,
  "StationName": "AWP66112",
  "TaskName": "social",
  "TotalReadoutTime": 0.03969,
  "TxRefAmp": 250.893,
  "WipMemBlock": "a5711c39-20cf-47e0-91b3-a39b9f7a14ad||Sequence: R016 ve11e/master r/434b28f1; Aug  7 2019 18:53:46 by eja",
  "dcmmeta_affine": [
    [-2.6528446674346924, -0.3168022930622101, -0.2468107044696808, 134.1791229248047],
    [-0.33135107159614563, 2.6581268310546875, 0.15150736272335052, -80.68218231201172],
    [-0.22520603239536285, -0.1791505515575409, 2.6844234466552734, -70.10169219970703],
    [0.0, 0.0, 0.0, 1.0]
],
  "dcmmeta_reorient_transform": [
    [0.0, -1.0, 0.0, 81.0],
    [1.0, 0.0, 0.0, 0.0],
    [0.0, 0.0, 1.0, 0.0],
    [0.0, 0.0, 0.0, 1.0]
],
  "dcmmeta_shape": [82, 82, 56, 872],
  "dcmmeta_slice_dim": 2,
  "dcmmeta_version": 0.6,
  "global": {
    "const": {
      "AccessionNumber": "A004221",
      "AcquisitionMatrix": [82, 0, 0, 82],
      "AngioFlag": "N",
      "BitsAllocated": 16,
      "BitsStored": 16,
      "BodyPartExamined": "BRAIN",
      "Columns": 656,
      "EchoNumbers": 1,
      "EchoTime": 27.2,
      "EchoTrainLength": 82,
      "FlipAngle": 44.0,
      "HighBit": 15,
      "ImageOrientationPatient": [0.98878757688885, 0.12350357290955, -0.0839404269041, -0.1180808561229, 0.99075632962392, 0.06677429690709],
      "ImagePositionPatient": [-778.96233381021, -992.60623272474, -71.394964910432],
      "ImageType": [
        "ORIGINAL",
        "PRIMARY",
        "M",
        "MB",
        "ND",
        "NORM",
        "MOSAIC"
],
      "ImagedNucleus": "1H",
      "ImagingFrequency": 123.252229,
      "InPlanePhaseEncodingDirection": "COL",
      "MRAcquisitionType": "2D",
      "MagneticFieldStrength": 3.0,
      "Manufacturer": "SIEMENS",
      "ManufacturerModelName": "Prisma",
      "Modality": "MR",
      "NumberOfAverages": 1.0,
      "NumberOfPhaseEncodingSteps": 82,
      "PercentPhaseFieldOfView": 100.0,
      "PercentSampling": 100.0,
      "PerformedProcedureStepStartTime": "143943.129000",
      "PhotometricInterpretation": "MONOCHROME2",
      "PixelBandwidth": 3050.0,
      "PixelRepresentation": 0,
      "PixelSpacing": [2.6829268932343, 2.6829268932343],
      "ProtocolName": "func_run-01_task-social_acq-ap-mb8",
      "RepetitionTime": 460.0,
      "Rows": 656,
      "SAR": 0.09242843145658,
      "SamplesPerPixel": 1,
      "ScanOptions": "FS",
      "ScanningSequence": "EP",
      "SequenceName": "epfid2d1_82",
      "SequenceVariant": [
        "SK",
        "SS"
],
      "SeriesDescription": "func_run-01_task-social_acq-ap-mb8",
      "SeriesNumber": 12,
      "SeriesTime": "151827.748000",
      "SliceLocation": -86.490156105832,
      "SliceThickness": 2.7000000476837,
      "SmallestImagePixelValue": 0,
      "SoftwareVersions": "syngo MR E11",
      "SpacingBetweenSlices": 2.6999999623865,
      "SpecificCharacterSet": "ISO_IR 100",
      "StudyID": "1",
      "StudyTime": "143943.079000",
      "TransmitCoilName": "Body",
      "VariableFlipAngleFlag": "N",
      "WindowCenterWidthExplanation": "Algo1"
    },
    "slices": {}
  },
  "time": {
    "samples": {
      "AcquisitionNumber": [1, 2, 3, 4, 5, 6, 7, 8, 9, 10, 11, 12, 13, 14, 15, 16, 17, 18, 19, 20, 21, 22, 23, 24, 25, 26, 27, 28, 29, 30, 31, 32, 33, 34, 35, 36, 37, 38, 39, 40, 41, 42, 43, 44, 45, 46, 47, 48, 49, 50, 51, 52, 53, 54, 55, 56, 57, 58, 59, 60, 61, 62, 63, 64, 65, 66, 67, 68, 69, 70, 71, 72, 73, 74, 75, 76, 77, 78, 79, 80, 81, 82, 83, 84, 85, 86, 87, 88, 89, 90, 91, 92, 93, 94, 95, 96, 97, 98, 99, 100, 101, 102, 103, 104, 105, 106, 107, 108, 109, 110, 111, 112, 113, 114, 115, 116, 117, 118, 119, 120, 121, 122, 123, 124, 125, 126, 127, 128, 129, 130, 131, 132, 133, 134, 135, 136, 137, 138, 139, 140, 141, 142, 143, 144, 145, 146, 147, 148, 149, 150, 151, 152, 153, 154, 155, 156, 157, 158, 159, 160, 161, 162, 163, 164, 165, 166, 167, 168, 169, 170, 171, 172, 173, 174, 175, 176, 177, 178, 179, 180, 181, 182, 183, 184, 185, 186, 187, 188, 189, 190, 191, 192, 193, 194, 195, 196, 197, 198, 199, 200, 201, 202, 203, 204, 205, 206, 207, 208, 209, 210, 211, 212, 213, 214, 215, 216, 217, 218, 219, 220, 221, 222, 223, 224, 225, 226, 227, 228, 229, 230, 231, 232, 233, 234, 235, 236, 237, 238, 239, 240, 241, 242, 243, 244, 245, 246, 247, 248, 249, 250, 251, 252, 253, 254, 255, 256, 257, 258, 259, 260, 261, 262, 263, 264, 265, 266, 267, 268, 269, 270, 271, 272, 273, 274, 275, 276, 277, 278, 279, 280, 281, 282, 283, 284, 285, 286, 287, 288, 289, 290, 291, 292, 293, 294, 295, 296, 297, 298, 299, 300, 301, 302, 303, 304, 305, 306, 307, 308, 309, 310, 311, 312, 313, 314, 315, 316, 317, 318, 319, 320, 321, 322, 323, 324, 325, 326, 327, 328, 329, 330, 331, 332, 333, 334, 335, 336, 337, 338, 339, 340, 341, 342, 343, 344, 345, 346, 347, 348, 349, 350, 351, 352, 353, 354, 355, 356, 357, 358, 359, 360, 361, 362, 363, 364, 365, 366, 367, 368, 369, 370, 371, 372, 373, 374, 375, 376, 377, 378, 379, 380, 381, 382, 383, 384, 385, 386, 387, 388, 389, 390, 391, 392, 393, 394, 395, 396, 397, 398, 399, 400, 401, 402, 403, 404, 405, 406, 407, 408, 409, 410, 411, 412, 413, 414, 415, 416, 417, 418, 419, 420, 421, 422, 423, 424, 425, 426, 427, 428, 429, 430, 431, 432, 433, 434, 435, 436, 437, 438, 439, 440, 441, 442, 443, 444, 445, 446, 447, 448, 449, 450, 451, 452, 453, 454, 455, 456, 457, 458, 459, 460, 461, 462, 463, 464, 465, 466, 467, 468, 469, 470, 471, 472, 473, 474, 475, 476, 477, 478, 479, 480, 481, 482, 483, 484, 485, 486, 487, 488, 489, 490, 491, 492, 493, 494, 495, 496, 497, 498, 499, 500, 501, 502, 503, 504, 505, 506, 507, 508, 509, 510, 511, 512, 513, 514, 515, 516, 517, 518, 519, 520, 521, 522, 523, 524, 525, 526, 527, 528, 529, 530, 531, 532, 533, 534, 535, 536, 537, 538, 539, 540, 541, 542, 543, 544, 545, 546, 547, 548, 549, 550, 551, 552, 553, 554, 555, 556, 557, 558, 559, 560, 561, 562, 563, 564, 565, 566, 567, 568, 569, 570, 571, 572, 573, 574, 575, 576, 577, 578, 579, 580, 581, 582, 583, 584, 585, 586, 587, 588, 589, 590, 591, 592, 593, 594, 595, 596, 597, 598, 599, 600, 601, 602, 603, 604, 605, 606, 607, 608, 609, 610, 611, 612, 613, 614, 615, 616, 617, 618, 619, 620, 621, 622, 623, 624, 625, 626, 627, 628, 629, 630, 631, 632, 633, 634, 635, 636, 637, 638, 639, 640, 641, 642, 643, 644, 645, 646, 647, 648, 649, 650, 651, 652, 653, 654, 655, 656, 657, 658, 659, 660, 661, 662, 663, 664, 665, 666, 667, 668, 669, 670, 671, 672, 673, 674, 675, 676, 677, 678, 679, 680, 681, 682, 683, 684, 685, 686, 687, 688, 689, 690, 691, 692, 693, 694, 695, 696, 697, 698, 699, 700, 701, 702, 703, 704, 705, 706, 707, 708, 709, 710, 711, 712, 713, 714, 715, 716, 717, 718, 719, 720, 721, 722, 723, 724, 725, 726, 727, 728, 729, 730, 731, 732, 733, 734, 735, 736, 737, 738, 739, 740, 741, 742, 743, 744, 745, 746, 747, 748, 749, 750, 751, 752, 753, 754, 755, 756, 757, 758, 759, 760, 761, 762, 763, 764, 765, 766, 767, 768, 769, 770, 771, 772, 773, 774, 775, 776, 777, 778, 779, 780, 781, 782, 783, 784, 785, 786, 787, 788, 789, 790, 791, 792, 793, 794, 795, 796, 797, 798, 799, 800, 801, 802, 803, 804, 805, 806, 807, 808, 809, 810, 811, 812, 813, 814, 815, 816, 817, 818, 819, 820, 821, 822, 823, 824, 825, 826, 827, 828, 829, 830, 831, 832, 833, 834, 835, 836, 837, 838, 839, 840, 841, 842, 843, 844, 845, 846, 847, 848, 849, 850, 851, 852, 853, 854, 855, 856, 857, 858, 859, 860, 861, 862, 863, 864, 865, 866, 867, 868, 869, 870, 871, 872],
      "AcquisitionTime": ["151807.097500", "151807.557500", "151808.017500", "151808.477500", "151808.937500", "151809.397500", "151809.857500", "151810.317500", "151810.777500", "151811.237500", "151811.697500", "151812.157500", "151812.617500", "151813.077500", "151813.537500", "151813.997500", "151814.457500", "151814.917500", "151815.377500", "151815.837500", "151816.297500", "151816.757500", "151817.217500", "151817.677500", "151818.137500", "151818.597500", "151819.057500", "151819.517500", "151819.977500", "151820.437500", "151820.897500", "151821.357500", "151821.817500", "151822.277500", "151822.737500", "151823.197500", "151823.657500", "151824.117500", "151824.577500", "151825.037500", "151825.497500", "151825.957500", "151826.417500", "151826.877500", "151827.337500", "151827.797500", "151828.257500", "151828.717500", "151829.177500", "151829.637500", "151830.097500", "151830.557500", "151831.017500", "151831.477500", "151831.937500", "151832.397500", "151832.857500", "151833.317500", "151833.777500", "151834.237500", "151834.697500", "151835.157500", "151835.617500", "151836.077500", "151836.537500", "151836.997500", "151837.457500", "151837.917500", "151838.377500", "151838.837500", "151839.297500", "151839.757500", "151840.217500", "151840.677500", "151841.137500", "151841.597500", "151842.057500", "151842.517500", "151842.977500", "151843.437500", "151843.897500", "151844.357500", "151844.817500", "151845.277500", "151845.737500", "151846.197500", "151846.657500", "151847.117500", "151847.577500", "151848.037500", "151848.497500", "151848.957500", "151849.417500", "151849.877500", "151850.337500", "151850.797500", "151851.257500", "151851.717500", "151852.177500", "151852.637500", "151853.097500", "151853.557500", "151854.017500", "151854.477500", "151854.937500", "151855.397500", "151855.857500", "151856.317500", "151856.777500", "151857.237500", "151857.697500", "151858.157500", "151858.617500", "151859.077500", "151859.537500", "151859.997500", "151900.457500", "151900.917500", "151901.377500", "151901.837500", "151902.297500", "151902.757500", "151903.217500", "151903.677500", "151904.137500", "151904.597500", "151905.057500", "151905.517500", "151905.977500", "151906.437500", "151906.897500", "151907.357500", "151907.817500", "151908.277500", "151908.737500", "151909.197500", "151909.657500", "151910.117500", "151910.577500", "151911.037500", "151911.497500", "151911.957500", "151912.417500", "151912.877500", "151913.337500", "151913.797500", "151914.257500", "151914.717500", "151915.177500", "151915.637500", "151916.097500", "151916.557500", "151917.017500", "151917.477500", "151917.937500", "151918.397500", "151918.857500", "151919.317500", "151919.777500", "151920.237500", "151920.697500", "151921.157500", "151921.617500", "151922.077500", "151922.537500", "151922.997500", "151923.457500", "151923.917500", "151924.377500", "151924.837500", "151925.297500", "151925.757500", "151926.217500", "151926.677500", "151927.137500", "151927.597500", "151928.057500", "151928.517500", "151928.977500", "151929.437500", "151929.897500", "151930.357500", "151930.817500", "151931.277500", "151931.737500", "151932.197500", "151932.657500", "151933.117500", "151933.577500", "151934.037500", "151934.497500", "151934.957500", "151935.417500", "151935.877500", "151936.337500", "151936.797500", "151937.257500", "151937.717500", "151938.177500", "151938.637500", "151939.097500", "151939.557500", "151940.017500", "151940.477500", "151940.937500", "151941.397500", "151941.857500", "151942.317500", "151942.777500", "151943.237500", "151943.697500", "151944.157500", "151944.617500", "151945.077500", "151945.537500", "151945.997500", "151946.457500", "151946.917500", "151947.377500", "151947.837500", "151948.297500", "151948.757500", "151949.217500", "151949.677500", "151950.137500", "151950.597500", "151951.057500", "151951.517500", "151951.977500", "151952.437500", "151952.897500", "151953.357500", "151953.817500", "151954.277500", "151954.737500", "151955.197500", "151955.657500", "151956.117500", "151956.577500", "151957.037500", "151957.497500", "151957.957500", "151958.417500", "151958.877500", "151959.337500", "151959.797500", "152000.257500", "152000.717500", "152001.177500", "152001.637500", "152002.097500", "152002.557500", "152003.017500", "152003.477500", "152003.937500", "152004.397500", "152004.857500", "152005.317500", "152005.777500", "152006.237500", "152006.697500", "152007.157500", "152007.617500", "152008.077500", "152008.537500", "152008.997500", "152009.457500", "152009.917500", "152010.377500", "152010.837500", "152011.297500", "152011.757500", "152012.217500", "152012.677500", "152013.137500", "152013.597500", "152014.057500", "152014.517500", "152014.977500", "152015.437500", "152015.897500", "152016.357500", "152016.817500", "152017.277500", "152017.737500", "152018.197500", "152018.657500", "152019.117500", "152019.577500", "152020.037500", "152020.497500", "152020.957500", "152021.417500", "152021.877500", "152022.337500", "152022.797500", "152023.257500", "152023.717500", "152024.177500", "152024.637500", "152025.097500", "152025.557500", "152026.017500", "152026.477500", "152026.937500", "152027.397500", "152027.857500", "152028.317500", "152028.777500", "152029.237500", "152029.697500", "152030.157500", "152030.617500", "152031.077500", "152031.537500", "152031.997500", "152032.457500", "152032.917500", "152033.377500", "152033.837500", "152034.297500", "152034.757500", "152035.217500", "152035.677500", "152036.137500", "152036.597500", "152037.057500", "152037.517500", "152037.977500", "152038.437500", "152038.897500", "152039.357500", "152039.817500", "152040.277500", "152040.737500", "152041.197500", "152041.657500", "152042.117500", "152042.577500", "152043.037500", "152043.497500", "152043.957500", "152044.417500", "152044.877500", "152045.337500", "152045.797500", "152046.257500", "152046.717500", "152047.177500", "152047.637500", "152048.097500", "152048.557500", "152049.017500", "152049.477500", "152049.937500", "152050.397500", "152050.857500", "152051.317500", "152051.777500", "152052.237500", "152052.697500", "152053.157500", "152053.617500", "152054.077500", "152054.537500", "152054.997500", "152055.457500", "152055.917500", "152056.377500", "152056.837500", "152057.297500", "152057.757500", "152058.217500", "152058.677500", "152059.137500", "152059.597500", "152100.057500", "152100.517500", "152100.977500", "152101.437500", "152101.897500", "152102.357500", "152102.817500", "152103.277500", "152103.737500", "152104.197500", "152104.657500", "152105.117500", "152105.577500", "152106.037500", "152106.497500", "152106.957500", "152107.417500", "152107.877500", "152108.337500", "152108.797500", "152109.257500", "152109.717500", "152110.177500", "152110.637500", "152111.097500", "152111.557500", "152112.017500", "152112.477500", "152112.937500", "152113.397500", "152113.857500", "152114.317500", "152114.777500", "152115.237500", "152115.697500", "152116.157500", "152116.617500", "152117.077500", "152117.537500", "152117.997500", "152118.457500", "152118.917500", "152119.377500", "152119.837500", "152120.297500", "152120.757500", "152121.217500", "152121.677500", "152122.137500", "152122.597500", "152123.057500", "152123.517500", "152123.977500", "152124.437500", "152124.897500", "152125.357500", "152125.817500", "152126.277500", "152126.737500", "152127.197500", "152127.657500", "152128.117500", "152128.577500", "152129.037500", "152129.497500", "152129.957500", "152130.417500", "152130.877500", "152131.337500", "152131.797500", "152132.257500", "152132.717500", "152133.177500", "152133.637500", "152134.097500", "152134.557500", "152135.017500", "152135.477500", "152135.937500", "152136.397500", "152136.857500", "152137.317500", "152137.777500", "152138.237500", "152138.697500", "152139.157500", "152139.617500", "152140.077500", "152140.537500", "152140.997500", "152141.457500", "152141.917500", "152142.377500", "152142.837500", "152143.297500", "152143.757500", "152144.217500", "152144.677500", "152145.137500", "152145.597500", "152146.057500", "152146.517500", "152146.977500", "152147.437500", "152147.897500", "152148.357500", "152148.817500", "152149.277500", "152149.737500", "152150.197500", "152150.657500", "152151.117500", "152151.577500", "152152.037500", "152152.497500", "152152.957500", "152153.417500", "152153.877500", "152154.337500", "152154.797500", "152155.257500", "152155.717500", "152156.177500", "152156.637500", "152157.097500", "152157.557500", "152158.017500", "152158.477500", "152158.937500", "152159.397500", "152159.857500", "152200.317500", "152200.777500", "152201.237500", "152201.697500", "152202.157500", "152202.617500", "152203.077500", "152203.537500", "152203.997500", "152204.457500", "152204.917500", "152205.377500", "152205.837500", "152206.297500", "152206.757500", "152207.217500", "152207.677500", "152208.137500", "152208.597500", "152209.057500", "152209.517500", "152209.977500", "152210.437500", "152210.897500", "152211.357500", "152211.817500", "152212.277500", "152212.737500", "152213.197500", "152213.657500", "152214.117500", "152214.577500", "152215.037500", "152215.497500", "152215.957500", "152216.417500", "152216.877500", "152217.337500", "152217.797500", "152218.257500", "152218.717500", "152219.177500", "152219.637500", "152220.097500", "152220.557500", "152221.017500", "152221.477500", "152221.937500", "152222.397500", "152222.857500", "152223.317500", "152223.777500", "152224.237500", "152224.697500", "152225.157500", "152225.617500", "152226.077500", "152226.537500", "152226.997500", "152227.457500", "152227.917500", "152228.377500", "152228.837500", "152229.297500", "152229.757500", "152230.217500", "152230.677500", "152231.137500", "152231.597500", "152232.057500", "152232.517500", "152232.977500", "152233.437500", "152233.897500", "152234.357500", "152234.817500", "152235.277500", "152235.737500", "152236.197500", "152236.657500", "152237.117500", "152237.577500", "152238.037500", "152238.497500", "152238.957500", "152239.417500", "152239.877500", "152240.337500", "152240.797500", "152241.257500", "152241.717500", "152242.177500", "152242.637500", "152243.097500", "152243.557500", "152244.017500", "152244.477500", "152244.937500", "152245.397500", "152245.857500", "152246.317500", "152246.777500", "152247.237500", "152247.697500", "152248.157500", "152248.617500", "152249.077500", "152249.537500", "152249.997500", "152250.457500", "152250.917500", "152251.377500", "152251.837500", "152252.297500", "152252.757500", "152253.217500", "152253.677500", "152254.137500", "152254.597500", "152255.057500", "152255.517500", "152255.977500", "152256.437500", "152256.897500", "152257.357500", "152257.817500", "152258.277500", "152258.737500", "152259.197500", "152259.657500", "152300.117500", "152300.577500", "152301.037500", "152301.497500", "152301.957500", "152302.417500", "152302.877500", "152303.337500", "152303.797500", "152304.257500", "152304.717500", "152305.177500", "152305.637500", "152306.097500", "152306.557500", "152307.017500", "152307.477500", "152307.937500", "152308.397500", "152308.857500", "152309.317500", "152309.777500", "152310.237500", "152310.697500", "152311.157500", "152311.617500", "152312.077500", "152312.537500", "152312.997500", "152313.457500", "152313.917500", "152314.377500", "152314.837500", "152315.297500", "152315.757500", "152316.217500", "152316.677500", "152317.137500", "152317.597500", "152318.057500", "152318.517500", "152318.977500", "152319.437500", "152319.897500", "152320.357500", "152320.817500", "152321.277500", "152321.737500", "152322.197500", "152322.657500", "152323.117500", "152323.577500", "152324.037500", "152324.497500", "152324.957500", "152325.417500", "152325.877500", "152326.337500", "152326.797500", "152327.257500", "152327.717500", "152328.177500", "152328.637500", "152329.097500", "152329.557500", "152330.017500", "152330.477500", "152330.937500", "152331.397500", "152331.857500", "152332.317500", "152332.777500", "152333.237500", "152333.697500", "152334.157500", "152334.617500", "152335.077500", "152335.537500", "152335.997500", "152336.457500", "152336.917500", "152337.377500", "152337.837500", "152338.297500", "152338.757500", "152339.217500", "152339.677500", "152340.137500", "152340.597500", "152341.057500", "152341.517500", "152341.977500", "152342.437500", "152342.897500", "152343.357500", "152343.817500", "152344.277500", "152344.737500", "152345.197500", "152345.657500", "152346.117500", "152346.577500", "152347.037500", "152347.497500", "152347.957500", "152348.417500", "152348.877500", "152349.337500", "152349.797500", "152350.257500", "152350.717500", "152351.177500", "152351.637500", "152352.097500", "152352.557500", "152353.017500", "152353.477500", "152353.937500", "152354.397500", "152354.857500", "152355.317500", "152355.777500", "152356.237500", "152356.697500", "152357.157500", "152357.617500", "152358.077500", "152358.537500", "152358.997500", "152359.457500", "152359.917500", "152400.377500", "152400.837500", "152401.297500", "152401.757500", "152402.217500", "152402.677500", "152403.137500", "152403.597500", "152404.057500", "152404.517500", "152404.977500", "152405.437500", "152405.897500", "152406.357500", "152406.817500", "152407.277500", "152407.737500", "152408.197500", "152408.657500", "152409.117500", "152409.577500", "152410.037500", "152410.497500", "152410.957500", "152411.417500", "152411.877500", "152412.337500", "152412.797500", "152413.257500", "152413.717500", "152414.177500", "152414.637500", "152415.097500", "152415.557500", "152416.017500", "152416.477500", "152416.937500", "152417.397500", "152417.857500", "152418.317500", "152418.777500", "152419.237500", "152419.697500", "152420.157500", "152420.617500", "152421.077500", "152421.537500", "152421.997500", "152422.457500", "152422.917500", "152423.377500", "152423.837500", "152424.297500", "152424.757500", "152425.217500", "152425.677500", "152426.137500", "152426.597500", "152427.057500", "152427.517500", "152427.977500", "152428.437500", "152428.897500", "152429.357500", "152429.817500", "152430.277500", "152430.737500", "152431.197500", "152431.657500", "152432.117500", "152432.577500", "152433.037500", "152433.497500", "152433.957500", "152434.417500", "152434.877500", "152435.337500", "152435.797500", "152436.257500", "152436.717500", "152437.177500", "152437.637500", "152438.097500", "152438.557500", "152439.017500", "152439.477500", "152439.937500", "152440.397500", "152440.857500", "152441.317500", "152441.777500", "152442.237500", "152442.697500", "152443.157500", "152443.617500", "152444.077500", "152444.537500", "152444.997500", "152445.457500", "152445.917500", "152446.377500", "152446.837500", "152447.297500", "152447.757500"],
