{
  "AcquisitionMatrixPE": 82,
  "AcquisitionNumber": 1,
  "AcquisitionTime": "15:26:55.465000",
  "BandwidthPerPixelPhaseEncode": 24.888,
  "BaseResolution": 82,
  "BodyPartExamined": "BRAIN",
  "ConsistencyInfo": "N4_VE11E_LATEST_20181129",
  "ConversionSoftware": "dcm2niix",
  "ConversionSoftwareVersion": "v1.0.20201102",
  "DerivedVendorReportedEchoSpacing": 0.00049,
  "DeviceSerialNumber": "66112",
  "DwellTime": 2e-06,
  "EchoTime": 0.0272,
  "EchoTrainLength": 82,
  "EffectiveEchoSpacing": 0.00049,
  "FlipAngle": 44,
  "ImageComments": "Unaliased MB8/PE3",
  "ImageOrientationPatientDICOM": [0.988788, 0.123504, -0.0839404, -0.118081, 0.990756, 0.0667743],
  "ImageType": [
    "ORIGINAL",
    "PRIMARY",
    "M",
    "MB",
    "ND",
    "NORM",
    "MOSAIC"
],
  "ImagingFrequency": 123.252,
  "InPlanePhaseEncodingDirectionDICOM": "COL",
  "InstitutionAddress": "Maynard 3,Hanover,NH,US,03755",
  "InstitutionName": "Dartmouth College - PBS",
  "InstitutionalDepartmentName": "Department",
  "MRAcquisitionType": "2D",
  "MagneticFieldStrength": 3,
  "Manufacturer": "Siemens",
  "ManufacturersModelName": "Prisma",
  "Modality": "MR",
  "MultibandAccelerationFactor": 8,
  "PartialFourier": 1,
  "PatientPosition": "HFS",
  "PercentPhaseFOV": 100,
  "PercentSampling": 100,
  "PhaseEncodingDirection": "j-",
  "PhaseEncodingSteps": 82,
  "PhaseResolution": 1,
  "PixelBandwidth": 3050,
  "ProcedureStepDescription": "Wager_Wager^1076_spacetop",
  "ProtocolName": "func_run-02_task-social_acq-ap-mb8",
  "PulseSequenceDetails": "%CustomerSeq%\\cmrr_mbep2d_bold",
  "ReceiveCoilActiveElements": "HEA;HEP",
  "ReceiveCoilName": "Head_32",
  "ReconMatrixPE": 82,
  "RepetitionTime": 0.46,
  "SAR": 0.0924284,
  "ScanOptions": "FS",
  "ScanningSequence": "EP",
  "SequenceName": "epfid2d1_82",
  "SequenceVariant": "SK\\SS",
  "SeriesDescription": "func_run-02_task-social_acq-ap-mb8",
  "SeriesNumber": 14,
  "ShimSetting": [4110, -7715, -7308, 549, -10, -67, 65, 48],
  "SliceThickness": 2.7,
  "SliceTiming": [0, 0.2525, 0.0625, 0.315, 0.125, 0.3775, 0.1875, 0, 0.2525, 0.0625, 0.315, 0.125, 0.3775, 0.1875, 0, 0.2525, 0.0625, 0.315, 0.125, 0.3775, 0.1875, 0, 0.2525, 0.0625, 0.315, 0.125, 0.3775, 0.1875, 0, 0.2525, 0.0625, 0.315, 0.125, 0.3775, 0.1875, 0, 0.2525, 0.0625, 0.315, 0.125, 0.3775, 0.1875, 0, 0.2525, 0.0625, 0.315, 0.125, 0.3775, 0.1875, 0, 0.2525, 0.0625, 0.315, 0.125, 0.3775, 0.1875],
  "SoftwareVersions": "syngo MR E11",
  "SpacingBetweenSlices": 2.7,
  "StationName": "AWP66112",
  "TaskName": "social",
  "TotalReadoutTime": 0.03969,
  "TxRefAmp": 250.893,
  "WipMemBlock": "8d2cbb45-14fb-47ff-af83-92f65febae5f||Sequence: R016 ve11e/master r/434b28f1; Aug  7 2019 18:53:46 by eja",
  "dcmmeta_affine": [
    [-2.6528446674346924, -0.3168022930622101, -0.2468107044696808, 134.1791229248047],
    [-0.33135107159614563, 2.6581268310546875, 0.15150736272335052, -80.68218231201172],
    [-0.22520603239536285, -0.1791505515575409, 2.6844234466552734, -70.10169219970703],
    [0.0, 0.0, 0.0, 1.0]
],
  "dcmmeta_reorient_transform": [
    [0.0, -1.0, 0.0, 81.0],
    [1.0, 0.0, 0.0, 0.0],
    [0.0, 0.0, 1.0, 0.0],
    [0.0, 0.0, 0.0, 1.0]
],
  "dcmmeta_shape": [82, 82, 56, 872],
  "dcmmeta_slice_dim": 2,
  "dcmmeta_version": 0.6,
  "global": {
    "const": {
      "AccessionNumber": "A004221",
      "AcquisitionMatrix": [82, 0, 0, 82],
      "AngioFlag": "N",
      "BitsAllocated": 16,
      "BitsStored": 16,
      "BodyPartExamined": "BRAIN",
      "Columns": 656,
      "EchoNumbers": 1,
      "EchoTime": 27.2,
      "EchoTrainLength": 82,
      "FlipAngle": 44.0,
      "HighBit": 15,
      "ImageOrientationPatient": [0.98878757688885, 0.12350357290955, -0.0839404269041, -0.1180808561229, 0.99075632962392, 0.06677429690709],
      "ImagePositionPatient": [-778.96233381021, -992.60623272474, -71.394964910432],
      "ImageType": [
        "ORIGINAL",
        "PRIMARY",
        "M",
        "MB",
        "ND",
        "NORM",
        "MOSAIC"
],
      "ImagedNucleus": "1H",
      "ImagingFrequency": 123.252237,
      "InPlanePhaseEncodingDirection": "COL",
      "MRAcquisitionType": "2D",
      "MagneticFieldStrength": 3.0,
      "Manufacturer": "SIEMENS",
      "ManufacturerModelName": "Prisma",
      "Modality": "MR",
      "NumberOfAverages": 1.0,
      "NumberOfPhaseEncodingSteps": 82,
      "PercentPhaseFieldOfView": 100.0,
      "PercentSampling": 100.0,
      "PerformedProcedureStepStartTime": "143943.129000",
      "PhotometricInterpretation": "MONOCHROME2",
      "PixelBandwidth": 3050.0,
      "PixelRepresentation": 0,
      "PixelSpacing": [2.6829268932343, 2.6829268932343],
      "ProtocolName": "func_run-02_task-social_acq-ap-mb8",
      "RepetitionTime": 460.0,
      "Rows": 656,
      "SAR": 0.09242843145658,
      "SamplesPerPixel": 1,
      "ScanOptions": "FS",
      "ScanningSequence": "EP",
      "SequenceName": "epfid2d1_82",
      "SequenceVariant": [
        "SK",
        "SS"
],
      "SeriesDescription": "func_run-02_task-social_acq-ap-mb8",
      "SeriesNumber": 14,
      "SeriesTime": "152707.544000",
      "SliceLocation": -86.490156105832,
      "SliceThickness": 2.7000000476837,
      "SmallestImagePixelValue": 0,
      "SoftwareVersions": "syngo MR E11",
      "SpacingBetweenSlices": 2.6999999623865,
      "SpecificCharacterSet": "ISO_IR 100",
      "StudyID": "1",
      "StudyTime": "143943.079000",
      "TransmitCoilName": "Body",
      "VariableFlipAngleFlag": "N",
      "WindowCenterWidthExplanation": "Algo1"
    },
    "slices": {}
  },
  "time": {
    "samples": {
      "AcquisitionNumber": [1, 2, 3, 4, 5, 6, 7, 8, 9, 10, 11, 12, 13, 14, 15, 16, 17, 18, 19, 20, 21, 22, 23, 24, 25, 26, 27, 28, 29, 30, 31, 32, 33, 34, 35, 36, 37, 38, 39, 40, 41, 42, 43, 44, 45, 46, 47, 48, 49, 50, 51, 52, 53, 54, 55, 56, 57, 58, 59, 60, 61, 62, 63, 64, 65, 66, 67, 68, 69, 70, 71, 72, 73, 74, 75, 76, 77, 78, 79, 80, 81, 82, 83, 84, 85, 86, 87, 88, 89, 90, 91, 92, 93, 94, 95, 96, 97, 98, 99, 100, 101, 102, 103, 104, 105, 106, 107, 108, 109, 110, 111, 112, 113, 114, 115, 116, 117, 118, 119, 120, 121, 122, 123, 124, 125, 126, 127, 128, 129, 130, 131, 132, 133, 134, 135, 136, 137, 138, 139, 140, 141, 142, 143, 144, 145, 146, 147, 148, 149, 150, 151, 152, 153, 154, 155, 156, 157, 158, 159, 160, 161, 162, 163, 164, 165, 166, 167, 168, 169, 170, 171, 172, 173, 174, 175, 176, 177, 178, 179, 180, 181, 182, 183, 184, 185, 186, 187, 188, 189, 190, 191, 192, 193, 194, 195, 196, 197, 198, 199, 200, 201, 202, 203, 204, 205, 206, 207, 208, 209, 210, 211, 212, 213, 214, 215, 216, 217, 218, 219, 220, 221, 222, 223, 224, 225, 226, 227, 228, 229, 230, 231, 232, 233, 234, 235, 236, 237, 238, 239, 240, 241, 242, 243, 244, 245, 246, 247, 248, 249, 250, 251, 252, 253, 254, 255, 256, 257, 258, 259, 260, 261, 262, 263, 264, 265, 266, 267, 268, 269, 270, 271, 272, 273, 274, 275, 276, 277, 278, 279, 280, 281, 282, 283, 284, 285, 286, 287, 288, 289, 290, 291, 292, 293, 294, 295, 296, 297, 298, 299, 300, 301, 302, 303, 304, 305, 306, 307, 308, 309, 310, 311, 312, 313, 314, 315, 316, 317, 318, 319, 320, 321, 322, 323, 324, 325, 326, 327, 328, 329, 330, 331, 332, 333, 334, 335, 336, 337, 338, 339, 340, 341, 342, 343, 344, 345, 346, 347, 348, 349, 350, 351, 352, 353, 354, 355, 356, 357, 358, 359, 360, 361, 362, 363, 364, 365, 366, 367, 368, 369, 370, 371, 372, 373, 374, 375, 376, 377, 378, 379, 380, 381, 382, 383, 384, 385, 386, 387, 388, 389, 390, 391, 392, 393, 394, 395, 396, 397, 398, 399, 400, 401, 402, 403, 404, 405, 406, 407, 408, 409, 410, 411, 412, 413, 414, 415, 416, 417, 418, 419, 420, 421, 422, 423, 424, 425, 426, 427, 428, 429, 430, 431, 432, 433, 434, 435, 436, 437, 438, 439, 440, 441, 442, 443, 444, 445, 446, 447, 448, 449, 450, 451, 452, 453, 454, 455, 456, 457, 458, 459, 460, 461, 462, 463, 464, 465, 466, 467, 468, 469, 470, 471, 472, 473, 474, 475, 476, 477, 478, 479, 480, 481, 482, 483, 484, 485, 486, 487, 488, 489, 490, 491, 492, 493, 494, 495, 496, 497, 498, 499, 500, 501, 502, 503, 504, 505, 506, 507, 508, 509, 510, 511, 512, 513, 514, 515, 516, 517, 518, 519, 520, 521, 522, 523, 524, 525, 526, 527, 528, 529, 530, 531, 532, 533, 534, 535, 536, 537, 538, 539, 540, 541, 542, 543, 544, 545, 546, 547, 548, 549, 550, 551, 552, 553, 554, 555, 556, 557, 558, 559, 560, 561, 562, 563, 564, 565, 566, 567, 568, 569, 570, 571, 572, 573, 574, 575, 576, 577, 578, 579, 580, 581, 582, 583, 584, 585, 586, 587, 588, 589, 590, 591, 592, 593, 594, 595, 596, 597, 598, 599, 600, 601, 602, 603, 604, 605, 606, 607, 608, 609, 610, 611, 612, 613, 614, 615, 616, 617, 618, 619, 620, 621, 622, 623, 624, 625, 626, 627, 628, 629, 630, 631, 632, 633, 634, 635, 636, 637, 638, 639, 640, 641, 642, 643, 644, 645, 646, 647, 648, 649, 650, 651, 652, 653, 654, 655, 656, 657, 658, 659, 660, 661, 662, 663, 664, 665, 666, 667, 668, 669, 670, 671, 672, 673, 674, 675, 676, 677, 678, 679, 680, 681, 682, 683, 684, 685, 686, 687, 688, 689, 690, 691, 692, 693, 694, 695, 696, 697, 698, 699, 700, 701, 702, 703, 704, 705, 706, 707, 708, 709, 710, 711, 712, 713, 714, 715, 716, 717, 718, 719, 720, 721, 722, 723, 724, 725, 726, 727, 728, 729, 730, 731, 732, 733, 734, 735, 736, 737, 738, 739, 740, 741, 742, 743, 744, 745, 746, 747, 748, 749, 750, 751, 752, 753, 754, 755, 756, 757, 758, 759, 760, 761, 762, 763, 764, 765, 766, 767, 768, 769, 770, 771, 772, 773, 774, 775, 776, 777, 778, 779, 780, 781, 782, 783, 784, 785, 786, 787, 788, 789, 790, 791, 792, 793, 794, 795, 796, 797, 798, 799, 800, 801, 802, 803, 804, 805, 806, 807, 808, 809, 810, 811, 812, 813, 814, 815, 816, 817, 818, 819, 820, 821, 822, 823, 824, 825, 826, 827, 828, 829, 830, 831, 832, 833, 834, 835, 836, 837, 838, 839, 840, 841, 842, 843, 844, 845, 846, 847, 848, 849, 850, 851, 852, 853, 854, 855, 856, 857, 858, 859, 860, 861, 862, 863, 864, 865, 866, 867, 868, 869, 870, 871, 872],
      "AcquisitionTime": ["152655.465000", "152655.925000", "152656.385000", "152656.845000", "152657.305000", "152657.765000", "152658.225000", "152658.685000", "152659.145000", "152659.605000", "152700.065000", "152700.525000", "152700.985000", "152701.445000", "152701.905000", "152702.365000", "152702.825000", "152703.285000", "152703.745000", "152704.205000", "152704.665000", "152705.125000", "152705.585000", "152706.045000", "152706.505000", "152706.965000", "152707.425000", "152707.885000", "152708.345000", "152708.805000", "152709.265000", "152709.725000", "152710.185000", "152710.645000", "152711.105000", "152711.565000", "152712.025000", "152712.485000", "152712.945000", "152713.405000", "152713.865000", "152714.325000", "152714.785000", "152715.245000", "152715.705000", "152716.165000", "152716.625000", "152717.085000", "152717.545000", "152718.005000", "152718.465000", "152718.925000", "152719.385000", "152719.845000", "152720.305000", "152720.765000", "152721.225000", "152721.685000", "152722.145000", "152722.605000", "152723.065000", "152723.525000", "152723.985000", "152724.445000", "152724.905000", "152725.365000", "152725.825000", "152726.285000", "152726.745000", "152727.205000", "152727.665000", "152728.125000", "152728.585000", "152729.045000", "152729.505000", "152729.965000", "152730.425000", "152730.885000", "152731.345000", "152731.805000", "152732.265000", "152732.725000", "152733.185000", "152733.645000", "152734.105000", "152734.565000", "152735.025000", "152735.485000", "152735.945000", "152736.405000", "152736.865000", "152737.325000", "152737.785000", "152738.245000", "152738.705000", "152739.165000", "152739.625000", "152740.085000", "152740.545000", "152741.005000", "152741.465000", "152741.925000", "152742.385000", "152742.845000", "152743.305000", "152743.765000", "152744.225000", "152744.685000", "152745.145000", "152745.605000", "152746.065000", "152746.525000", "152746.985000", "152747.445000", "152747.905000", "152748.365000", "152748.825000", "152749.285000", "152749.745000", "152750.205000", "152750.665000", "152751.125000", "152751.585000", "152752.045000", "152752.505000", "152752.965000", "152753.425000", "152753.885000", "152754.345000", "152754.805000", "152755.265000", "152755.725000", "152756.185000", "152756.645000", "152757.105000", "152757.565000", "152758.025000", "152758.485000", "152758.945000", "152759.405000", "152759.865000", "152800.325000", "152800.785000", "152801.245000", "152801.705000", "152802.165000", "152802.625000", "152803.085000", "152803.545000", "152804.005000", "152804.465000", "152804.925000", "152805.385000", "152805.845000", "152806.305000", "152806.765000", "152807.225000", "152807.685000", "152808.145000", "152808.605000", "152809.065000", "152809.525000", "152809.985000", "152810.445000", "152810.905000", "152811.365000", "152811.825000", "152812.285000", "152812.745000", "152813.205000", "152813.665000", "152814.125000", "152814.585000", "152815.045000", "152815.505000", "152815.965000", "152816.425000", "152816.885000", "152817.345000", "152817.805000", "152818.265000", "152818.725000", "152819.185000", "152819.645000", "152820.105000", "152820.565000", "152821.025000", "152821.485000", "152821.945000", "152822.405000", "152822.865000", "152823.325000", "152823.785000", "152824.245000", "152824.705000", "152825.165000", "152825.625000", "152826.085000", "152826.545000", "152827.005000", "152827.465000", "152827.925000", "152828.385000", "152828.845000", "152829.305000", "152829.765000", "152830.225000", "152830.685000", "152831.145000", "152831.605000", "152832.065000", "152832.525000", "152832.985000", "152833.445000", "152833.905000", "152834.365000", "152834.825000", "152835.285000", "152835.745000", "152836.205000", "152836.665000", "152837.125000", "152837.585000", "152838.045000", "152838.505000", "152838.965000", "152839.425000", "152839.885000", "152840.345000", "152840.805000", "152841.265000", "152841.725000", "152842.185000", "152842.645000", "152843.105000", "152843.565000", "152844.025000", "152844.485000", "152844.945000", "152845.405000", "152845.865000", "152846.325000", "152846.785000", "152847.245000", "152847.705000", "152848.165000", "152848.625000", "152849.085000", "152849.545000", "152850.005000", "152850.465000", "152850.925000", "152851.385000", "152851.845000", "152852.305000", "152852.765000", "152853.225000", "152853.685000", "152854.145000", "152854.605000", "152855.065000", "152855.525000", "152855.985000", "152856.445000", "152856.905000", "152857.365000", "152857.825000", "152858.285000", "152858.745000", "152859.205000", "152859.665000", "152900.125000", "152900.585000", "152901.045000", "152901.505000", "152901.965000", "152902.425000", "152902.885000", "152903.345000", "152903.805000", "152904.265000", "152904.725000", "152905.185000", "152905.645000", "152906.105000", "152906.565000", "152907.025000", "152907.485000", "152907.945000", "152908.405000", "152908.865000", "152909.325000", "152909.785000", "152910.245000", "152910.705000", "152911.165000", "152911.625000", "152912.085000", "152912.545000", "152913.005000", "152913.465000", "152913.925000", "152914.385000", "152914.845000", "152915.305000", "152915.765000", "152916.225000", "152916.685000", "152917.145000", "152917.605000", "152918.065000", "152918.525000", "152918.985000", "152919.445000", "152919.905000", "152920.365000", "152920.825000", "152921.285000", "152921.745000", "152922.205000", "152922.665000", "152923.125000", "152923.585000", "152924.045000", "152924.505000", "152924.965000", "152925.425000", "152925.885000", "152926.345000", "152926.805000", "152927.265000", "152927.725000", "152928.185000", "152928.645000", "152929.105000", "152929.565000", "152930.025000", "152930.485000", "152930.945000", "152931.405000", "152931.865000", "152932.325000", "152932.785000", "152933.245000", "152933.705000", "152934.165000", "152934.625000", "152935.085000", "152935.545000", "152936.005000", "152936.465000", "152936.925000", "152937.385000", "152937.845000", "152938.305000", "152938.765000", "152939.225000", "152939.685000", "152940.145000", "152940.605000", "152941.065000", "152941.525000", "152941.985000", "152942.445000", "152942.905000", "152943.365000", "152943.825000", "152944.285000", "152944.745000", "152945.205000", "152945.665000", "152946.125000", "152946.585000", "152947.045000", "152947.505000", "152947.965000", "152948.425000", "152948.885000", "152949.345000", "152949.805000", "152950.265000", "152950.725000", "152951.185000", "152951.645000", "152952.105000", "152952.565000", "152953.025000", "152953.485000", "152953.945000", "152954.405000", "152954.865000", "152955.325000", "152955.785000", "152956.245000", "152956.705000", "152957.165000", "152957.625000", "152958.085000", "152958.545000", "152959.005000", "152959.465000", "152959.925000", "153000.385000", "153000.845000", "153001.305000", "153001.765000", "153002.225000", "153002.685000", "153003.145000", "153003.605000", "153004.065000", "153004.525000", "153004.985000", "153005.445000", "153005.905000", "153006.365000", "153006.825000", "153007.285000", "153007.745000", "153008.205000", "153008.665000", "153009.125000", "153009.585000", "153010.045000", "153010.505000", "153010.965000", "153011.425000", "153011.885000", "153012.345000", "153012.805000", "153013.265000", "153013.725000", "153014.185000", "153014.645000", "153015.105000", "153015.565000", "153016.025000", "153016.485000", "153016.945000", "153017.405000", "153017.865000", "153018.325000", "153018.785000", "153019.245000", "153019.705000", "153020.165000", "153020.625000", "153021.085000", "153021.545000", "153022.005000", "153022.465000", "153022.925000", "153023.385000", "153023.845000", "153024.305000", "153024.765000", "153025.225000", "153025.685000", "153026.145000", "153026.605000", "153027.065000", "153027.525000", "153027.985000", "153028.445000", "153028.905000", "153029.365000", "153029.825000", "153030.285000", "153030.745000", "153031.205000", "153031.665000", "153032.125000", "153032.585000", "153033.045000", "153033.505000", "153033.965000", "153034.425000", "153034.885000", "153035.345000", "153035.805000", "153036.265000", "153036.725000", "153037.185000", "153037.645000", "153038.105000", "153038.565000", "153039.025000", "153039.485000", "153039.945000", "153040.405000", "153040.865000", "153041.325000", "153041.785000", "153042.245000", "153042.705000", "153043.165000", "153043.625000", "153044.085000", "153044.545000", "153045.005000", "153045.465000", "153045.925000", "153046.385000", "153046.845000", "153047.305000", "153047.765000", "153048.225000", "153048.685000", "153049.145000", "153049.605000", "153050.065000", "153050.525000", "153050.985000", "153051.445000", "153051.905000", "153052.365000", "153052.825000", "153053.285000", "153053.745000", "153054.205000", "153054.665000", "153055.125000", "153055.585000", "153056.045000", "153056.505000", "153056.965000", "153057.425000", "153057.885000", "153058.345000", "153058.805000", "153059.265000", "153059.725000", "153100.185000", "153100.645000", "153101.105000", "153101.565000", "153102.025000", "153102.485000", "153102.945000", "153103.405000", "153103.865000", "153104.325000", "153104.785000", "153105.245000", "153105.705000", "153106.165000", "153106.625000", "153107.085000", "153107.545000", "153108.005000", "153108.465000", "153108.925000", "153109.385000", "153109.845000", "153110.305000", "153110.765000", "153111.225000", "153111.685000", "153112.145000", "153112.605000", "153113.065000", "153113.525000", "153113.985000", "153114.445000", "153114.905000", "153115.365000", "153115.825000", "153116.285000", "153116.745000", "153117.205000", "153117.665000", "153118.125000", "153118.585000", "153119.045000", "153119.505000", "153119.965000", "153120.425000", "153120.885000", "153121.345000", "153121.805000", "153122.265000", "153122.725000", "153123.185000", "153123.645000", "153124.105000", "153124.565000", "153125.025000", "153125.485000", "153125.945000", "153126.405000", "153126.865000", "153127.325000", "153127.785000", "153128.245000", "153128.705000", "153129.165000", "153129.625000", "153130.085000", "153130.545000", "153131.005000", "153131.465000", "153131.925000", "153132.385000", "153132.845000", "153133.305000", "153133.765000", "153134.225000", "153134.685000", "153135.145000", "153135.605000", "153136.065000", "153136.525000", "153136.985000", "153137.445000", "153137.905000", "153138.365000", "153138.825000", "153139.285000", "153139.745000", "153140.205000", "153140.665000", "153141.125000", "153141.585000", "153142.045000", "153142.505000", "153142.965000", "153143.425000", "153143.885000", "153144.345000", "153144.805000", "153145.265000", "153145.725000", "153146.185000", "153146.645000", "153147.105000", "153147.565000", "153148.025000", "153148.485000", "153148.945000", "153149.405000", "153149.865000", "153150.325000", "153150.785000", "153151.245000", "153151.705000", "153152.165000", "153152.625000", "153153.085000", "153153.545000", "153154.005000", "153154.465000", "153154.925000", "153155.385000", "153155.845000", "153156.305000", "153156.765000", "153157.225000", "153157.685000", "153158.145000", "153158.605000", "153159.065000", "153159.525000", "153159.985000", "153200.445000", "153200.905000", "153201.365000", "153201.825000", "153202.285000", "153202.745000", "153203.205000", "153203.665000", "153204.125000", "153204.585000", "153205.045000", "153205.505000", "153205.965000", "153206.425000", "153206.885000", "153207.345000", "153207.805000", "153208.265000", "153208.725000", "153209.185000", "153209.645000", "153210.105000", "153210.565000", "153211.025000", "153211.485000", "153211.945000", "153212.405000", "153212.865000", "153213.325000", "153213.785000", "153214.245000", "153214.705000", "153215.165000", "153215.625000", "153216.085000", "153216.545000", "153217.005000", "153217.465000", "153217.925000", "153218.385000", "153218.845000", "153219.305000", "153219.765000", "153220.225000", "153220.685000", "153221.145000", "153221.605000", "153222.065000", "153222.525000", "153222.985000", "153223.445000", "153223.905000", "153224.365000", "153224.825000", "153225.285000", "153225.745000", "153226.205000", "153226.665000", "153227.125000", "153227.585000", "153228.045000", "153228.505000", "153228.965000", "153229.425000", "153229.885000", "153230.345000", "153230.805000", "153231.265000", "153231.725000", "153232.185000", "153232.645000", "153233.105000", "153233.565000", "153234.025000", "153234.485000", "153234.945000", "153235.405000", "153235.865000", "153236.325000", "153236.785000", "153237.245000", "153237.705000", "153238.165000", "153238.625000", "153239.085000", "153239.545000", "153240.005000", "153240.465000", "153240.925000", "153241.385000", "153241.845000", "153242.305000", "153242.765000", "153243.225000", "153243.685000", "153244.145000", "153244.605000", "153245.065000", "153245.525000", "153245.985000", "153246.445000", "153246.905000", "153247.365000", "153247.825000", "153248.285000", "153248.745000", "153249.205000", "153249.665000", "153250.125000", "153250.585000", "153251.045000", "153251.505000", "153251.965000", "153252.425000", "153252.885000", "153253.345000", "153253.805000", "153254.265000", "153254.725000", "153255.185000", "153255.645000", "153256.105000", "153256.565000", "153257.025000", "153257.485000", "153257.945000", "153258.405000", "153258.865000", "153259.325000", "153259.785000", "153300.245000", "153300.705000", "153301.165000", "153301.625000", "153302.085000", "153302.545000", "153303.005000", "153303.465000", "153303.925000", "153304.385000", "153304.845000", "153305.305000", "153305.765000", "153306.225000", "153306.685000", "153307.145000", "153307.605000", "153308.065000", "153308.525000", "153308.985000", "153309.445000", "153309.905000", "153310.365000", "153310.825000", "153311.285000", "153311.745000", "153312.205000", "153312.665000", "153313.125000", "153313.585000", "153314.045000", "153314.505000", "153314.965000", "153315.425000", "153315.885000", "153316.345000", "153316.805000", "153317.265000", "153317.725000", "153318.185000", "153318.645000", "153319.105000", "153319.565000", "153320.025000", "153320.485000", "153320.945000", "153321.405000", "153321.865000", "153322.325000", "153322.785000", "153323.245000", "153323.705000", "153324.165000", "153324.625000", "153325.085000", "153325.545000", "153326.005000", "153326.465000", "153326.925000", "153327.385000", "153327.845000", "153328.305000", "153328.765000", "153329.225000", "153329.685000", "153330.145000", "153330.605000", "153331.065000", "153331.525000", "153331.985000", "153332.445000", "153332.905000", "153333.365000", "153333.825000", "153334.285000", "153334.745000", "153335.205000", "153335.665000", "153336.125000"],
