{
  "AcquisitionMatrixPE": 82,
  "AcquisitionNumber": 1,
  "AcquisitionTime": "15:36:12.987500",
  "BandwidthPerPixelPhaseEncode": 24.888,
  "BaseResolution": 82,
  "BodyPartExamined": "BRAIN",
  "ConsistencyInfo": "N4_VE11E_LATEST_20181129",
  "ConversionSoftware": "dcm2niix",
  "ConversionSoftwareVersion": "v1.0.20201102",
  "DerivedVendorReportedEchoSpacing": 0.00049,
  "DeviceSerialNumber": "66112",
  "DwellTime": 2e-06,
  "EchoTime": 0.0272,
  "EchoTrainLength": 82,
  "EffectiveEchoSpacing": 0.00049,
  "FlipAngle": 44,
  "ImageComments": "Unaliased MB8/PE3",
  "ImageOrientationPatientDICOM": [0.988788, 0.123504, -0.0839404, -0.118081, 0.990756, 0.0667743],
  "ImageType": [
    "ORIGINAL",
    "PRIMARY",
    "M",
    "MB",
    "ND",
    "NORM",
    "MOSAIC"
],
  "ImagingFrequency": 123.252,
  "InPlanePhaseEncodingDirectionDICOM": "COL",
  "InstitutionAddress": "Maynard 3,Hanover,NH,US,03755",
  "InstitutionName": "Dartmouth College - PBS",
  "InstitutionalDepartmentName": "Department",
  "MRAcquisitionType": "2D",
  "MagneticFieldStrength": 3,
  "Manufacturer": "Siemens",
  "ManufacturersModelName": "Prisma",
  "Modality": "MR",
  "MultibandAccelerationFactor": 8,
  "PartialFourier": 1,
  "PatientPosition": "HFS",
  "PercentPhaseFOV": 100,
  "PercentSampling": 100,
  "PhaseEncodingDirection": "j-",
  "PhaseEncodingSteps": 82,
  "PhaseResolution": 1,
  "PixelBandwidth": 3050,
  "ProcedureStepDescription": "Wager_Wager^1076_spacetop",
  "ProtocolName": "func_run-03_task-social_acq-ap-mb8",
  "PulseSequenceDetails": "%CustomerSeq%\\cmrr_mbep2d_bold",
  "ReceiveCoilActiveElements": "HEA;HEP",
  "ReceiveCoilName": "Head_32",
  "ReconMatrixPE": 82,
  "RepetitionTime": 0.46,
  "SAR": 0.0924284,
  "ScanOptions": "FS",
  "ScanningSequence": "EP",
  "SequenceName": "epfid2d1_82",
  "SequenceVariant": "SK\\SS",
  "SeriesDescription": "func_run-03_task-social_acq-ap-mb8",
  "SeriesNumber": 16,
  "ShimSetting": [4110, -7715, -7308, 549, -10, -67, 65, 48],
  "SliceThickness": 2.7,
  "SliceTiming": [0, 0.2525, 0.0625, 0.315, 0.125, 0.3775, 0.1875, 0, 0.2525, 0.0625, 0.315, 0.125, 0.3775, 0.1875, 0, 0.2525, 0.0625, 0.315, 0.125, 0.3775, 0.1875, 0, 0.2525, 0.0625, 0.315, 0.125, 0.3775, 0.1875, 0, 0.2525, 0.0625, 0.315, 0.125, 0.3775, 0.1875, 0, 0.2525, 0.0625, 0.315, 0.125, 0.3775, 0.1875, 0, 0.2525, 0.0625, 0.315, 0.125, 0.3775, 0.1875, 0, 0.2525, 0.0625, 0.315, 0.125, 0.3775, 0.1875],
  "SoftwareVersions": "syngo MR E11",
  "SpacingBetweenSlices": 2.7,
  "StationName": "AWP66112",
  "TaskName": "social",
  "TotalReadoutTime": 0.03969,
  "TxRefAmp": 250.893,
  "WipMemBlock": "fe2f3925-935d-4965-bfc2-464dd05a801e||Sequence: R016 ve11e/master r/434b28f1; Aug  7 2019 18:53:46 by eja",
  "dcmmeta_affine": [
    [-2.6528446674346924, -0.3168022930622101, -0.2468107044696808, 134.1791229248047],
    [-0.33135107159614563, 2.6581268310546875, 0.15150736272335052, -80.68218231201172],
    [-0.22520603239536285, -0.1791505515575409, 2.6844234466552734, -70.10169219970703],
    [0.0, 0.0, 0.0, 1.0]
],
  "dcmmeta_reorient_transform": [
    [0.0, -1.0, 0.0, 81.0],
    [1.0, 0.0, 0.0, 0.0],
    [0.0, 0.0, 1.0, 0.0],
    [0.0, 0.0, 0.0, 1.0]
],
  "dcmmeta_shape": [82, 82, 56, 872],
  "dcmmeta_slice_dim": 2,
  "dcmmeta_version": 0.6,
  "global": {
    "const": {
      "AccessionNumber": "A004221",
      "AcquisitionMatrix": [82, 0, 0, 82],
      "AngioFlag": "N",
      "BitsAllocated": 16,
      "BitsStored": 16,
      "BodyPartExamined": "BRAIN",
      "Columns": 656,
      "EchoNumbers": 1,
      "EchoTime": 27.2,
      "EchoTrainLength": 82,
      "FlipAngle": 44.0,
      "HighBit": 15,
      "ImageOrientationPatient": [0.98878757688885, 0.12350357290955, -0.0839404269041, -0.1180808561229, 0.99075632962392, 0.06677429690709],
      "ImagePositionPatient": [-778.96233381021, -992.60623272474, -71.394964910432],
      "ImageType": [
        "ORIGINAL",
        "PRIMARY",
        "M",
        "MB",
        "ND",
        "NORM",
        "MOSAIC"
],
      "ImagedNucleus": "1H",
      "ImagingFrequency": 123.252233,
      "InPlanePhaseEncodingDirection": "COL",
      "MRAcquisitionType": "2D",
      "MagneticFieldStrength": 3.0,
      "Manufacturer": "SIEMENS",
      "ManufacturerModelName": "Prisma",
      "Modality": "MR",
      "NumberOfAverages": 1.0,
      "NumberOfPhaseEncodingSteps": 82,
      "PercentPhaseFieldOfView": 100.0,
      "PercentSampling": 100.0,
      "PerformedProcedureStepStartTime": "143943.129000",
      "PhotometricInterpretation": "MONOCHROME2",
      "PixelBandwidth": 3050.0,
      "PixelRepresentation": 0,
      "PixelSpacing": [2.6829268932343, 2.6829268932343],
      "ProtocolName": "func_run-03_task-social_acq-ap-mb8",
      "RepetitionTime": 460.0,
      "Rows": 656,
      "SAR": 0.09242843145658,
      "SamplesPerPixel": 1,
      "ScanOptions": "FS",
      "ScanningSequence": "EP",
      "SequenceName": "epfid2d1_82",
      "SequenceVariant": [
        "SK",
        "SS"
],
      "SeriesDescription": "func_run-03_task-social_acq-ap-mb8",
      "SeriesNumber": 16,
      "SeriesTime": "153627.633000",
      "SliceLocation": -86.490156105832,
      "SliceThickness": 2.7000000476837,
      "SmallestImagePixelValue": 0,
      "SoftwareVersions": "syngo MR E11",
      "SpacingBetweenSlices": 2.6999999623865,
      "SpecificCharacterSet": "ISO_IR 100",
      "StudyID": "1",
      "StudyTime": "143943.079000",
      "TransmitCoilName": "Body",
      "VariableFlipAngleFlag": "N",
      "WindowCenterWidthExplanation": "Algo1"
    },
    "slices": {}
  },
  "time": {
    "samples": {
      "AcquisitionNumber": [1, 2, 3, 4, 5, 6, 7, 8, 9, 10, 11, 12, 13, 14, 15, 16, 17, 18, 19, 20, 21, 22, 23, 24, 25, 26, 27, 28, 29, 30, 31, 32, 33, 34, 35, 36, 37, 38, 39, 40, 41, 42, 43, 44, 45, 46, 47, 48, 49, 50, 51, 52, 53, 54, 55, 56, 57, 58, 59, 60, 61, 62, 63, 64, 65, 66, 67, 68, 69, 70, 71, 72, 73, 74, 75, 76, 77, 78, 79, 80, 81, 82, 83, 84, 85, 86, 87, 88, 89, 90, 91, 92, 93, 94, 95, 96, 97, 98, 99, 100, 101, 102, 103, 104, 105, 106, 107, 108, 109, 110, 111, 112, 113, 114, 115, 116, 117, 118, 119, 120, 121, 122, 123, 124, 125, 126, 127, 128, 129, 130, 131, 132, 133, 134, 135, 136, 137, 138, 139, 140, 141, 142, 143, 144, 145, 146, 147, 148, 149, 150, 151, 152, 153, 154, 155, 156, 157, 158, 159, 160, 161, 162, 163, 164, 165, 166, 167, 168, 169, 170, 171, 172, 173, 174, 175, 176, 177, 178, 179, 180, 181, 182, 183, 184, 185, 186, 187, 188, 189, 190, 191, 192, 193, 194, 195, 196, 197, 198, 199, 200, 201, 202, 203, 204, 205, 206, 207, 208, 209, 210, 211, 212, 213, 214, 215, 216, 217, 218, 219, 220, 221, 222, 223, 224, 225, 226, 227, 228, 229, 230, 231, 232, 233, 234, 235, 236, 237, 238, 239, 240, 241, 242, 243, 244, 245, 246, 247, 248, 249, 250, 251, 252, 253, 254, 255, 256, 257, 258, 259, 260, 261, 262, 263, 264, 265, 266, 267, 268, 269, 270, 271, 272, 273, 274, 275, 276, 277, 278, 279, 280, 281, 282, 283, 284, 285, 286, 287, 288, 289, 290, 291, 292, 293, 294, 295, 296, 297, 298, 299, 300, 301, 302, 303, 304, 305, 306, 307, 308, 309, 310, 311, 312, 313, 314, 315, 316, 317, 318, 319, 320, 321, 322, 323, 324, 325, 326, 327, 328, 329, 330, 331, 332, 333, 334, 335, 336, 337, 338, 339, 340, 341, 342, 343, 344, 345, 346, 347, 348, 349, 350, 351, 352, 353, 354, 355, 356, 357, 358, 359, 360, 361, 362, 363, 364, 365, 366, 367, 368, 369, 370, 371, 372, 373, 374, 375, 376, 377, 378, 379, 380, 381, 382, 383, 384, 385, 386, 387, 388, 389, 390, 391, 392, 393, 394, 395, 396, 397, 398, 399, 400, 401, 402, 403, 404, 405, 406, 407, 408, 409, 410, 411, 412, 413, 414, 415, 416, 417, 418, 419, 420, 421, 422, 423, 424, 425, 426, 427, 428, 429, 430, 431, 432, 433, 434, 435, 436, 437, 438, 439, 440, 441, 442, 443, 444, 445, 446, 447, 448, 449, 450, 451, 452, 453, 454, 455, 456, 457, 458, 459, 460, 461, 462, 463, 464, 465, 466, 467, 468, 469, 470, 471, 472, 473, 474, 475, 476, 477, 478, 479, 480, 481, 482, 483, 484, 485, 486, 487, 488, 489, 490, 491, 492, 493, 494, 495, 496, 497, 498, 499, 500, 501, 502, 503, 504, 505, 506, 507, 508, 509, 510, 511, 512, 513, 514, 515, 516, 517, 518, 519, 520, 521, 522, 523, 524, 525, 526, 527, 528, 529, 530, 531, 532, 533, 534, 535, 536, 537, 538, 539, 540, 541, 542, 543, 544, 545, 546, 547, 548, 549, 550, 551, 552, 553, 554, 555, 556, 557, 558, 559, 560, 561, 562, 563, 564, 565, 566, 567, 568, 569, 570, 571, 572, 573, 574, 575, 576, 577, 578, 579, 580, 581, 582, 583, 584, 585, 586, 587, 588, 589, 590, 591, 592, 593, 594, 595, 596, 597, 598, 599, 600, 601, 602, 603, 604, 605, 606, 607, 608, 609, 610, 611, 612, 613, 614, 615, 616, 617, 618, 619, 620, 621, 622, 623, 624, 625, 626, 627, 628, 629, 630, 631, 632, 633, 634, 635, 636, 637, 638, 639, 640, 641, 642, 643, 644, 645, 646, 647, 648, 649, 650, 651, 652, 653, 654, 655, 656, 657, 658, 659, 660, 661, 662, 663, 664, 665, 666, 667, 668, 669, 670, 671, 672, 673, 674, 675, 676, 677, 678, 679, 680, 681, 682, 683, 684, 685, 686, 687, 688, 689, 690, 691, 692, 693, 694, 695, 696, 697, 698, 699, 700, 701, 702, 703, 704, 705, 706, 707, 708, 709, 710, 711, 712, 713, 714, 715, 716, 717, 718, 719, 720, 721, 722, 723, 724, 725, 726, 727, 728, 729, 730, 731, 732, 733, 734, 735, 736, 737, 738, 739, 740, 741, 742, 743, 744, 745, 746, 747, 748, 749, 750, 751, 752, 753, 754, 755, 756, 757, 758, 759, 760, 761, 762, 763, 764, 765, 766, 767, 768, 769, 770, 771, 772, 773, 774, 775, 776, 777, 778, 779, 780, 781, 782, 783, 784, 785, 786, 787, 788, 789, 790, 791, 792, 793, 794, 795, 796, 797, 798, 799, 800, 801, 802, 803, 804, 805, 806, 807, 808, 809, 810, 811, 812, 813, 814, 815, 816, 817, 818, 819, 820, 821, 822, 823, 824, 825, 826, 827, 828, 829, 830, 831, 832, 833, 834, 835, 836, 837, 838, 839, 840, 841, 842, 843, 844, 845, 846, 847, 848, 849, 850, 851, 852, 853, 854, 855, 856, 857, 858, 859, 860, 861, 862, 863, 864, 865, 866, 867, 868, 869, 870, 871, 872],
      "AcquisitionTime": ["153612.987500", "153613.447500", "153613.907500", "153614.367500", "153614.827500", "153615.287500", "153615.747500", "153616.207500", "153616.667500", "153617.127500", "153617.587500", "153618.047500", "153618.507500", "153618.967500", "153619.427500", "153619.887500", "153620.347500", "153620.807500", "153621.267500", "153621.727500", "153622.187500", "153622.647500", "153623.107500", "153623.567500", "153624.027500", "153624.487500", "153624.947500", "153625.407500", "153625.867500", "153626.327500", "153626.787500", "153627.247500", "153627.707500", "153628.167500", "153628.627500", "153629.087500", "153629.547500", "153630.007500", "153630.467500", "153630.927500", "153631.387500", "153631.847500", "153632.307500", "153632.767500", "153633.227500", "153633.687500", "153634.147500", "153634.607500", "153635.067500", "153635.527500", "153635.987500", "153636.447500", "153636.907500", "153637.367500", "153637.827500", "153638.287500", "153638.747500", "153639.207500", "153639.667500", "153640.127500", "153640.587500", "153641.047500", "153641.507500", "153641.967500", "153642.427500", "153642.887500", "153643.347500", "153643.807500", "153644.267500", "153644.727500", "153645.187500", "153645.647500", "153646.107500", "153646.567500", "153647.027500", "153647.487500", "153647.947500", "153648.407500", "153648.867500", "153649.327500", "153649.787500", "153650.247500", "153650.707500", "153651.167500", "153651.627500", "153652.087500", "153652.547500", "153653.007500", "153653.467500", "153653.927500", "153654.387500", "153654.847500", "153655.307500", "153655.767500", "153656.227500", "153656.687500", "153657.147500", "153657.607500", "153658.067500", "153658.527500", "153658.987500", "153659.447500", "153659.907500", "153700.367500", "153700.827500", "153701.287500", "153701.747500", "153702.207500", "153702.667500", "153703.127500", "153703.587500", "153704.047500", "153704.507500", "153704.967500", "153705.427500", "153705.887500", "153706.347500", "153706.807500", "153707.267500", "153707.727500", "153708.187500", "153708.647500", "153709.107500", "153709.567500", "153710.027500", "153710.487500", "153710.947500", "153711.407500", "153711.867500", "153712.327500", "153712.787500", "153713.247500", "153713.707500", "153714.167500", "153714.627500", "153715.087500", "153715.547500", "153716.007500", "153716.467500", "153716.927500", "153717.387500", "153717.847500", "153718.307500", "153718.767500", "153719.227500", "153719.687500", "153720.147500", "153720.607500", "153721.067500", "153721.527500", "153721.987500", "153722.447500", "153722.907500", "153723.367500", "153723.827500", "153724.287500", "153724.747500", "153725.207500", "153725.667500", "153726.127500", "153726.587500", "153727.047500", "153727.507500", "153727.967500", "153728.427500", "153728.887500", "153729.347500", "153729.807500", "153730.267500", "153730.727500", "153731.187500", "153731.647500", "153732.107500", "153732.567500", "153733.027500", "153733.487500", "153733.947500", "153734.407500", "153734.867500", "153735.327500", "153735.787500", "153736.247500", "153736.707500", "153737.167500", "153737.627500", "153738.087500", "153738.547500", "153739.007500", "153739.467500", "153739.927500", "153740.387500", "153740.847500", "153741.307500", "153741.767500", "153742.227500", "153742.687500", "153743.147500", "153743.607500", "153744.067500", "153744.527500", "153744.987500", "153745.447500", "153745.907500", "153746.367500", "153746.827500", "153747.287500", "153747.747500", "153748.207500", "153748.667500", "153749.127500", "153749.587500", "153750.047500", "153750.507500", "153750.967500", "153751.427500", "153751.887500", "153752.347500", "153752.807500", "153753.267500", "153753.727500", "153754.187500", "153754.647500", "153755.107500", "153755.567500", "153756.027500", "153756.487500", "153756.947500", "153757.407500", "153757.867500", "153758.327500", "153758.787500", "153759.247500", "153759.707500", "153800.167500", "153800.627500", "153801.087500", "153801.547500", "153802.007500", "153802.467500", "153802.927500", "153803.387500", "153803.847500", "153804.307500", "153804.767500", "153805.227500", "153805.687500", "153806.147500", "153806.607500", "153807.067500", "153807.527500", "153807.987500", "153808.447500", "153808.907500", "153809.367500", "153809.827500", "153810.287500", "153810.747500", "153811.207500", "153811.667500", "153812.127500", "153812.587500", "153813.047500", "153813.507500", "153813.967500", "153814.427500", "153814.887500", "153815.347500", "153815.807500", "153816.267500", "153816.727500", "153817.187500", "153817.647500", "153818.107500", "153818.567500", "153819.027500", "153819.487500", "153819.947500", "153820.407500", "153820.867500", "153821.327500", "153821.787500", "153822.247500", "153822.707500", "153823.167500", "153823.627500", "153824.087500", "153824.547500", "153825.007500", "153825.467500", "153825.927500", "153826.387500", "153826.847500", "153827.307500", "153827.767500", "153828.227500", "153828.687500", "153829.147500", "153829.607500", "153830.067500", "153830.527500", "153830.987500", "153831.447500", "153831.907500", "153832.367500", "153832.827500", "153833.287500", "153833.747500", "153834.207500", "153834.667500", "153835.127500", "153835.587500", "153836.047500", "153836.507500", "153836.967500", "153837.427500", "153837.887500", "153838.347500", "153838.807500", "153839.267500", "153839.727500", "153840.187500", "153840.647500", "153841.107500", "153841.567500", "153842.027500", "153842.487500", "153842.947500", "153843.407500", "153843.867500", "153844.327500", "153844.787500", "153845.247500", "153845.707500", "153846.167500", "153846.627500", "153847.087500", "153847.547500", "153848.007500", "153848.467500", "153848.927500", "153849.387500", "153849.847500", "153850.307500", "153850.767500", "153851.227500", "153851.687500", "153852.147500", "153852.607500", "153853.067500", "153853.527500", "153853.987500", "153854.447500", "153854.907500", "153855.367500", "153855.827500", "153856.287500", "153856.747500", "153857.207500", "153857.667500", "153858.127500", "153858.587500", "153859.047500", "153859.507500", "153859.967500", "153900.427500", "153900.887500", "153901.347500", "153901.807500", "153902.267500", "153902.727500", "153903.187500", "153903.647500", "153904.107500", "153904.567500", "153905.027500", "153905.487500", "153905.947500", "153906.407500", "153906.867500", "153907.327500", "153907.787500", "153908.247500", "153908.707500", "153909.167500", "153909.627500", "153910.087500", "153910.547500", "153911.007500", "153911.467500", "153911.927500", "153912.387500", "153912.847500", "153913.307500", "153913.767500", "153914.227500", "153914.687500", "153915.147500", "153915.607500", "153916.067500", "153916.527500", "153916.987500", "153917.447500", "153917.907500", "153918.367500", "153918.827500", "153919.287500", "153919.747500", "153920.207500", "153920.667500", "153921.127500", "153921.587500", "153922.047500", "153922.507500", "153922.967500", "153923.427500", "153923.887500", "153924.347500", "153924.807500", "153925.267500", "153925.727500", "153926.187500", "153926.647500", "153927.107500", "153927.567500", "153928.027500", "153928.487500", "153928.947500", "153929.407500", "153929.867500", "153930.327500", "153930.787500", "153931.247500", "153931.707500", "153932.167500", "153932.627500", "153933.087500", "153933.547500", "153934.007500", "153934.467500", "153934.927500", "153935.387500", "153935.847500", "153936.307500", "153936.767500", "153937.227500", "153937.687500", "153938.147500", "153938.607500", "153939.067500", "153939.527500", "153939.987500", "153940.447500", "153940.907500", "153941.367500", "153941.827500", "153942.287500", "153942.747500", "153943.207500", "153943.667500", "153944.127500", "153944.587500", "153945.047500", "153945.507500", "153945.967500", "153946.427500", "153946.887500", "153947.347500", "153947.807500", "153948.267500", "153948.727500", "153949.187500", "153949.647500", "153950.107500", "153950.567500", "153951.027500", "153951.487500", "153951.947500", "153952.407500", "153952.867500", "153953.327500", "153953.787500", "153954.247500", "153954.707500", "153955.167500", "153955.627500", "153956.087500", "153956.547500", "153957.007500", "153957.467500", "153957.927500", "153958.387500", "153958.847500", "153959.307500", "153959.767500", "154000.227500", "154000.687500", "154001.147500", "154001.607500", "154002.067500", "154002.527500", "154002.987500", "154003.447500", "154003.907500", "154004.367500", "154004.827500", "154005.287500", "154005.747500", "154006.207500", "154006.667500", "154007.127500", "154007.587500", "154008.047500", "154008.507500", "154008.967500", "154009.427500", "154009.887500", "154010.347500", "154010.807500", "154011.267500", "154011.727500", "154012.187500", "154012.647500", "154013.107500", "154013.567500", "154014.027500", "154014.487500", "154014.947500", "154015.407500", "154015.867500", "154016.327500", "154016.787500", "154017.247500", "154017.707500", "154018.167500", "154018.627500", "154019.087500", "154019.547500", "154020.007500", "154020.467500", "154020.927500", "154021.387500", "154021.847500", "154022.307500", "154022.767500", "154023.227500", "154023.687500", "154024.147500", "154024.607500", "154025.067500", "154025.527500", "154025.987500", "154026.447500", "154026.907500", "154027.367500", "154027.827500", "154028.287500", "154028.747500", "154029.207500", "154029.667500", "154030.127500", "154030.587500", "154031.047500", "154031.507500", "154031.967500", "154032.427500", "154032.887500", "154033.347500", "154033.807500", "154034.267500", "154034.727500", "154035.187500", "154035.647500", "154036.107500", "154036.567500", "154037.027500", "154037.487500", "154037.947500", "154038.407500", "154038.867500", "154039.327500", "154039.787500", "154040.247500", "154040.707500", "154041.167500", "154041.627500", "154042.087500", "154042.547500", "154043.007500", "154043.467500", "154043.927500", "154044.387500", "154044.847500", "154045.307500", "154045.767500", "154046.227500", "154046.687500", "154047.147500", "154047.607500", "154048.067500", "154048.527500", "154048.987500", "154049.447500", "154049.907500", "154050.367500", "154050.827500", "154051.287500", "154051.747500", "154052.207500", "154052.667500", "154053.127500", "154053.587500", "154054.047500", "154054.507500", "154054.967500", "154055.427500", "154055.887500", "154056.347500", "154056.807500", "154057.267500", "154057.727500", "154058.187500", "154058.647500", "154059.107500", "154059.567500", "154100.027500", "154100.487500", "154100.947500", "154101.407500", "154101.867500", "154102.327500", "154102.787500", "154103.247500", "154103.707500", "154104.167500", "154104.627500", "154105.087500", "154105.547500", "154106.007500", "154106.467500", "154106.927500", "154107.387500", "154107.847500", "154108.307500", "154108.767500", "154109.227500", "154109.687500", "154110.147500", "154110.607500", "154111.067500", "154111.527500", "154111.987500", "154112.447500", "154112.907500", "154113.367500", "154113.827500", "154114.287500", "154114.747500", "154115.207500", "154115.667500", "154116.127500", "154116.587500", "154117.047500", "154117.507500", "154117.967500", "154118.427500", "154118.887500", "154119.347500", "154119.807500", "154120.267500", "154120.727500", "154121.187500", "154121.647500", "154122.107500", "154122.567500", "154123.027500", "154123.487500", "154123.947500", "154124.407500", "154124.867500", "154125.327500", "154125.787500", "154126.247500", "154126.707500", "154127.167500", "154127.627500", "154128.087500", "154128.547500", "154129.007500", "154129.467500", "154129.927500", "154130.387500", "154130.847500", "154131.307500", "154131.767500", "154132.227500", "154132.687500", "154133.147500", "154133.607500", "154134.067500", "154134.527500", "154134.987500", "154135.447500", "154135.907500", "154136.367500", "154136.827500", "154137.287500", "154137.747500", "154138.207500", "154138.667500", "154139.127500", "154139.587500", "154140.047500", "154140.507500", "154140.967500", "154141.427500", "154141.887500", "154142.347500", "154142.807500", "154143.267500", "154143.727500", "154144.187500", "154144.647500", "154145.107500", "154145.567500", "154146.027500", "154146.487500", "154146.947500", "154147.407500", "154147.867500", "154148.327500", "154148.787500", "154149.247500", "154149.707500", "154150.167500", "154150.627500", "154151.087500", "154151.547500", "154152.007500", "154152.467500", "154152.927500", "154153.387500", "154153.847500", "154154.307500", "154154.767500", "154155.227500", "154155.687500", "154156.147500", "154156.607500", "154157.067500", "154157.527500", "154157.987500", "154158.447500", "154158.907500", "154159.367500", "154159.827500", "154200.287500", "154200.747500", "154201.207500", "154201.667500", "154202.127500", "154202.587500", "154203.047500", "154203.507500", "154203.967500", "154204.427500", "154204.887500", "154205.347500", "154205.807500", "154206.267500", "154206.727500", "154207.187500", "154207.647500", "154208.107500", "154208.567500", "154209.027500", "154209.487500", "154209.947500", "154210.407500", "154210.867500", "154211.327500", "154211.787500", "154212.247500", "154212.707500", "154213.167500", "154213.627500", "154214.087500", "154214.547500", "154215.007500", "154215.467500", "154215.927500", "154216.387500", "154216.847500", "154217.307500", "154217.767500", "154218.227500", "154218.687500", "154219.147500", "154219.607500", "154220.067500", "154220.527500", "154220.987500", "154221.447500", "154221.907500", "154222.367500", "154222.827500", "154223.287500", "154223.747500", "154224.207500", "154224.667500", "154225.127500", "154225.587500", "154226.047500", "154226.507500", "154226.967500", "154227.427500", "154227.887500", "154228.347500", "154228.807500", "154229.267500", "154229.727500", "154230.187500", "154230.647500", "154231.107500", "154231.567500", "154232.027500", "154232.487500", "154232.947500", "154233.407500", "154233.867500", "154234.327500", "154234.787500", "154235.247500", "154235.707500", "154236.167500", "154236.627500", "154237.087500", "154237.547500", "154238.007500", "154238.467500", "154238.927500", "154239.387500", "154239.847500", "154240.307500", "154240.767500", "154241.227500", "154241.687500", "154242.147500", "154242.607500", "154243.067500", "154243.527500", "154243.987500", "154244.447500", "154244.907500", "154245.367500", "154245.827500", "154246.287500", "154246.747500", "154247.207500", "154247.667500", "154248.127500", "154248.587500", "154249.047500", "154249.507500", "154249.967500", "154250.427500", "154250.887500", "154251.347500", "154251.807500", "154252.267500", "154252.727500", "154253.187500", "154253.647500"],
