{
  "AcquisitionMatrixPE": 140,
  "AcquisitionNumber": 1,
  "AcquisitionTime": "14:50:11.195000",
  "BandwidthPerPixelPhaseEncode": 10.352,
  "BaseResolution": 140,
  "BodyPartExamined": "BRAIN",
  "ConsistencyInfo": "N4_VE11C_LATEST_20160120",
  "ConversionSoftware": "dcm2niix",
  "ConversionSoftwareVersion": "v1.0.20201102",
  "DerivedVendorReportedEchoSpacing": 0.000689998,
  "DeviceSerialNumber": "66112",
  "DiffusionScheme": "Monopolar",
  "DwellTime": 2.1e-06,
  "EchoTime": 0.088,
  "EchoTrainLength": 105,
  "EffectiveEchoSpacing": 0.000689998,
  "FlipAngle": 90,
  "ImageComments": "Unaliased MB3/PE3",
  "ImageOrientationPatientDICOM": [0.999592, 0.0104083, -0.0265933, -0.0123875, 0.997078, -0.0753753],
  "ImageType": [
    "ORIGINAL",
    "PRIMARY",
    "DIFFUSION",
    "NONE",
    "MB",
    "ND"
],
  "ImagingFrequency": 123.252,
  "InPlanePhaseEncodingDirectionDICOM": "COL",
  "InstitutionAddress": "Maynard 3,Hanover,NH,US,03755",
  "InstitutionName": "Dartmouth College - PBS",
  "InstitutionalDepartmentName": "Department",
  "MRAcquisitionType": "2D",
  "MagneticFieldStrength": 3,
  "Manufacturer": "Siemens",
  "ManufacturersModelName": "Prisma",
  "Modality": "MR",
  "MultibandAccelerationFactor": 3,
  "PartialFourier": 0.75,
  "PatientPosition": "HFS",
  "PercentPhaseFOV": 100,
  "PercentSampling": 100,
  "PhaseEncodingDirection": "j",
  "PhaseEncodingSteps": 105,
  "PhaseResolution": 1,
  "PixelBandwidth": 1700,
  "ProcedureStepDescription": "Wager_Wager^1076_spacetop",
  "ProtocolName": "dwi_acq-discorr-PA",
  "PulseSequenceDetails": "%CustomerSeq%\\cmrr_mbep2d_diff",
  "ReceiveCoilActiveElements": "HEA;HEP",
  "ReceiveCoilName": "Head_32",
  "ReconMatrixPE": 140,
  "RepetitionTime": 4.1,
  "SAR": 0.12945,
  "ScanOptions": "PFP\\FS",
  "ScanningSequence": "EP",
  "SequenceName": "ep_b0",
  "SequenceVariant": "SK\\SS",
  "SeriesDescription": "dwi_acq-discorr-PA",
  "SeriesNumber": 6,
  "ShimSetting": [4129, -7750, -7241, 512, -73, 16, -76, 67],
  "SliceThickness": 1.7,
  "SliceTiming": [0, 2.125, 0.15625, 2.28125, 0.3125, 2.42188, 0.45312, 2.57812, 0.60938, 2.73438, 0.76562, 2.875, 0.92188, 3.03125, 1.0625, 3.1875, 1.21875, 3.32812, 1.375, 3.48438, 1.51562, 3.64062, 1.67188, 3.78125, 1.8125, 3.9375, 1.96875, 0, 2.125, 0.15625, 2.28125, 0.3125, 2.42188, 0.45312, 2.57812, 0.60938, 2.73438, 0.76562, 2.875, 0.92188, 3.03125, 1.0625, 3.1875, 1.21875, 3.32812, 1.375, 3.48438, 1.51562, 3.64062, 1.67188, 3.78125, 1.8125, 3.9375, 1.96875, 0, 2.125, 0.15625, 2.28125, 0.3125, 2.42188, 0.45312, 2.57812, 0.60938, 2.73438, 0.76562, 2.875, 0.92188, 3.03125, 1.0625, 3.1875, 1.21875, 3.32812, 1.375, 3.48438, 1.51562, 3.64062, 1.67188, 3.78125, 1.8125, 3.9375, 1.96875],
  "SoftwareVersions": "syngo MR E11",
  "SpacingBetweenSlices": 1.7,
  "StationName": "AWP66112",
  "TotalReadoutTime": 0.0959097,
  "TxRefAmp": 257.728,
  "WipMemBlock": "fc51ea20-d1a6-44ad-8a60-2a98c632da26||Sequence: R016 ve11c/master r/e634e98; Dec 19 2017 11:11:25 by eja",
  "dcmmeta_affine": [
    [-1.7135865688323975, -0.021235642954707146, -0.04374289512634277, 127.71149444580078],
    [-0.017842870205640793, 1.7092770338058472, -0.1286449432373047, -85.37369537353516],
    [-0.04558845981955528, 0.1292148232460022, 1.6945648193359375, -43.83830642700195],
    [0.0, 0.0, 0.0, 1.0]
],
  "dcmmeta_reorient_transform": [
    [0.0, -1.0, 0.0, 139.0],
    [1.0, 0.0, 0.0, 0.0],
    [0.0, 0.0, -1.0, 80.0],
    [0.0, 0.0, 0.0, 1.0]
],
  "dcmmeta_shape": [140, 140, 81],
  "dcmmeta_slice_dim": 2,
  "dcmmeta_version": 0.6,
  "global": {
    "const": {
      "AccessionNumber": "A003446",
      "AcquisitionMatrix": [140, 0, 0, 140],
      "AcquisitionNumber": 1,
      "AngioFlag": "N",
      "BitsAllocated": 16,
      "BitsStored": 16,
      "BodyPartExamined": "BRAIN",
      "Columns": 140,
      "EchoNumbers": 1,
      "EchoTime": 88.0,
      "EchoTrainLength": 105,
      "FlipAngle": 90.0,
      "HighBit": 15,
      "ImageOrientationPatient": [0.99959214908024, 0.01040834046225, -0.0265932688094, -0.0123874584485, 0.9970782884507, -0.0753753114315],
      "ImageType": [
        "ORIGINAL",
        "PRIMARY",
        "DIFFUSION",
        "NONE",
        "MB",
        "ND"
],
      "ImagedNucleus": "1H",
      "ImagingFrequency": 123.252104,
      "InPlanePhaseEncodingDirection": "COL",
      "MRAcquisitionType": "2D",
      "MagneticFieldStrength": 3.0,
      "Manufacturer": "SIEMENS",
      "ManufacturerModelName": "Prisma",
      "Modality": "MR",
      "NumberOfAverages": 1.0,
      "NumberOfPhaseEncodingSteps": 105,
      "PercentPhaseFieldOfView": 100.0,
      "PercentSampling": 100.0,
      "PerformedProcedureStepStartTime": "135910.764000",
      "PhotometricInterpretation": "MONOCHROME2",
      "PixelBandwidth": 1700.0,
      "PixelRepresentation": 0,
      "PixelSpacing": [1.7142857313156, 1.7142857313156],
      "ProtocolName": "dwi_acq-discorr-PA",
      "RepetitionTime": 4100.0,
      "Rows": 140,
      "SAR": 0.12944964991338,
      "SamplesPerPixel": 1,
      "ScanOptions": [
        "PFP",
        "FS"
],
      "ScanningSequence": "EP",
      "SequenceName": "ep_b0",
      "SequenceVariant": [
        "SK",
        "SS"
],
      "SeriesDescription": "dwi_acq-discorr-PA",
      "SeriesNumber": 6,
      "SeriesTime": "145016.877000",
      "SliceThickness": 1.7000000476837,
      "SmallestImagePixelValue": 0,
      "SoftwareVersions": "syngo MR E11",
      "SpacingBetweenSlices": 1.7,
      "SpecificCharacterSet": "ISO_IR 100",
      "StudyID": "1",
      "StudyTime": "135910.610000",
      "TransmitCoilName": "Body",
      "VariableFlipAngleFlag": "N",
      "WindowCenterWidthExplanation": "Algo1",
      "dBdt": 0.0},
    "slices": {
      "AcquisitionTime": ["145011.195000", "145013.310000", "145011.345000", "145013.462500", "145011.497500", "145013.612500", "145011.647500", "145013.762500", "145011.800000", "145013.915000", "145011.950000", "145014.065000", "145012.102500", "145014.217500", "145012.252500", "145014.367500", "145012.402500", "145014.520000", "145012.555000", "145014.670000", "145012.705000", "145014.822500", "145012.857500", "145014.972500", "145013.007500", "145015.122500", "145013.160000", "145011.195000", "145013.310000", "145011.345000", "145013.462500", "145011.497500", "145013.612500", "145011.647500", "145013.762500", "145011.800000", "145013.915000", "145011.950000", "145014.065000", "145012.102500", "145014.217500", "145012.252500", "145014.367500", "145012.402500", "145014.520000", "145012.555000", "145014.670000", "145012.705000", "145014.822500", "145012.857500", "145014.972500", "145013.007500", "145015.122500", "145013.160000", "145011.195000", "145013.310000", "145011.345000", "145013.462500", "145011.497500", "145013.612500", "145011.647500", "145013.762500", "145011.800000", "145013.915000", "145011.950000", "145014.065000", "145012.102500", "145014.217500", "145012.252500", "145014.367500", "145012.402500", "145014.520000", "145012.555000", "145014.670000", "145012.705000", "145014.822500", "145012.857500", "145014.972500", "145013.007500", "145015.122500", "145013.160000"],
      "ContentTime": ["145016.880000", "145016.980000", "145016.894000", "145016.987000", "145016.900000", "145016.993000", "145016.907000", "145017.001000", "145016.913000", "145017.007000", "145016.920000", "145017.014000", "145016.926000", "145017.021000", "145016.933000", "145017.027000", "145016.939000", "145017.034000", "145016.946000", "145017.040000", "145016.952000", "145017.047000", "145016.959000", "145017.053000", "145016.967000", "145017.060000", "145016.974000", "145016.889000", "145016.982000", "145016.896000", "145016.989000", "145016.902000", "145016.995000", "145016.909000", "145017.003000", "145016.915000", "145017.010000", "145016.922000", "145017.016000", "145016.928000", "145017.023000", "145016.935000", "145017.029000", "145016.942000", "145017.036000", "145016.948000", "145017.042000", "145016.955000", "145017.049000", "145016.963000", "145017.055000", "145016.969000", "145017.062000", "145016.976000", "145016.891000", "145016.985000", "145016.898000", "145016.991000", "145016.905000", "145016.998000", "145016.911000", "145017.005000", "145016.918000", "145017.012000", "145016.924000", "145017.018000", "145016.931000", "145017.025000", "145016.937000", "145017.032000", "145016.944000", "145017.038000", "145016.950000", "145017.044000", "145016.957000", "145017.051000", "145016.965000", "145017.058000", "145016.972000", "145017.064000", "145016.978000"],
      "CsaImage.ICE_Dims": [
        "X_1_1_1_1_1_1_1_1_1_1_1_23",
        "X_1_1_1_1_1_1_42_1_1_2_1_23",
        "X_1_1_1_1_1_1_2_1_1_3_1_23",
        "X_1_1_1_1_1_1_43_1_1_4_1_23",
        "X_1_1_1_1_1_1_3_1_1_5_1_23",
        "X_1_1_1_1_1_1_44_1_1_6_1_23",
        "X_1_1_1_1_1_1_4_1_1_7_1_23",
        "X_1_1_1_1_1_1_45_1_1_8_1_23",
        "X_1_1_1_1_1_1_5_1_1_9_1_23",
        "X_1_1_1_1_1_1_46_1_1_10_1_23",
        "X_1_1_1_1_1_1_6_1_1_11_1_23",
        "X_1_1_1_1_1_1_47_1_1_12_1_23",
        "X_1_1_1_1_1_1_7_1_1_13_1_23",
        "X_1_1_1_1_1_1_48_1_1_14_1_23",
        "X_1_1_1_1_1_1_8_1_1_15_1_23",
        "X_1_1_1_1_1_1_49_1_1_16_1_23",
        "X_1_1_1_1_1_1_9_1_1_17_1_23",
        "X_1_1_1_1_1_1_50_1_1_18_1_23",
        "X_1_1_1_1_1_1_10_1_1_19_1_23",
        "X_1_1_1_1_1_1_51_1_1_20_1_23",
        "X_1_1_1_1_1_1_11_1_1_21_1_23",
        "X_1_1_1_1_1_1_52_1_1_22_1_23",
        "X_1_1_1_1_1_1_12_1_1_23_1_23",
        "X_1_1_1_1_1_1_53_1_1_24_1_23",
        "X_1_1_1_1_1_1_13_1_1_25_1_23",
        "X_1_1_1_1_1_1_54_1_1_26_1_23",
        "X_1_1_1_1_1_1_14_1_1_27_1_23",
        "X_1_1_1_1_1_1_55_1_1_28_1_23",
        "X_1_1_1_1_1_1_15_1_1_29_1_23",
        "X_1_1_1_1_1_1_56_1_1_30_1_23",
        "X_1_1_1_1_1_1_16_1_1_31_1_23",
        "X_1_1_1_1_1_1_57_1_1_32_1_23",
        "X_1_1_1_1_1_1_17_1_1_33_1_23",
        "X_1_1_1_1_1_1_58_1_1_34_1_23",
        "X_1_1_1_1_1_1_18_1_1_35_1_23",
        "X_1_1_1_1_1_1_59_1_1_36_1_23",
        "X_1_1_1_1_1_1_19_1_1_37_1_23",
        "X_1_1_1_1_1_1_60_1_1_38_1_23",
        "X_1_1_1_1_1_1_20_1_1_39_1_23",
        "X_1_1_1_1_1_1_61_1_1_40_1_23",
        "X_1_1_1_1_1_1_21_1_1_41_1_23",
        "X_1_1_1_1_1_1_62_1_1_42_1_23",
        "X_1_1_1_1_1_1_22_1_1_43_1_23",
        "X_1_1_1_1_1_1_63_1_1_44_1_23",
        "X_1_1_1_1_1_1_23_1_1_45_1_23",
        "X_1_1_1_1_1_1_64_1_1_46_1_23",
        "X_1_1_1_1_1_1_24_1_1_47_1_23",
        "X_1_1_1_1_1_1_65_1_1_48_1_23",
        "X_1_1_1_1_1_1_25_1_1_49_1_23",
        "X_1_1_1_1_1_1_66_1_1_50_1_23",
        "X_1_1_1_1_1_1_26_1_1_51_1_23",
        "X_1_1_1_1_1_1_67_1_1_52_1_23",
        "X_1_1_1_1_1_1_27_1_1_53_1_23",
        "X_1_1_1_1_1_1_68_1_1_54_1_23",
        "X_1_1_1_1_1_1_28_1_1_55_1_23",
        "X_1_1_1_1_1_1_69_1_1_56_1_23",
        "X_1_1_1_1_1_1_29_1_1_57_1_23",
        "X_1_1_1_1_1_1_70_1_1_58_1_23",
        "X_1_1_1_1_1_1_30_1_1_59_1_23",
        "X_1_1_1_1_1_1_71_1_1_60_1_23",
        "X_1_1_1_1_1_1_31_1_1_61_1_23",
        "X_1_1_1_1_1_1_72_1_1_62_1_23",
        "X_1_1_1_1_1_1_32_1_1_63_1_23",
        "X_1_1_1_1_1_1_73_1_1_64_1_23",
        "X_1_1_1_1_1_1_33_1_1_65_1_23",
        "X_1_1_1_1_1_1_74_1_1_66_1_23",
        "X_1_1_1_1_1_1_34_1_1_67_1_23",
        "X_1_1_1_1_1_1_75_1_1_68_1_23",
        "X_1_1_1_1_1_1_35_1_1_69_1_23",
        "X_1_1_1_1_1_1_76_1_1_70_1_23",
        "X_1_1_1_1_1_1_36_1_1_71_1_23",
        "X_1_1_1_1_1_1_77_1_1_72_1_23",
        "X_1_1_1_1_1_1_37_1_1_73_1_23",
        "X_1_1_1_1_1_1_78_1_1_74_1_23",
        "X_1_1_1_1_1_1_38_1_1_75_1_23",
        "X_1_1_1_1_1_1_79_1_1_76_1_23",
        "X_1_1_1_1_1_1_39_1_1_77_1_23",
        "X_1_1_1_1_1_1_80_1_1_78_1_23",
        "X_1_1_1_1_1_1_40_1_1_79_1_23",
        "X_1_1_1_1_1_1_81_1_1_80_1_23",
        "X_1_1_1_1_1_1_41_1_1_81_1_23"
],
      "CsaImage.ProtocolSliceNumber": [0, 1, 2, 3, 4, 5, 6, 7, 8, 9, 10, 11, 12, 13, 14, 15, 16, 17, 18, 19, 20, 21, 22, 23, 24, 25, 26, 27, 28, 29, 30, 31, 32, 33, 34, 35, 36, 37, 38, 39, 40, 41, 42, 43, 44, 45, 46, 47, 48, 49, 50, 51, 52, 53, 54, 55, 56, 57, 58, 59, 60, 61, 62, 63, 64, 65, 66, 67, 68, 69, 70, 71, 72, 73, 74, 75, 76, 77, 78, 79, 80],
      "CsaImage.SlicePosition_PCS": [
        [-124.75973055, -152.21588439, -25.87713924],
        [-124.71598789, -152.08723754, -24.18257823],
        [-124.67224475, -151.95859259, -22.48801723],
        [-124.6285021, -151.82994765, -20.79345622],
        [-124.58475944, -151.7013008, -19.09889713],
        [-124.54101678, -151.57265586, -17.40433612],
        [-124.49727365, -151.44400901, -15.70977512],
        [-124.45353099, -151.31536406, -14.01521411],
        [-124.40978834, -151.18671721, -12.32065311],
        [-124.36604568, -151.05807227, -10.6260921],
        [-124.32230302, -150.92942733, -8.9315311],
        [-124.27855989, -150.80078047, -7.23697009],
        [-124.23481723, -150.67213553, -5.54240909],
        [-124.19107458, -150.54348868, -3.84784808],
        [-124.14733192, -150.41484374, -2.15328708],
        [-124.10358879, -150.28619689, -0.45872608],
        [-124.05984613, -150.15755194, 1.23583493],
        [-124.01610347, -150.02890509, 2.93039593],
        [-123.97236082, -149.90026015, 4.62495694],
        [-123.92861768, -149.77161521, 6.31951794],
        [-123.88487503, -149.64296836, 8.01407895],
        [-123.84113237, -149.51432341, 9.70863971],
        [-123.79738971, -149.38567656, 11.40320078],
        [-123.75364658, -149.25703162, 13.09776172],
        [-123.70990392, -149.12838477, 14.79232273],
        [-123.66616127, -148.99973983, 16.48688349],
        [-123.62241861, -148.87109297, 18.1814445],
        [-123.57867595, -148.74244803, 19.8760055],
        [-123.53493282, -148.61380309, 21.57056698],
        [-123.49119016, -148.48515624, 23.26512704],
        [-123.44744751, -148.35651129, 24.95968804],
        [-123.40370485, -148.22786444, 26.65424905],
        [-123.35996172, -148.0992195, 28.348811],
        [-123.31621906, -147.97057265, 30.04337201],
        [-123.2724764, -147.84192771, 31.73793301],
        [-123.22873375, -147.71328276, 33.43249402],
        [-123.18499061, -147.58463591, 35.12705502],
        [-123.14124796, -147.45599097, 36.82161603],
        [-123.0975053, -147.32734412, 38.51617703],
        [-123.05376264, -147.19869918, 40.21073613],
        [-123.01001999, -147.07005233, 41.90529713],
        [-122.96627685, -146.94140738, 43.59985814],
        [-122.9225342, -146.81276053, 45.29441914],
        [-122.87879154, -146.68411559, 46.98898015],
        [-122.83504888, -146.55547065, 48.68354115],
        [-122.79130575, -146.42682379, 50.37810216],
        [-122.74756309, -146.29817885, 52.07266316],
        [-122.70382043, -146.169532, 53.76722417],
        [-122.66007778, -146.04088706, 55.46178517],
        [-122.61633464, -145.91224021, 57.15634618],
        [-122.57259199, -145.78359526, 58.85090718],
        [-122.52884933, -145.65494841, 60.54546818],
        [-122.48510667, -145.52630347, 62.24002919],
        [-122.44136378, -145.39765853, 63.93459019],
        [-122.39762088, -145.26901168, 65.6291512],
        [-122.35387823, -145.14036673, 67.3237122],
        [-122.31013557, -145.01171988, 69.01827321],
        [-122.26639268, -144.88307494, 70.71283421],
        [-122.22265002, -144.75442809, 72.40739522],
        [-122.17890712, -144.62578315, 74.10195622],
        [-122.13516447, -144.4971382, 75.79651723],
        [-122.09142157, -144.36849135, 77.49107442],
        [-122.04767892, -144.23984641, 79.18563924],
        [-122.00393602, -144.11119956, 80.88019643],
        [-121.96019336, -143.98255461, 82.57476124],
        [-121.91645047, -143.85390776, 84.26931843],
        [-121.87270781, -143.72526282, 85.96388325],
        [-121.82896492, -143.59661597, 87.65844044],
        [-121.78522226, -143.46797103, 89.35300526],
        [-121.74147936, -143.33932608, 91.04756245],
        [-121.69773671, -143.21067923, 92.74212727],
        [-121.65399405, -143.08203429, 94.43668446],
        [-121.61025116, -142.95338744, 96.13124928],
        [-121.5665085, -142.8247425, 97.82580647],
        [-121.5227656, -142.69609565, 99.52037129],
        [-121.47902295, -142.5674507, 101.21492848],
        [-121.43528005, -142.43880385, 102.9094933],
        [-121.3915374, -142.31015891, 104.60405049],
        [-121.3477945, -142.18151396, 106.29861531],
        [-121.30405184, -142.05286711, 107.9931725],
        [-121.26030895, -141.92422217, 109.68773732]
],
      "CsaImage.TimeAfterStart": [16.4, 18.515, 16.55, 18.665, 16.7025, 18.8175, 16.8525, 18.9675, 17.0025, 19.12, 17.155, 19.27, 17.305, 19.4225, 17.4575, 19.5725, 17.6075, 19.7225, 17.76, 19.875, 17.91, 20.025, 18.0625, 20.1775, 18.2125, 20.3275, 18.3625, 16.4, 18.515, 16.55, 18.665, 16.7025, 18.8175, 16.8525, 18.9675, 17.0025, 19.12, 17.155, 19.27, 17.305, 19.4225, 17.4575, 19.5725, 17.6075, 19.7225, 17.76, 19.875, 17.91, 20.025, 18.0625, 20.1775, 18.2125, 20.3275, 18.3625, 16.4, 18.515, 16.55, 18.665, 16.7025, 18.8175, 16.8525, 18.9675, 17.0025, 19.12, 17.155, 19.27, 17.305, 19.4225, 17.4575, 19.5725, 17.6075, 19.7225, 17.76, 19.875, 17.91, 20.025, 18.0625, 20.1775, 18.2125, 20.3275, 18.3625],
      "ImagePositionPatient": [
        [-124.75973054511, -152.21588438725, -25.877139237567],
        [-124.7159878884, -152.08723753666, -24.182578232928],
        [-124.67224475485, -151.95859259342, -22.48801722829],
        [-124.62850209815, -151.82994765019, -20.793456223651],
        [-124.58475944144, -151.7013007996, -19.098897126361],
        [-124.54101678473, -151.57265585636, -17.404336121722],
        [-124.49727365119, -151.44400900578, -15.709775117084],
        [-124.45353099448, -151.31536406254, -14.015214112445],
        [-124.40978833777, -151.18671721195, -12.320653107806],
        [-124.36604568106, -151.05807226872, -10.626092103168],
        [-124.32230302436, -150.92942732548, -8.931531098529],
        [-124.27855989081, -150.80078047489, -7.2369700938903],
        [-124.2348172341, -150.67213553166, -5.5424090892517],
        [-124.19107457739, -150.54348868107, -3.847848084613],
        [-124.14733192069, -150.41484373783, -2.1532870799743],
        [-124.10358878714, -150.28619688725, -0.4587260753356],
        [-124.05984613043, -150.15755194401, 1.235834929303],
        [-124.01610347373, -150.02890509342, 2.9303959339417],
        [-123.97236081702, -149.90026015019, 4.6249569385804],
        [-123.92861768347, -149.77161520695, 6.319517943219],
        [-123.88487502677, -149.64296835636, 8.0140789478577],
        [-123.84113237006, -149.51432341313, 9.7086397140778],
        [-123.79738971335, -149.38567656254, 11.403200778321],
        [-123.75364657981, -149.2570316193, 13.097761723355],
        [-123.7099039231, -149.12838476872, 14.792322727994],
        [-123.66616126639, -148.99973982548, 16.486883494214],
        [-123.62241860968, -148.87109297489, 18.181444498853],
        [-123.57867595297, -148.74244803166, 19.876005503491],
        [-123.53493281943, -148.61380308842, 21.570566984967],
        [-123.49119016272, -148.48515623783, 23.265127035931],
        [-123.44744750601, -148.3565112946, 24.95968804057],
        [-123.40370484931, -148.22786444401, 26.654249045209],
        [-123.35996171576, -148.09921950077, 28.348811003522],
        [-123.31621905905, -147.97057265019, 30.04337200816],
        [-123.27247640235, -147.84192770695, 31.737933012799],
        [-123.22873374564, -147.71328276371, 33.432494017438],
        [-123.18499061209, -147.58463591313, 35.127055022076],
        [-123.14124795539, -147.45599096989, 36.821616026715],
        [-123.09750529868, -147.3273441193, 38.516177031354],
        [-123.05376264197, -147.19869917607, 40.210736128644],
        [-123.01001998526, -147.07005232548, 41.905297133283],
        [-122.96627685172, -146.94140738224, 43.599858137921],
        [-122.92253419501, -146.81276053166, 45.29441914256],
        [-122.8787915383, -146.68411558842, 46.988980147199],
        [-122.83504888159, -146.55547064518, 48.683541151837],
        [-122.79130574805, -146.4268237946, 50.378102156476],
        [-122.74756309134, -146.29817885136, 52.072663161115],
        [-122.70382043463, -146.16953200077, 53.767224165753],
        [-122.66007777793, -146.04088705754, 55.461785170392],
        [-122.61633464438, -145.91224020695, 57.156346175031],
        [-122.57259198767, -145.78359526371, 58.850907179669],
        [-122.52884933097, -145.65494841313, 60.545468184308],
        [-122.48510667426, -145.52630346989, 62.240029188947],
        [-122.44136377913, -145.39765852665, 63.934590193585],
        [-122.397620884, -145.26901167607, 65.629151198224],
        [-122.3538782273, -145.14036673283, 67.323712202863],
        [-122.31013557059, -145.01171988224, 69.018273207501],
        [-122.26639267546, -144.883074939, 70.71283421214],
        [-122.22265001876, -144.75442808842, 72.407395216779],
        [-122.17890712363, -144.62578314518, 74.101956221417],
        [-122.13516446692, -144.49713820194, 75.796517226056],
        [-122.09142157179, -144.36849135136, 77.491074415997],
        [-122.04767891509, -144.23984640812, 79.185639235333],
        [-122.00393601996, -144.11119955754, 80.880196425275],
        [-121.96019336325, -143.9825546143, 82.574761244611],
        [-121.91645046813, -143.85390776371, 84.269318434552],
        [-121.87270781142, -143.72526282047, 85.963883253888],
        [-121.82896491629, -143.59661596989, 87.658440443829],
        [-121.78522225958, -143.46797102665, 89.353005263165],
        [-121.74147936446, -143.33932608341, 91.047562453107],
        [-121.69773670775, -143.21067923283, 92.742127272443],
        [-121.65399405104, -143.08203428959, 94.436684462384],
        [-121.61025115592, -142.953387439, 96.13124928172],
        [-121.56650849921, -142.82474249577, 97.825806471661],
        [-121.52276560408, -142.69609564518, 99.520371290997],
        [-121.47902294737, -142.56745070194, 101.21492848094],
        [-121.43528005225, -142.43880385136, 102.90949330027],
        [-121.39153739554, -142.31015890812, 104.60405049022],
        [-121.34779450041, -142.18151396488, 106.29861530955],
        [-121.30405184371, -142.0528671143, 107.99317249949],
        [-121.26030894858, -141.92422217106, 109.68773731883]
],
      "InstanceCreationTime": ["145016.880000", "145016.980000", "145016.894000", "145016.987000", "145016.900000", "145016.993000", "145016.907000", "145017.001000", "145016.913000", "145017.007000", "145016.920000", "145017.014000", "145016.926000", "145017.021000", "145016.933000", "145017.027000", "145016.939000", "145017.034000", "145016.946000", "145017.040000", "145016.952000", "145017.047000", "145016.959000", "145017.053000", "145016.967000", "145017.060000", "145016.974000", "145016.889000", "145016.982000", "145016.896000", "145016.989000", "145016.902000", "145016.995000", "145016.909000", "145017.003000", "145016.915000", "145017.010000", "145016.922000", "145017.016000", "145016.928000", "145017.023000", "145016.935000", "145017.029000", "145016.942000", "145017.036000", "145016.948000", "145017.042000", "145016.955000", "145017.049000", "145016.963000", "145017.055000", "145016.969000", "145017.062000", "145016.976000", "145016.891000", "145016.985000", "145016.898000", "145016.991000", "145016.905000", "145016.998000", "145016.911000", "145017.005000", "145016.918000", "145017.012000", "145016.924000", "145017.018000", "145016.931000", "145017.025000", "145016.937000", "145017.032000", "145016.944000", "145017.038000", "145016.950000", "145017.044000", "145016.957000", "145017.051000", "145016.965000", "145017.058000", "145016.972000", "145017.064000", "145016.978000"],
      "InstanceNumber": [1, 2, 3, 4, 5, 6, 7, 8, 9, 10, 11, 12, 13, 14, 15, 16, 17, 18, 19, 20, 21, 22, 23, 24, 25, 26, 27, 28, 29, 30, 31, 32, 33, 34, 35, 36, 37, 38, 39, 40, 41, 42, 43, 44, 45, 46, 47, 48, 49, 50, 51, 52, 53, 54, 55, 56, 57, 58, 59, 60, 61, 62, 63, 64, 65, 66, 67, 68, 69, 70, 71, 72, 73, 74, 75, 76, 77, 78, 79, 80, 81],
      "LargestImagePixelValue": [65535, 63382, 39974, 65535, 51940, 65535, 65535, 65535, 65535, 65535, 65535, 65535, 64383, 64205, 61105, 65535, 65535, 65535, 65535, 65535, 60367, 65535, 65535, 65535, 65535, 65535, 65535, 65535, 65535, 65535, 65535, 65535, 65535, 65535, 65535, 65535, 63276, 57628, 45328, 54436, 59044, 58020, 64770, 60715, 58936, 61512, 65535, 65535, 65535, 65236, 65535, 59624, 56692, 57589, 49136, 47147, 51665, 48493, 47697, 43366, 51937, 51339, 44242, 45565, 49378, 55696, 65535, 54724, 55575, 64594, 65535, 65535, 65535, 40146, 17985, 21565, 20524, 19500, 15848, 11454, 1039],
      "SliceLocation": [-40.523328135552, -38.823328008898, -37.123328014311, -35.423328031994, -33.723329806587, -32.02332982427, -30.323329685347, -28.62332970303, -26.923329576376, -25.223329594059, -23.523329611742, -21.823329472819, -20.123329490502, -18.423329363849, -16.723329381532, -15.023329242608, -13.323329260291, -11.623329133638, -9.9233291513208, -8.2233291567343, -6.5233290300807, -4.8233292854195, -3.1233290993519, -1.4233291641794, 0.27667096247428, 1.9766707071355, 3.6766708337891, 5.3766708161061, 7.0766712860041, 8.7766704620347, 10.476670444352, 12.176670571005, 13.876671516215, 15.576671642869, 17.276671625185, 18.976671607502, 20.676671746426, 22.376671728743, 24.076671855396, 25.776669936467, 27.476670063121, 29.176670057707, 30.876670184361, 32.576670166678, 34.276670148995, 35.976670287918, 37.676670270235, 39.376670396889, 41.076670379205, 42.776670518129, 44.476670500446, 46.176670627099, 47.876670609416, 49.576670597868, 51.276670730656, 52.976670712973, 54.676670839627, 56.376670828079, 58.076670954732, 59.776670943184, 61.476670925501, 63.176667255797, 64.876671040606, 66.576667370902, 68.276671155712, 69.976667486008, 71.676671270817, 73.376667601113, 75.076671385923, 76.776667571882, 78.476671501028, 80.176667680852, 81.876671616133, 83.576667795958, 85.276671731239, 86.976667911063, 88.676671846344, 90.376668026169, 92.076671817113, 93.776668141274, 95.476671932218],
      "WindowCenter": [8494.0, 8239.0, 7896.0, 9256.0, 8755.0, 9938.0, 9849.0, 10070.0, 9949.0, 9967.0, 10229.0, 10325.0, 10148.0, 9998.0, 9743.0, 9530.0, 9159.0, 9029.0, 9129.0, 9283.0, 9463.0, 9853.0, 9893.0, 10066.0, 10330.0, 10709.0, 10894.0, 10731.0, 10608.0, 10661.0, 10703.0, 11015.0, 11108.0, 11281.0, 11448.0, 11552.0, 11470.0, 11491.0, 11426.0, 11497.0, 11571.0, 11667.0, 11918.0, 11927.0, 12105.0, 12209.0, 12313.0, 12042.0, 12205.0, 12393.0, 12445.0, 12470.0, 12641.0, 12736.0, 12303.0, 12207.0, 12278.0, 12224.0, 12167.0, 11855.0, 12056.0, 11888.0, 11568.0, 11475.0, 11725.0, 11562.0, 11322.0, 11187.0, 10890.0, 10701.0, 10565.0, 10356.0, 8747.0, 6274.0, 4740.0, 4937.0, 5123.0, 5274.0, 4803.0, 1518.0, 1026.0],
      "WindowWidth": [18293.0, 18059.0, 17448.0, 21283.0, 19638.0, 23949.0, 23338.0, 23942.0, 23876.0, 24044.0, 24780.0, 24752.0, 23481.0, 22927.0, 22167.0, 21758.0, 20963.0, 20712.0, 20806.0, 20719.0, 20977.0, 22180.0, 22421.0, 23052.0, 23477.0, 24207.0, 24771.0, 24383.0, 23932.0, 23912.0, 23969.0, 24744.0, 24961.0, 25289.0, 25547.0, 25672.0, 25343.0, 25243.0, 25088.0, 25406.0, 25782.0, 26162.0, 26828.0, 26849.0, 27333.0, 27632.0, 28064.0, 27345.0, 27713.0, 28097.0, 28146.0, 28159.0, 28702.0, 29090.0, 27873.0, 27671.0, 28072.0, 27999.0, 27941.0, 26991.0, 27990.0, 27590.0, 26583.0, 26485.0, 28240.0, 28839.0, 29567.0, 29249.0, 29828.0, 28862.0, 27869.0, 24731.0, 20391.0, 14087.0, 10515.0, 11056.0, 11231.0, 11177.0, 9983.0, 4418.0, 2503.0]
    }
  }
}