{
  "AcquisitionMatrixPE": 140,
  "AcquisitionNumber": 1,
  "AcquisitionTime": "14:50:34.030000",
  "BandwidthPerPixelPhaseEncode": 10.352,
  "BaseResolution": 140,
  "BodyPartExamined": "BRAIN",
  "ConsistencyInfo": "N4_VE11C_LATEST_20160120",
  "ConversionSoftware": "dcm2niix",
  "ConversionSoftwareVersion": "v1.0.20201102",
  "DerivedVendorReportedEchoSpacing": 0.000689998,
  "DeviceSerialNumber": "66112",
  "DiffusionScheme": "Monopolar",
  "DwellTime": 2.1e-06,
  "EchoTime": 0.088,
  "EchoTrainLength": 105,
  "EffectiveEchoSpacing": 0.000689998,
  "FlipAngle": 90,
  "ImageComments": "Unaliased MB3/PE3",
  "ImageOrientationPatientDICOM": [0.999592, 0.0104083, -0.0265933, -0.0123875, 0.997078, -0.0753753],
  "ImageType": [
    "ORIGINAL",
    "PRIMARY",
    "DIFFUSION",
    "NONE",
    "MB",
    "ND"
],
  "ImagingFrequency": 123.252,
  "InPlanePhaseEncodingDirectionDICOM": "COL",
  "InstitutionAddress": "Maynard 3,Hanover,NH,US,03755",
  "InstitutionName": "Dartmouth College - PBS",
  "InstitutionalDepartmentName": "Department",
  "MRAcquisitionType": "2D",
  "MagneticFieldStrength": 3,
  "Manufacturer": "Siemens",
  "ManufacturersModelName": "Prisma",
  "Modality": "MR",
  "MultibandAccelerationFactor": 3,
  "PartialFourier": 0.75,
  "PatientPosition": "HFS",
  "PercentPhaseFOV": 100,
  "PercentSampling": 100,
  "PhaseEncodingDirection": "j-",
  "PhaseEncodingSteps": 105,
  "PhaseResolution": 1,
  "PixelBandwidth": 1700,
  "ProcedureStepDescription": "Wager_Wager^1076_spacetop",
  "ProtocolName": "dwi_acq-discorr-AP",
  "PulseSequenceDetails": "%CustomerSeq%\\cmrr_mbep2d_diff",
  "ReceiveCoilActiveElements": "HEA;HEP",
  "ReceiveCoilName": "Head_32",
  "ReconMatrixPE": 140,
  "RepetitionTime": 4.1,
  "SAR": 0.12945,
  "ScanOptions": "PFP\\FS",
  "ScanningSequence": "EP",
  "SequenceName": "ep_b0",
  "SequenceVariant": "SK\\SS",
  "SeriesDescription": "dwi_acq-discorr-AP",
  "SeriesNumber": 7,
  "ShimSetting": [4129, -7750, -7241, 512, -73, 16, -76, 67],
  "SliceThickness": 1.7,
  "SliceTiming": [0, 2.10938, 0.15625, 2.26562, 0.29688, 2.42188, 0.45312, 2.5625, 0.60938, 2.71875, 0.75, 2.875, 0.90625, 3.01562, 1.0625, 3.17188, 1.20312, 3.32812, 1.35938, 3.46875, 1.51562, 3.625, 1.65625, 3.78125, 1.8125, 3.92188, 1.96875, 0, 2.10938, 0.15625, 2.26562, 0.29688, 2.42188, 0.45312, 2.5625, 0.60938, 2.71875, 0.75, 2.875, 0.90625, 3.01562, 1.0625, 3.17188, 1.20312, 3.32812, 1.35938, 3.46875, 1.51562, 3.625, 1.65625, 3.78125, 1.8125, 3.92188, 1.96875, 0, 2.10938, 0.15625, 2.26562, 0.29688, 2.42188, 0.45312, 2.5625, 0.60938, 2.71875, 0.75, 2.875, 0.90625, 3.01562, 1.0625, 3.17188, 1.20312, 3.32812, 1.35938, 3.46875, 1.51562, 3.625, 1.65625, 3.78125, 1.8125, 3.92188, 1.96875],
  "SoftwareVersions": "syngo MR E11",
  "SpacingBetweenSlices": 1.7,
  "StationName": "AWP66112",
  "TotalReadoutTime": 0.0959097,
  "TxRefAmp": 257.728,
  "WipMemBlock": "dd782ffd-a800-458c-a0e4-db9beee9b37d||Sequence: R016 ve11c/master r/e634e98; Dec 19 2017 11:11:25 by eja",
  "dcmmeta_affine": [
    [-1.7135865688323975, -0.021235642954707146, -0.04374289512634277, 127.71149444580078],
    [-0.017842870205640793, 1.7092770338058472, -0.1286449432373047, -85.37369537353516],
    [-0.04558845981955528, 0.1292148232460022, 1.6945648193359375, -43.83830642700195],
    [0.0, 0.0, 0.0, 1.0]
],
  "dcmmeta_reorient_transform": [
    [0.0, -1.0, 0.0, 139.0],
    [1.0, 0.0, 0.0, 0.0],
    [0.0, 0.0, -1.0, 80.0],
    [0.0, 0.0, 0.0, 1.0]
],
  "dcmmeta_shape": [140, 140, 81],
  "dcmmeta_slice_dim": 2,
  "dcmmeta_version": 0.6,
  "global": {
    "const": {
      "AccessionNumber": "A003446",
      "AcquisitionMatrix": [140, 0, 0, 140],
      "AcquisitionNumber": 1,
      "AngioFlag": "N",
      "BitsAllocated": 16,
      "BitsStored": 16,
      "BodyPartExamined": "BRAIN",
      "Columns": 140,
      "EchoNumbers": 1,
      "EchoTime": 88.0,
      "EchoTrainLength": 105,
      "FlipAngle": 90.0,
      "HighBit": 15,
      "ImageOrientationPatient": [0.99959214908024, 0.01040834046225, -0.0265932688094, -0.0123874584485, 0.9970782884507, -0.0753753114315],
      "ImageType": [
        "ORIGINAL",
        "PRIMARY",
        "DIFFUSION",
        "NONE",
        "MB",
        "ND"
],
      "ImagedNucleus": "1H",
      "ImagingFrequency": 123.252105,
      "InPlanePhaseEncodingDirection": "COL",
      "MRAcquisitionType": "2D",
      "MagneticFieldStrength": 3.0,
      "Manufacturer": "SIEMENS",
      "ManufacturerModelName": "Prisma",
      "Modality": "MR",
      "NumberOfAverages": 1.0,
      "NumberOfPhaseEncodingSteps": 105,
      "PercentPhaseFieldOfView": 100.0,
      "PercentSampling": 100.0,
      "PerformedProcedureStepStartTime": "135910.764000",
      "PhotometricInterpretation": "MONOCHROME2",
      "PixelBandwidth": 1700.0,
      "PixelRepresentation": 0,
      "PixelSpacing": [1.7142857313156, 1.7142857313156],
      "ProtocolName": "dwi_acq-discorr-AP",
      "RepetitionTime": 4100.0,
      "Rows": 140,
      "SAR": 0.12944964991338,
      "SamplesPerPixel": 1,
      "ScanOptions": [
        "PFP",
        "FS"
],
      "ScanningSequence": "EP",
      "SequenceName": "ep_b0",
      "SequenceVariant": [
        "SK",
        "SS"
],
      "SeriesDescription": "dwi_acq-discorr-AP",
      "SeriesNumber": 7,
      "SeriesTime": "145038.708000",
      "SliceThickness": 1.7000000476837,
      "SmallestImagePixelValue": 0,
      "SoftwareVersions": "syngo MR E11",
      "SpacingBetweenSlices": 1.7,
      "SpecificCharacterSet": "ISO_IR 100",
      "StudyID": "1",
      "StudyTime": "135910.610000",
      "TransmitCoilName": "Body",
      "VariableFlipAngleFlag": "N",
      "WindowCenterWidthExplanation": "Algo1",
      "dBdt": 0.0},
    "slices": {
      "AcquisitionTime": ["145034.030000", "145036.147500", "145034.182500", "145036.297500", "145034.332500", "145036.447500", "145034.485000", "145036.600000", "145034.635000", "145036.750000", "145034.787500", "145036.902500", "145034.937500", "145037.052500", "145035.087500", "145037.205000", "145035.240000", "145037.355000", "145035.390000", "145037.507500", "145035.542500", "145037.657500", "145035.692500", "145037.807500", "145035.845000", "145037.960000", "145035.995000", "145034.030000", "145036.147500", "145034.182500", "145036.297500", "145034.332500", "145036.447500", "145034.485000", "145036.600000", "145034.635000", "145036.750000", "145034.787500", "145036.902500", "145034.937500", "145037.052500", "145035.087500", "145037.205000", "145035.240000", "145037.355000", "145035.390000", "145037.507500", "145035.542500", "145037.657500", "145035.692500", "145037.807500", "145035.845000", "145037.960000", "145035.995000", "145034.030000", "145036.147500", "145034.182500", "145036.297500", "145034.332500", "145036.447500", "145034.485000", "145036.600000", "145034.635000", "145036.750000", "145034.787500", "145036.902500", "145034.937500", "145037.052500", "145035.087500", "145037.205000", "145035.240000", "145037.355000", "145035.390000", "145037.507500", "145035.542500", "145037.657500", "145035.692500", "145037.807500", "145035.845000", "145037.960000", "145035.995000"],
      "ContentTime": ["145038.712000", "145038.818000", "145038.732000", "145038.825000", "145038.739000", "145038.831000", "145038.745000", "145038.838000", "145038.752000", "145038.844000", "145038.758000", "145038.851000", "145038.765000", "145038.857000", "145038.772000", "145038.872000", "145038.779000", "145038.878000", "145038.785000", "145038.885000", "145038.792000", "145038.892000", "145038.798000", "145038.898000", "145038.805000", "145038.905000", "145038.811000", "145038.717000", "145038.820000", "145038.734000", "145038.827000", "145038.741000", "145038.833000", "145038.747000", "145038.840000", "145038.754000", "145038.846000", "145038.761000", "145038.853000", "145038.767000", "145038.868000", "145038.774000", "145038.874000", "145038.781000", "145038.881000", "145038.788000", "145038.887000", "145038.794000", "145038.894000", "145038.800000", "145038.901000", "145038.807000", "145038.908000", "145038.813000", "145038.719000", "145038.822000", "145038.736000", "145038.829000", "145038.743000", "145038.836000", "145038.750000", "145038.842000", "145038.756000", "145038.849000", "145038.763000", "145038.855000", "145038.769000", "145038.870000", "145038.777000", "145038.876000", "145038.783000", "145038.883000", "145038.790000", "145038.889000", "145038.796000", "145038.896000", "145038.803000", "145038.903000", "145038.809000", "145038.910000", "145038.815000"],
      "CsaImage.ICE_Dims": [
        "X_1_1_1_1_1_1_1_1_1_1_1_25",
        "X_1_1_1_1_1_1_42_1_1_2_1_25",
        "X_1_1_1_1_1_1_2_1_1_3_1_25",
        "X_1_1_1_1_1_1_43_1_1_4_1_25",
        "X_1_1_1_1_1_1_3_1_1_5_1_25",
        "X_1_1_1_1_1_1_44_1_1_6_1_25",
        "X_1_1_1_1_1_1_4_1_1_7_1_25",
        "X_1_1_1_1_1_1_45_1_1_8_1_25",
        "X_1_1_1_1_1_1_5_1_1_9_1_25",
        "X_1_1_1_1_1_1_46_1_1_10_1_25",
        "X_1_1_1_1_1_1_6_1_1_11_1_25",
        "X_1_1_1_1_1_1_47_1_1_12_1_25",
        "X_1_1_1_1_1_1_7_1_1_13_1_25",
        "X_1_1_1_1_1_1_48_1_1_14_1_25",
        "X_1_1_1_1_1_1_8_1_1_15_1_25",
        "X_1_1_1_1_1_1_49_1_1_16_1_25",
        "X_1_1_1_1_1_1_9_1_1_17_1_25",
        "X_1_1_1_1_1_1_50_1_1_18_1_25",
        "X_1_1_1_1_1_1_10_1_1_19_1_25",
        "X_1_1_1_1_1_1_51_1_1_20_1_25",
        "X_1_1_1_1_1_1_11_1_1_21_1_25",
        "X_1_1_1_1_1_1_52_1_1_22_1_25",
        "X_1_1_1_1_1_1_12_1_1_23_1_25",
        "X_1_1_1_1_1_1_53_1_1_24_1_25",
        "X_1_1_1_1_1_1_13_1_1_25_1_25",
        "X_1_1_1_1_1_1_54_1_1_26_1_25",
        "X_1_1_1_1_1_1_14_1_1_27_1_25",
        "X_1_1_1_1_1_1_55_1_1_28_1_25",
        "X_1_1_1_1_1_1_15_1_1_29_1_25",
        "X_1_1_1_1_1_1_56_1_1_30_1_25",
        "X_1_1_1_1_1_1_16_1_1_31_1_25",
        "X_1_1_1_1_1_1_57_1_1_32_1_25",
        "X_1_1_1_1_1_1_17_1_1_33_1_25",
        "X_1_1_1_1_1_1_58_1_1_34_1_25",
        "X_1_1_1_1_1_1_18_1_1_35_1_25",
        "X_1_1_1_1_1_1_59_1_1_36_1_25",
        "X_1_1_1_1_1_1_19_1_1_37_1_25",
        "X_1_1_1_1_1_1_60_1_1_38_1_25",
        "X_1_1_1_1_1_1_20_1_1_39_1_25",
        "X_1_1_1_1_1_1_61_1_1_40_1_25",
        "X_1_1_1_1_1_1_21_1_1_41_1_25",
        "X_1_1_1_1_1_1_62_1_1_42_1_25",
        "X_1_1_1_1_1_1_22_1_1_43_1_25",
        "X_1_1_1_1_1_1_63_1_1_44_1_25",
        "X_1_1_1_1_1_1_23_1_1_45_1_25",
        "X_1_1_1_1_1_1_64_1_1_46_1_25",
        "X_1_1_1_1_1_1_24_1_1_47_1_25",
        "X_1_1_1_1_1_1_65_1_1_48_1_25",
        "X_1_1_1_1_1_1_25_1_1_49_1_25",
        "X_1_1_1_1_1_1_66_1_1_50_1_25",
        "X_1_1_1_1_1_1_26_1_1_51_1_25",
        "X_1_1_1_1_1_1_67_1_1_52_1_25",
        "X_1_1_1_1_1_1_27_1_1_53_1_25",
        "X_1_1_1_1_1_1_68_1_1_54_1_25",
        "X_1_1_1_1_1_1_28_1_1_55_1_25",
        "X_1_1_1_1_1_1_69_1_1_56_1_25",
        "X_1_1_1_1_1_1_29_1_1_57_1_25",
        "X_1_1_1_1_1_1_70_1_1_58_1_25",
        "X_1_1_1_1_1_1_30_1_1_59_1_25",
        "X_1_1_1_1_1_1_71_1_1_60_1_25",
        "X_1_1_1_1_1_1_31_1_1_61_1_25",
        "X_1_1_1_1_1_1_72_1_1_62_1_25",
        "X_1_1_1_1_1_1_32_1_1_63_1_25",
        "X_1_1_1_1_1_1_73_1_1_64_1_25",
        "X_1_1_1_1_1_1_33_1_1_65_1_25",
        "X_1_1_1_1_1_1_74_1_1_66_1_25",
        "X_1_1_1_1_1_1_34_1_1_67_1_25",
        "X_1_1_1_1_1_1_75_1_1_68_1_25",
        "X_1_1_1_1_1_1_35_1_1_69_1_25",
        "X_1_1_1_1_1_1_76_1_1_70_1_25",
        "X_1_1_1_1_1_1_36_1_1_71_1_25",
        "X_1_1_1_1_1_1_77_1_1_72_1_25",
        "X_1_1_1_1_1_1_37_1_1_73_1_25",
        "X_1_1_1_1_1_1_78_1_1_74_1_25",
        "X_1_1_1_1_1_1_38_1_1_75_1_25",
        "X_1_1_1_1_1_1_79_1_1_76_1_25",
        "X_1_1_1_1_1_1_39_1_1_77_1_25",
        "X_1_1_1_1_1_1_80_1_1_78_1_25",
        "X_1_1_1_1_1_1_40_1_1_79_1_25",
        "X_1_1_1_1_1_1_81_1_1_80_1_25",
        "X_1_1_1_1_1_1_41_1_1_81_1_25"
],
      "CsaImage.ProtocolSliceNumber": [0, 1, 2, 3, 4, 5, 6, 7, 8, 9, 10, 11, 12, 13, 14, 15, 16, 17, 18, 19, 20, 21, 22, 23, 24, 25, 26, 27, 28, 29, 30, 31, 32, 33, 34, 35, 36, 37, 38, 39, 40, 41, 42, 43, 44, 45, 46, 47, 48, 49, 50, 51, 52, 53, 54, 55, 56, 57, 58, 59, 60, 61, 62, 63, 64, 65, 66, 67, 68, 69, 70, 71, 72, 73, 74, 75, 76, 77, 78, 79, 80],
      "CsaImage.RFSWDDataType": [
        "predicted",
        "predicted",
        "predicted",
        "predicted",
        "predicted",
        "predicted",
        "predicted",
        "predicted",
        "predicted",
        "predicted",
        "predicted",
        "predicted",
        "predicted",
        "predicted",
        "predicted",
        "predicted",
        "predicted",
        "predicted",
        "predicted",
        "predicted",
        "predicted",
        "predicted",
        "predicted",
        "predicted",
        "predicted",
        "measured",
        "predicted",
        "predicted",
        "predicted",
        "predicted",
        "predicted",
        "predicted",
        "predicted",
        "predicted",
        "predicted",
        "predicted",
        "predicted",
        "predicted",
        "predicted",
        "predicted",
        "predicted",
        "predicted",
        "predicted",
        "predicted",
        "predicted",
        "predicted",
        "predicted",
        "predicted",
        "predicted",
        "predicted",
        "predicted",
        "predicted",
        "measured",
        "predicted",
        "predicted",
        "predicted",
        "predicted",
        "predicted",
        "predicted",
        "predicted",
        "predicted",
        "predicted",
        "predicted",
        "predicted",
        "predicted",
        "predicted",
        "predicted",
        "predicted",
        "predicted",
        "predicted",
        "predicted",
        "predicted",
        "predicted",
        "predicted",
        "predicted",
        "predicted",
        "predicted",
        "predicted",
        "predicted",
        "measured",
        "predicted"
],
      "CsaImage.SlicePosition_PCS": [
        [-124.75973055, -152.21588439, -25.87713924],
        [-124.71598789, -152.08723754, -24.18257823],
        [-124.67224475, -151.95859259, -22.48801723],
        [-124.6285021, -151.82994765, -20.79345622],
        [-124.58475944, -151.7013008, -19.09889713],
        [-124.54101678, -151.57265586, -17.40433612],
        [-124.49727365, -151.44400901, -15.70977512],
        [-124.45353099, -151.31536406, -14.01521411],
        [-124.40978834, -151.18671721, -12.32065311],
        [-124.36604568, -151.05807227, -10.6260921],
        [-124.32230302, -150.92942733, -8.9315311],
        [-124.27855989, -150.80078047, -7.23697009],
        [-124.23481723, -150.67213553, -5.54240909],
        [-124.19107458, -150.54348868, -3.84784808],
        [-124.14733192, -150.41484374, -2.15328708],
        [-124.10358879, -150.28619689, -0.45872608],
        [-124.05984613, -150.15755194, 1.23583493],
        [-124.01610347, -150.02890509, 2.93039593],
        [-123.97236082, -149.90026015, 4.62495694],
        [-123.92861768, -149.77161521, 6.31951794],
        [-123.88487503, -149.64296836, 8.01407895],
        [-123.84113237, -149.51432341, 9.70863971],
        [-123.79738971, -149.38567656, 11.40320078],
        [-123.75364658, -149.25703162, 13.09776172],
        [-123.70990392, -149.12838477, 14.79232273],
        [-123.66616127, -148.99973983, 16.48688349],
        [-123.62241861, -148.87109297, 18.1814445],
        [-123.57867595, -148.74244803, 19.8760055],
        [-123.53493282, -148.61380309, 21.57056698],
        [-123.49119016, -148.48515624, 23.26512704],
        [-123.44744751, -148.35651129, 24.95968804],
        [-123.40370485, -148.22786444, 26.65424905],
        [-123.35996172, -148.0992195, 28.348811],
        [-123.31621906, -147.97057265, 30.04337201],
        [-123.2724764, -147.84192771, 31.73793301],
        [-123.22873375, -147.71328276, 33.43249402],
        [-123.18499061, -147.58463591, 35.12705502],
        [-123.14124796, -147.45599097, 36.82161603],
        [-123.0975053, -147.32734412, 38.51617703],
        [-123.05376264, -147.19869918, 40.21073613],
        [-123.01001999, -147.07005233, 41.90529713],
        [-122.96627685, -146.94140738, 43.59985814],
        [-122.9225342, -146.81276053, 45.29441914],
        [-122.87879154, -146.68411559, 46.98898015],
        [-122.83504888, -146.55547065, 48.68354115],
        [-122.79130575, -146.42682379, 50.37810216],
        [-122.74756309, -146.29817885, 52.07266316],
        [-122.70382043, -146.169532, 53.76722417],
        [-122.66007778, -146.04088706, 55.46178517],
        [-122.61633464, -145.91224021, 57.15634618],
        [-122.57259199, -145.78359526, 58.85090718],
        [-122.52884933, -145.65494841, 60.54546818],
        [-122.48510667, -145.52630347, 62.24002919],
        [-122.44136378, -145.39765853, 63.93459019],
        [-122.39762088, -145.26901168, 65.6291512],
        [-122.35387823, -145.14036673, 67.3237122],
        [-122.31013557, -145.01171988, 69.01827321],
        [-122.26639268, -144.88307494, 70.71283421],
        [-122.22265002, -144.75442809, 72.40739522],
        [-122.17890712, -144.62578315, 74.10195622],
        [-122.13516447, -144.4971382, 75.79651723],
        [-122.09142157, -144.36849135, 77.49107442],
        [-122.04767892, -144.23984641, 79.18563924],
        [-122.00393602, -144.11119956, 80.88019643],
        [-121.96019336, -143.98255461, 82.57476124],
        [-121.91645047, -143.85390776, 84.26931843],
        [-121.87270781, -143.72526282, 85.96388325],
        [-121.82896492, -143.59661597, 87.65844044],
        [-121.78522226, -143.46797103, 89.35300526],
        [-121.74147936, -143.33932608, 91.04756245],
        [-121.69773671, -143.21067923, 92.74212727],
        [-121.65399405, -143.08203429, 94.43668446],
        [-121.61025116, -142.95338744, 96.13124928],
        [-121.5665085, -142.8247425, 97.82580647],
        [-121.5227656, -142.69609565, 99.52037129],
        [-121.47902295, -142.5674507, 101.21492848],
        [-121.43528005, -142.43880385, 102.9094933],
        [-121.3915374, -142.31015891, 104.60405049],
        [-121.3477945, -142.18151396, 106.29861531],
        [-121.30405184, -142.05286711, 107.9931725],
        [-121.26030895, -141.92422217, 109.68773732]
],
      "CsaImage.TimeAfterStart": [16.4, 18.515, 16.5525, 18.6675, 16.7025, 18.8175, 16.8525, 18.97, 17.005, 19.12, 17.155, 19.2725, 17.3075, 19.4225, 17.4575, 19.5725, 17.61, 19.725, 17.76, 19.875, 17.9125, 20.0275, 18.0625, 20.1775, 18.2125, 20.33, 18.365, 16.4, 18.515, 16.5525, 18.6675, 16.7025, 18.8175, 16.8525, 18.97, 17.005, 19.12, 17.155, 19.2725, 17.3075, 19.4225, 17.4575, 19.5725, 17.61, 19.725, 17.76, 19.875, 17.9125, 20.0275, 18.0625, 20.1775, 18.2125, 20.33, 18.365, 16.4, 18.515, 16.5525, 18.6675, 16.7025, 18.8175, 16.8525, 18.97, 17.005, 19.12, 17.155, 19.2725, 17.3075, 19.4225, 17.4575, 19.5725, 17.61, 19.725, 17.76, 19.875, 17.9125, 20.0275, 18.0625, 20.1775, 18.2125, 20.33, 18.365],
      "ImagePositionPatient": [
        [-124.75973054511, -152.21588438725, -25.877139237567],
        [-124.7159878884, -152.08723753666, -24.182578232928],
        [-124.67224475485, -151.95859259342, -22.48801722829],
        [-124.62850209815, -151.82994765019, -20.793456223651],
        [-124.58475944144, -151.7013007996, -19.098897126361],
        [-124.54101678473, -151.57265585636, -17.404336121722],
        [-124.49727365119, -151.44400900578, -15.709775117084],
        [-124.45353099448, -151.31536406254, -14.015214112445],
        [-124.40978833777, -151.18671721195, -12.320653107806],
        [-124.36604568106, -151.05807226872, -10.626092103168],
        [-124.32230302436, -150.92942732548, -8.931531098529],
        [-124.27855989081, -150.80078047489, -7.2369700938903],
        [-124.2348172341, -150.67213553166, -5.5424090892517],
        [-124.19107457739, -150.54348868107, -3.847848084613],
        [-124.14733192069, -150.41484373783, -2.1532870799743],
        [-124.10358878714, -150.28619688725, -0.4587260753356],
        [-124.05984613043, -150.15755194401, 1.235834929303],
        [-124.01610347373, -150.02890509342, 2.9303959339417],
        [-123.97236081702, -149.90026015019, 4.6249569385804],
        [-123.92861768347, -149.77161520695, 6.319517943219],
        [-123.88487502677, -149.64296835636, 8.0140789478577],
        [-123.84113237006, -149.51432341313, 9.7086397140778],
        [-123.79738971335, -149.38567656254, 11.403200778321],
        [-123.75364657981, -149.2570316193, 13.097761723355],
        [-123.7099039231, -149.12838476872, 14.792322727994],
        [-123.66616126639, -148.99973982548, 16.486883494214],
        [-123.62241860968, -148.87109297489, 18.181444498853],
        [-123.57867595297, -148.74244803166, 19.876005503491],
        [-123.53493281943, -148.61380308842, 21.570566984967],
        [-123.49119016272, -148.48515623783, 23.265127035931],
        [-123.44744750601, -148.3565112946, 24.95968804057],
        [-123.40370484931, -148.22786444401, 26.654249045209],
        [-123.35996171576, -148.09921950077, 28.348811003522],
        [-123.31621905905, -147.97057265019, 30.04337200816],
        [-123.27247640235, -147.84192770695, 31.737933012799],
        [-123.22873374564, -147.71328276371, 33.432494017438],
        [-123.18499061209, -147.58463591313, 35.127055022076],
        [-123.14124795539, -147.45599096989, 36.821616026715],
        [-123.09750529868, -147.3273441193, 38.516177031354],
        [-123.05376264197, -147.19869917607, 40.210736128644],
        [-123.01001998526, -147.07005232548, 41.905297133283],
        [-122.96627685172, -146.94140738224, 43.599858137921],
        [-122.92253419501, -146.81276053166, 45.29441914256],
        [-122.8787915383, -146.68411558842, 46.988980147199],
        [-122.83504888159, -146.55547064518, 48.683541151837],
        [-122.79130574805, -146.4268237946, 50.378102156476],
        [-122.74756309134, -146.29817885136, 52.072663161115],
        [-122.70382043463, -146.16953200077, 53.767224165753],
        [-122.66007777793, -146.04088705754, 55.461785170392],
        [-122.61633464438, -145.91224020695, 57.156346175031],
        [-122.57259198767, -145.78359526371, 58.850907179669],
        [-122.52884933097, -145.65494841313, 60.545468184308],
        [-122.48510667426, -145.52630346989, 62.240029188947],
        [-122.44136377913, -145.39765852665, 63.934590193585],
        [-122.397620884, -145.26901167607, 65.629151198224],
        [-122.3538782273, -145.14036673283, 67.323712202863],
        [-122.31013557059, -145.01171988224, 69.018273207501],
        [-122.26639267546, -144.883074939, 70.71283421214],
        [-122.22265001876, -144.75442808842, 72.407395216779],
        [-122.17890712363, -144.62578314518, 74.101956221417],
        [-122.13516446692, -144.49713820194, 75.796517226056],
        [-122.09142157179, -144.36849135136, 77.491074415997],
        [-122.04767891509, -144.23984640812, 79.185639235333],
        [-122.00393601996, -144.11119955754, 80.880196425275],
        [-121.96019336325, -143.9825546143, 82.574761244611],
        [-121.91645046813, -143.85390776371, 84.269318434552],
        [-121.87270781142, -143.72526282047, 85.963883253888],
        [-121.82896491629, -143.59661596989, 87.658440443829],
        [-121.78522225958, -143.46797102665, 89.353005263165],
        [-121.74147936446, -143.33932608341, 91.047562453107],
        [-121.69773670775, -143.21067923283, 92.742127272443],
        [-121.65399405104, -143.08203428959, 94.436684462384],
        [-121.61025115592, -142.953387439, 96.13124928172],
        [-121.56650849921, -142.82474249577, 97.825806471661],
        [-121.52276560408, -142.69609564518, 99.520371290997],
        [-121.47902294737, -142.56745070194, 101.21492848094],
        [-121.43528005225, -142.43880385136, 102.90949330027],
        [-121.39153739554, -142.31015890812, 104.60405049022],
        [-121.34779450041, -142.18151396488, 106.29861530955],
        [-121.30405184371, -142.0528671143, 107.99317249949],
        [-121.26030894858, -141.92422217106, 109.68773731883]
],
      "InstanceCreationTime": ["145038.712000", "145038.818000", "145038.732000", "145038.825000", "145038.739000", "145038.831000", "145038.745000", "145038.838000", "145038.752000", "145038.844000", "145038.758000", "145038.851000", "145038.765000", "145038.857000", "145038.772000", "145038.872000", "145038.779000", "145038.878000", "145038.785000", "145038.885000", "145038.792000", "145038.892000", "145038.798000", "145038.898000", "145038.805000", "145038.905000", "145038.811000", "145038.717000", "145038.820000", "145038.734000", "145038.827000", "145038.741000", "145038.833000", "145038.747000", "145038.840000", "145038.754000", "145038.846000", "145038.761000", "145038.853000", "145038.767000", "145038.868000", "145038.774000", "145038.874000", "145038.781000", "145038.881000", "145038.788000", "145038.887000", "145038.794000", "145038.894000", "145038.800000", "145038.901000", "145038.807000", "145038.908000", "145038.813000", "145038.719000", "145038.822000", "145038.736000", "145038.829000", "145038.743000", "145038.836000", "145038.750000", "145038.842000", "145038.756000", "145038.849000", "145038.763000", "145038.855000", "145038.769000", "145038.870000", "145038.777000", "145038.876000", "145038.783000", "145038.883000", "145038.790000", "145038.889000", "145038.796000", "145038.896000", "145038.803000", "145038.903000", "145038.809000", "145038.910000", "145038.815000"],
      "InstanceNumber": [1, 2, 3, 4, 5, 6, 7, 8, 9, 10, 11, 12, 13, 14, 15, 16, 17, 18, 19, 20, 21, 22, 23, 24, 25, 26, 27, 28, 29, 30, 31, 32, 33, 34, 35, 36, 37, 38, 39, 40, 41, 42, 43, 44, 45, 46, 47, 48, 49, 50, 51, 52, 53, 54, 55, 56, 57, 58, 59, 60, 61, 62, 63, 64, 65, 66, 67, 68, 69, 70, 71, 72, 73, 74, 75, 76, 77, 78, 79, 80, 81],
      "LargestImagePixelValue": [41247, 34997, 28506, 37634, 31107, 33688, 45183, 36180, 53886, 55736, 52745, 47358, 47861, 56678, 65535, 65535, 52462, 60608, 60718, 55834, 56220, 52591, 56391, 45665, 44956, 41348, 49524, 57136, 50623, 51900, 60604, 65535, 65535, 65535, 65535, 65535, 65535, 65535, 65535, 65535, 65535, 65535, 65535, 65535, 65535, 65535, 65535, 65535, 54299, 57190, 55426, 57747, 61067, 59128, 51555, 50098, 53267, 61357, 47540, 53980, 56441, 49949, 50411, 47151, 50526, 45979, 53938, 65535, 65535, 65535, 65535, 65535, 65535, 65535, 26537, 16382, 20095, 22306, 18776, 13341, 979],
      "SliceLocation": [-40.523328135552, -38.823328008898, -37.123328014311, -35.423328031994, -33.723329806587, -32.02332982427, -30.323329685347, -28.62332970303, -26.923329576376, -25.223329594059, -23.523329611742, -21.823329472819, -20.123329490502, -18.423329363849, -16.723329381532, -15.023329242608, -13.323329260291, -11.623329133638, -9.9233291513208, -8.2233291567343, -6.5233290300807, -4.8233292854195, -3.1233290993519, -1.4233291641794, 0.27667096247428, 1.9766707071355, 3.6766708337891, 5.3766708161061, 7.0766712860041, 8.7766704620347, 10.476670444352, 12.176670571005, 13.876671516215, 15.576671642869, 17.276671625185, 18.976671607502, 20.676671746426, 22.376671728743, 24.076671855396, 25.776669936467, 27.476670063121, 29.176670057707, 30.876670184361, 32.576670166678, 34.276670148995, 35.976670287918, 37.676670270235, 39.376670396889, 41.076670379205, 42.776670518129, 44.476670500446, 46.176670627099, 47.876670609416, 49.576670597868, 51.276670730656, 52.976670712973, 54.676670839627, 56.376670828079, 58.076670954732, 59.776670943184, 61.476670925501, 63.176667255797, 64.876671040606, 66.576667370902, 68.276671155712, 69.976667486008, 71.676671270817, 73.376667601113, 75.076671385923, 76.776667571882, 78.476671501028, 80.176667680852, 81.876671616133, 83.576667795958, 85.276671731239, 86.976667911063, 88.676671846344, 90.376668026169, 92.076671817113, 93.776668141274, 95.476671932218],
      "WindowCenter": [6749.0, 6498.0, 6887.0, 7900.0, 7668.0, 7781.0, 7686.0, 8020.0, 8546.0, 8816.0, 8709.0, 8682.0, 8453.0, 8580.0, 8894.0, 8945.0, 8723.0, 8907.0, 9069.0, 8955.0, 9342.0, 9300.0, 9280.0, 9216.0, 9596.0, 9793.0, 10029.0, 10189.0, 10121.0, 10250.0, 10565.0, 10769.0, 11125.0, 11558.0, 11749.0, 11935.0, 11954.0, 12018.0, 12076.0, 12160.0, 12105.0, 12234.0, 12502.0, 12550.0, 12605.0, 12710.0, 12678.0, 12661.0, 12570.0, 12683.0, 12705.0, 12901.0, 12948.0, 13067.0, 12390.0, 12309.0, 12467.0, 12330.0, 12036.0, 11956.0, 12084.0, 11825.0, 11690.0, 11534.0, 11649.0, 11533.0, 11406.0, 11003.0, 10523.0, 10279.0, 10245.0, 10451.0, 9129.0, 6966.0, 5511.0, 4680.0, 4927.0, 5544.0, 5452.0, 1865.0, 1042.0],
      "WindowWidth": [14677.0, 14176.0, 14880.0, 16852.0, 16561.0, 16590.0, 16580.0, 17294.0, 18296.0, 18956.0, 19096.0, 19556.0, 19479.0, 20360.0, 21233.0, 21077.0, 19828.0, 19979.0, 20428.0, 20106.0, 20594.0, 20454.0, 20223.0, 20013.0, 20728.0, 21264.0, 21717.0, 22105.0, 21979.0, 22567.0, 23419.0, 23723.0, 24586.0, 26053.0, 26710.0, 27284.0, 27388.0, 27543.0, 27728.0, 28039.0, 27893.0, 28101.0, 28655.0, 28744.0, 28936.0, 29152.0, 29001.0, 28936.0, 28557.0, 28877.0, 28971.0, 29697.0, 29913.0, 30418.0, 28204.0, 28067.0, 28763.0, 28438.0, 27447.0, 27310.0, 28116.0, 27210.0, 27028.0, 26612.0, 27908.0, 28155.0, 29349.0, 30006.0, 31614.0, 30450.0, 29747.0, 26640.0, 21145.0, 15833.0, 11523.0, 10220.0, 10699.0, 11589.0, 11142.0, 5433.0, 2536.0]
    }
  }
}