{
  "AcquisitionMatrixPE": 82,
  "AcquisitionNumber": 1,
  "AcquisitionTime": "15:17:51.810000",
  "BandwidthPerPixelPhaseEncode": 24.888,
  "BaseResolution": 82,
  "BodyPartExamined": "BRAIN",
  "ConsistencyInfo": "N4_VE11C_LATEST_20160120",
  "ConversionSoftware": "dcm2niix",
  "ConversionSoftwareVersion": "v1.0.20201102",
  "DerivedVendorReportedEchoSpacing": 0.00049,
  "DeviceSerialNumber": "66112",
  "DwellTime": 2e-06,
  "EchoTime": 0.0272,
  "EchoTrainLength": 82,
  "EffectiveEchoSpacing": 0.00049,
  "FlipAngle": 44,
  "ImageComments": "Unaliased MB8/PE3",
  "ImageOrientationPatientDICOM": [0.99916, 0.037949, -0.0154846, -0.0392571, 0.994662, -0.0954243],
  "ImageType": [
    "ORIGINAL",
    "PRIMARY",
    "M",
    "MB",
    "ND",
    "NORM",
    "MOSAIC"
],
  "ImagingFrequency": 123.252,
  "InPlanePhaseEncodingDirectionDICOM": "COL",
  "InstitutionAddress": "Maynard 3,Hanover,NH,US,03755",
  "InstitutionName": "Dartmouth College - PBS",
  "InstitutionalDepartmentName": "Department",
  "MRAcquisitionType": "2D",
  "MagneticFieldStrength": 3,
  "Manufacturer": "Siemens",
  "ManufacturersModelName": "Prisma",
  "Modality": "MR",
  "MultibandAccelerationFactor": 8,
  "PartialFourier": 1,
  "PatientPosition": "HFS",
  "PercentPhaseFOV": 100,
  "PercentSampling": 100,
  "PhaseEncodingDirection": "j-",
  "PhaseEncodingSteps": 82,
  "PhaseResolution": 1,
  "PixelBandwidth": 3050,
  "ProcedureStepDescription": "Wager_Wager^1076_spacetop",
  "ProtocolName": "func_run-03_task-social_acq-ap-mb8",
  "PulseSequenceDetails": "%CustomerSeq%\\cmrr_mbep2d_bold",
  "ReceiveCoilActiveElements": "HEA;HEP",
  "ReceiveCoilName": "Head_32",
  "ReconMatrixPE": 82,
  "RepetitionTime": 0.46,
  "SAR": 0.100924,
  "ScanOptions": "FS",
  "ScanningSequence": "EP",
  "SequenceName": "epfid2d1_82",
  "SequenceVariant": "SK\\SS",
  "SeriesDescription": "func_run-03_task-social_acq-ap-mb8",
  "SeriesNumber": 16,
  "ShimSetting": [4130, -7791, -7244, 580, -57, -265, 47, 87],
  "SliceThickness": 2.7,
  "SliceTiming": [0, 0.25, 0.0625, 0.315, 0.125, 0.3775, 0.1875, 0, 0.25, 0.0625, 0.315, 0.125, 0.3775, 0.1875, 0, 0.25, 0.0625, 0.315, 0.125, 0.3775, 0.1875, 0, 0.25, 0.0625, 0.315, 0.125, 0.3775, 0.1875, 0, 0.25, 0.0625, 0.315, 0.125, 0.3775, 0.1875, 0, 0.25, 0.0625, 0.315, 0.125, 0.3775, 0.1875, 0, 0.25, 0.0625, 0.315, 0.125, 0.3775, 0.1875, 0, 0.25, 0.0625, 0.315, 0.125, 0.3775, 0.1875],
  "SoftwareVersions": "syngo MR E11",
  "SpacingBetweenSlices": 2.7,
  "StationName": "AWP66112",
  "TaskName": "social",
  "TotalReadoutTime": 0.03969,
  "TxRefAmp": 251.699,
  "WipMemBlock": "ad97dfbc-56bf-4bfb-89e7-07e3897daa01||Sequence: R016 ve11c/master r/e634e98; Dec 19 2017 11:00:25 by eja",
  "dcmmeta_affine": [
    [-2.6806724071502686, -0.10532385110855103, -0.03180789202451706, 116.67813873291016],
    [-0.10181448608636856, 2.6686062812805176, -0.259070485830307, -79.74855041503906],
    [-0.04154408723115921, 0.2560165226459503, 2.6873538494110107, -81.39044189453125],
    [0.0, 0.0, 0.0, 1.0]
],
  "dcmmeta_reorient_transform": [
    [0.0, -1.0, 0.0, 81.0],
    [1.0, 0.0, 0.0, 0.0],
    [0.0, 0.0, 1.0, 0.0],
    [0.0, 0.0, 0.0, 1.0]
],
  "dcmmeta_shape": [82, 82, 56, 872],
  "dcmmeta_slice_dim": 2,
  "dcmmeta_version": 0.6,
  "global": {
    "const": {
      "AccessionNumber": "A003793",
      "AcquisitionMatrix": [82, 0, 0, 82],
      "AngioFlag": "N",
      "BitsAllocated": 16,
      "BitsStored": 16,
      "BodyPartExamined": "BRAIN",
      "Columns": 656,
      "EchoNumbers": 1,
      "EchoTime": 27.2,
      "EchoTrainLength": 82,
      "FlipAngle": 44.0,
      "HighBit": 15,
      "ImageOrientationPatient": [0.99915969565917, 0.03794903570883, -0.0154846136228, -0.0392570717698, 0.99466229358198, -0.0954243367402],
      "ImagePositionPatient": [-847.27194754178, -931.5192938549, 24.746790267487],
      "ImageType": [
        "ORIGINAL",
        "PRIMARY",
        "M",
        "MB",
        "ND",
        "NORM",
        "MOSAIC"
],
      "ImagedNucleus": "1H",
      "ImagingFrequency": 123.252206,
      "InPlanePhaseEncodingDirection": "COL",
      "MRAcquisitionType": "2D",
      "MagneticFieldStrength": 3.0,
      "Manufacturer": "SIEMENS",
      "ManufacturerModelName": "Prisma",
      "Modality": "MR",
      "NumberOfAverages": 1.0,
      "NumberOfPhaseEncodingSteps": 82,
      "PercentPhaseFieldOfView": 100.0,
      "PercentSampling": 100.0,
      "PerformedProcedureStepStartTime": "143343.482000",
      "PhotometricInterpretation": "MONOCHROME2",
      "PixelBandwidth": 3050.0,
      "PixelRepresentation": 0,
      "PixelSpacing": [2.6829268932343, 2.6829268932343],
      "ProtocolName": "func_run-03_task-social_acq-ap-mb8",
      "RepetitionTime": 460.0,
      "Rows": 656,
      "SAR": 0.10092405592948,
      "SamplesPerPixel": 1,
      "ScanOptions": "FS",
      "ScanningSequence": "EP",
      "SequenceName": "epfid2d1_82",
      "SequenceVariant": [
        "SK",
        "SS"
],
      "SeriesDescription": "func_run-03_task-social_acq-ap-mb8",
      "SeriesNumber": 16,
      "SeriesTime": "151806.133000",
      "SliceLocation": -74.731743054121,
      "SliceThickness": 2.7000000476837,
      "SmallestImagePixelValue": 0,
      "SoftwareVersions": "syngo MR E11",
      "SpacingBetweenSlices": 2.7000000746012,
      "SpecificCharacterSet": "ISO_IR 100",
      "StudyID": "1",
      "StudyTime": "143343.428000",
      "TransmitCoilName": "Body",
      "VariableFlipAngleFlag": "N",
      "WindowCenterWidthExplanation": "Algo1",
      "dBdt": 0.0},
    "slices": {}
  },
  "time": {
    "samples": {
      "AcquisitionNumber": [1, 2, 3, 4, 5, 6, 7, 8, 9, 10, 11, 12, 13, 14, 15, 16, 17, 18, 19, 20, 21, 22, 23, 24, 25, 26, 27, 28, 29, 30, 31, 32, 33, 34, 35, 36, 37, 38, 39, 40, 41, 42, 43, 44, 45, 46, 47, 48, 49, 50, 51, 52, 53, 54, 55, 56, 57, 58, 59, 60, 61, 62, 63, 64, 65, 66, 67, 68, 69, 70, 71, 72, 73, 74, 75, 76, 77, 78, 79, 80, 81, 82, 83, 84, 85, 86, 87, 88, 89, 90, 91, 92, 93, 94, 95, 96, 97, 98, 99, 100, 101, 102, 103, 104, 105, 106, 107, 108, 109, 110, 111, 112, 113, 114, 115, 116, 117, 118, 119, 120, 121, 122, 123, 124, 125, 126, 127, 128, 129, 130, 131, 132, 133, 134, 135, 136, 137, 138, 139, 140, 141, 142, 143, 144, 145, 146, 147, 148, 149, 150, 151, 152, 153, 154, 155, 156, 157, 158, 159, 160, 161, 162, 163, 164, 165, 166, 167, 168, 169, 170, 171, 172, 173, 174, 175, 176, 177, 178, 179, 180, 181, 182, 183, 184, 185, 186, 187, 188, 189, 190, 191, 192, 193, 194, 195, 196, 197, 198, 199, 200, 201, 202, 203, 204, 205, 206, 207, 208, 209, 210, 211, 212, 213, 214, 215, 216, 217, 218, 219, 220, 221, 222, 223, 224, 225, 226, 227, 228, 229, 230, 231, 232, 233, 234, 235, 236, 237, 238, 239, 240, 241, 242, 243, 244, 245, 246, 247, 248, 249, 250, 251, 252, 253, 254, 255, 256, 257, 258, 259, 260, 261, 262, 263, 264, 265, 266, 267, 268, 269, 270, 271, 272, 273, 274, 275, 276, 277, 278, 279, 280, 281, 282, 283, 284, 285, 286, 287, 288, 289, 290, 291, 292, 293, 294, 295, 296, 297, 298, 299, 300, 301, 302, 303, 304, 305, 306, 307, 308, 309, 310, 311, 312, 313, 314, 315, 316, 317, 318, 319, 320, 321, 322, 323, 324, 325, 326, 327, 328, 329, 330, 331, 332, 333, 334, 335, 336, 337, 338, 339, 340, 341, 342, 343, 344, 345, 346, 347, 348, 349, 350, 351, 352, 353, 354, 355, 356, 357, 358, 359, 360, 361, 362, 363, 364, 365, 366, 367, 368, 369, 370, 371, 372, 373, 374, 375, 376, 377, 378, 379, 380, 381, 382, 383, 384, 385, 386, 387, 388, 389, 390, 391, 392, 393, 394, 395, 396, 397, 398, 399, 400, 401, 402, 403, 404, 405, 406, 407, 408, 409, 410, 411, 412, 413, 414, 415, 416, 417, 418, 419, 420, 421, 422, 423, 424, 425, 426, 427, 428, 429, 430, 431, 432, 433, 434, 435, 436, 437, 438, 439, 440, 441, 442, 443, 444, 445, 446, 447, 448, 449, 450, 451, 452, 453, 454, 455, 456, 457, 458, 459, 460, 461, 462, 463, 464, 465, 466, 467, 468, 469, 470, 471, 472, 473, 474, 475, 476, 477, 478, 479, 480, 481, 482, 483, 484, 485, 486, 487, 488, 489, 490, 491, 492, 493, 494, 495, 496, 497, 498, 499, 500, 501, 502, 503, 504, 505, 506, 507, 508, 509, 510, 511, 512, 513, 514, 515, 516, 517, 518, 519, 520, 521, 522, 523, 524, 525, 526, 527, 528, 529, 530, 531, 532, 533, 534, 535, 536, 537, 538, 539, 540, 541, 542, 543, 544, 545, 546, 547, 548, 549, 550, 551, 552, 553, 554, 555, 556, 557, 558, 559, 560, 561, 562, 563, 564, 565, 566, 567, 568, 569, 570, 571, 572, 573, 574, 575, 576, 577, 578, 579, 580, 581, 582, 583, 584, 585, 586, 587, 588, 589, 590, 591, 592, 593, 594, 595, 596, 597, 598, 599, 600, 601, 602, 603, 604, 605, 606, 607, 608, 609, 610, 611, 612, 613, 614, 615, 616, 617, 618, 619, 620, 621, 622, 623, 624, 625, 626, 627, 628, 629, 630, 631, 632, 633, 634, 635, 636, 637, 638, 639, 640, 641, 642, 643, 644, 645, 646, 647, 648, 649, 650, 651, 652, 653, 654, 655, 656, 657, 658, 659, 660, 661, 662, 663, 664, 665, 666, 667, 668, 669, 670, 671, 672, 673, 674, 675, 676, 677, 678, 679, 680, 681, 682, 683, 684, 685, 686, 687, 688, 689, 690, 691, 692, 693, 694, 695, 696, 697, 698, 699, 700, 701, 702, 703, 704, 705, 706, 707, 708, 709, 710, 711, 712, 713, 714, 715, 716, 717, 718, 719, 720, 721, 722, 723, 724, 725, 726, 727, 728, 729, 730, 731, 732, 733, 734, 735, 736, 737, 738, 739, 740, 741, 742, 743, 744, 745, 746, 747, 748, 749, 750, 751, 752, 753, 754, 755, 756, 757, 758, 759, 760, 761, 762, 763, 764, 765, 766, 767, 768, 769, 770, 771, 772, 773, 774, 775, 776, 777, 778, 779, 780, 781, 782, 783, 784, 785, 786, 787, 788, 789, 790, 791, 792, 793, 794, 795, 796, 797, 798, 799, 800, 801, 802, 803, 804, 805, 806, 807, 808, 809, 810, 811, 812, 813, 814, 815, 816, 817, 818, 819, 820, 821, 822, 823, 824, 825, 826, 827, 828, 829, 830, 831, 832, 833, 834, 835, 836, 837, 838, 839, 840, 841, 842, 843, 844, 845, 846, 847, 848, 849, 850, 851, 852, 853, 854, 855, 856, 857, 858, 859, 860, 861, 862, 863, 864, 865, 866, 867, 868, 869, 870, 871, 872],
      "AcquisitionTime": ["151751.810000", "151752.270000", "151752.730000", "151753.190000", "151753.650000", "151754.110000", "151754.570000", "151755.030000", "151755.490000", "151755.950000", "151756.410000", "151756.870000", "151757.330000", "151757.790000", "151758.250000", "151758.710000", "151759.170000", "151759.630000", "151800.090000", "151800.550000", "151801.010000", "151801.470000", "151801.930000", "151802.390000", "151802.850000", "151803.310000", "151803.770000", "151804.230000", "151804.690000", "151805.150000", "151805.610000", "151806.070000", "151806.530000", "151806.990000", "151807.450000", "151807.910000", "151808.370000", "151808.830000", "151809.290000", "151809.750000", "151810.210000", "151810.670000", "151811.130000", "151811.590000", "151812.050000", "151812.510000", "151812.970000", "151813.430000", "151813.890000", "151814.350000", "151814.810000", "151815.270000", "151815.730000", "151816.190000", "151816.650000", "151817.110000", "151817.570000", "151818.030000", "151818.490000", "151818.950000", "151819.410000", "151819.870000", "151820.330000", "151820.790000", "151821.250000", "151821.710000", "151822.170000", "151822.630000", "151823.090000", "151823.550000", "151824.010000", "151824.470000", "151824.930000", "151825.390000", "151825.850000", "151826.310000", "151826.770000", "151827.230000", "151827.690000", "151828.150000", "151828.610000", "151829.070000", "151829.530000", "151829.990000", "151830.450000", "151830.910000", "151831.370000", "151831.830000", "151832.290000", "151832.750000", "151833.210000", "151833.670000", "151834.130000", "151834.590000", "151835.050000", "151835.510000", "151835.970000", "151836.430000", "151836.890000", "151837.350000", "151837.810000", "151838.270000", "151838.730000", "151839.190000", "151839.650000", "151840.110000", "151840.570000", "151841.030000", "151841.490000", "151841.950000", "151842.410000", "151842.870000", "151843.330000", "151843.790000", "151844.250000", "151844.710000", "151845.170000", "151845.630000", "151846.090000", "151846.550000", "151847.010000", "151847.470000", "151847.930000", "151848.390000", "151848.850000", "151849.310000", "151849.770000", "151850.230000", "151850.690000", "151851.150000", "151851.610000", "151852.070000", "151852.530000", "151852.990000", "151853.450000", "151853.910000", "151854.370000", "151854.830000", "151855.290000", "151855.750000", "151856.210000", "151856.670000", "151857.130000", "151857.590000", "151858.050000", "151858.510000", "151858.970000", "151859.430000", "151859.890000", "151900.350000", "151900.810000", "151901.270000", "151901.730000", "151902.190000", "151902.650000", "151903.110000", "151903.570000", "151904.030000", "151904.490000", "151904.950000", "151905.410000", "151905.870000", "151906.330000", "151906.790000", "151907.250000", "151907.710000", "151908.170000", "151908.630000", "151909.090000", "151909.550000", "151910.010000", "151910.470000", "151910.930000", "151911.390000", "151911.850000", "151912.310000", "151912.770000", "151913.230000", "151913.690000", "151914.150000", "151914.610000", "151915.070000", "151915.530000", "151915.990000", "151916.450000", "151916.910000", "151917.370000", "151917.830000", "151918.290000", "151918.750000", "151919.210000", "151919.670000", "151920.130000", "151920.590000", "151921.050000", "151921.510000", "151921.970000", "151922.430000", "151922.890000", "151923.350000", "151923.810000", "151924.270000", "151924.730000", "151925.190000", "151925.650000", "151926.110000", "151926.570000", "151927.030000", "151927.490000", "151927.950000", "151928.410000", "151928.870000", "151929.330000", "151929.790000", "151930.250000", "151930.710000", "151931.170000", "151931.630000", "151932.090000", "151932.550000", "151933.010000", "151933.470000", "151933.930000", "151934.390000", "151934.850000", "151935.310000", "151935.770000", "151936.230000", "151936.690000", "151937.150000", "151937.610000", "151938.070000", "151938.530000", "151938.990000", "151939.450000", "151939.910000", "151940.370000", "151940.830000", "151941.290000", "151941.750000", "151942.210000", "151942.670000", "151943.130000", "151943.590000", "151944.050000", "151944.510000", "151944.970000", "151945.430000", "151945.890000", "151946.350000", "151946.810000", "151947.270000", "151947.730000", "151948.190000", "151948.650000", "151949.110000", "151949.570000", "151950.030000", "151950.490000", "151950.950000", "151951.410000", "151951.870000", "151952.330000", "151952.790000", "151953.250000", "151953.710000", "151954.170000", "151954.630000", "151955.090000", "151955.550000", "151956.010000", "151956.470000", "151956.930000", "151957.390000", "151957.850000", "151958.310000", "151958.770000", "151959.230000", "151959.690000", "152000.150000", "152000.610000", "152001.070000", "152001.530000", "152001.990000", "152002.450000", "152002.910000", "152003.370000", "152003.830000", "152004.290000", "152004.750000", "152005.210000", "152005.670000", "152006.130000", "152006.590000", "152007.050000", "152007.510000", "152007.970000", "152008.430000", "152008.890000", "152009.350000", "152009.810000", "152010.270000", "152010.730000", "152011.190000", "152011.650000", "152012.110000", "152012.570000", "152013.030000", "152013.490000", "152013.950000", "152014.410000", "152014.870000", "152015.330000", "152015.790000", "152016.250000", "152016.710000", "152017.170000", "152017.630000", "152018.090000", "152018.550000", "152019.010000", "152019.470000", "152019.930000", "152020.390000", "152020.850000", "152021.310000", "152021.770000", "152022.230000", "152022.690000", "152023.150000", "152023.610000", "152024.070000", "152024.530000", "152024.990000", "152025.450000", "152025.910000", "152026.370000", "152026.830000", "152027.290000", "152027.750000", "152028.210000", "152028.670000", "152029.130000", "152029.590000", "152030.050000", "152030.510000", "152030.970000", "152031.430000", "152031.890000", "152032.350000", "152032.810000", "152033.270000", "152033.730000", "152034.190000", "152034.650000", "152035.110000", "152035.570000", "152036.030000", "152036.490000", "152036.950000", "152037.410000", "152037.870000", "152038.330000", "152038.790000", "152039.250000", "152039.710000", "152040.170000", "152040.630000", "152041.090000", "152041.550000", "152042.010000", "152042.470000", "152042.930000", "152043.390000", "152043.850000", "152044.310000", "152044.770000", "152045.230000", "152045.690000", "152046.150000", "152046.610000", "152047.070000", "152047.530000", "152047.990000", "152048.450000", "152048.910000", "152049.370000", "152049.830000", "152050.290000", "152050.750000", "152051.210000", "152051.670000", "152052.130000", "152052.590000", "152053.050000", "152053.510000", "152053.970000", "152054.430000", "152054.890000", "152055.350000", "152055.810000", "152056.270000", "152056.730000", "152057.190000", "152057.650000", "152058.110000", "152058.570000", "152059.030000", "152059.490000", "152059.950000", "152100.410000", "152100.870000", "152101.330000", "152101.790000", "152102.250000", "152102.710000", "152103.170000", "152103.630000", "152104.090000", "152104.550000", "152105.010000", "152105.470000", "152105.930000", "152106.390000", "152106.850000", "152107.310000", "152107.770000", "152108.230000", "152108.690000", "152109.150000", "152109.610000", "152110.070000", "152110.530000", "152110.990000", "152111.450000", "152111.910000", "152112.370000", "152112.830000", "152113.290000", "152113.750000", "152114.210000", "152114.670000", "152115.130000", "152115.590000", "152116.050000", "152116.510000", "152116.970000", "152117.430000", "152117.890000", "152118.350000", "152118.810000", "152119.270000", "152119.730000", "152120.190000", "152120.650000", "152121.110000", "152121.570000", "152122.030000", "152122.490000", "152122.950000", "152123.410000", "152123.870000", "152124.330000", "152124.790000", "152125.250000", "152125.710000", "152126.170000", "152126.630000", "152127.090000", "152127.550000", "152128.010000", "152128.470000", "152128.930000", "152129.390000", "152129.850000", "152130.310000", "152130.770000", "152131.230000", "152131.690000", "152132.150000", "152132.610000", "152133.070000", "152133.530000", "152133.990000", "152134.450000", "152134.910000", "152135.370000", "152135.830000", "152136.290000", "152136.750000", "152137.210000", "152137.670000", "152138.130000", "152138.590000", "152139.050000", "152139.510000", "152139.970000", "152140.430000", "152140.890000", "152141.350000", "152141.810000", "152142.270000", "152142.730000", "152143.190000", "152143.650000", "152144.110000", "152144.570000", "152145.030000", "152145.490000", "152145.950000", "152146.410000", "152146.870000", "152147.330000", "152147.790000", "152148.250000", "152148.710000", "152149.170000", "152149.630000", "152150.090000", "152150.550000", "152151.010000", "152151.470000", "152151.930000", "152152.390000", "152152.850000", "152153.310000", "152153.770000", "152154.230000", "152154.690000", "152155.150000", "152155.610000", "152156.070000", "152156.530000", "152156.990000", "152157.450000", "152157.910000", "152158.370000", "152158.830000", "152159.290000", "152159.750000", "152200.210000", "152200.670000", "152201.130000", "152201.590000", "152202.050000", "152202.510000", "152202.970000", "152203.430000", "152203.890000", "152204.350000", "152204.810000", "152205.270000", "152205.730000", "152206.190000", "152206.650000", "152207.110000", "152207.570000", "152208.030000", "152208.490000", "152208.950000", "152209.410000", "152209.870000", "152210.330000", "152210.790000", "152211.250000", "152211.710000", "152212.170000", "152212.630000", "152213.090000", "152213.550000", "152214.010000", "152214.470000", "152214.930000", "152215.390000", "152215.850000", "152216.310000", "152216.770000", "152217.230000", "152217.690000", "152218.150000", "152218.610000", "152219.070000", "152219.530000", "152219.990000", "152220.450000", "152220.910000", "152221.370000", "152221.830000", "152222.290000", "152222.750000", "152223.210000", "152223.670000", "152224.130000", "152224.590000", "152225.050000", "152225.510000", "152225.970000", "152226.430000", "152226.890000", "152227.350000", "152227.810000", "152228.270000", "152228.730000", "152229.190000", "152229.650000", "152230.110000", "152230.570000", "152231.030000", "152231.490000", "152231.950000", "152232.410000", "152232.870000", "152233.330000", "152233.790000", "152234.250000", "152234.710000", "152235.170000", "152235.630000", "152236.090000", "152236.550000", "152237.010000", "152237.470000", "152237.930000", "152238.390000", "152238.850000", "152239.310000", "152239.770000", "152240.230000", "152240.690000", "152241.150000", "152241.610000", "152242.070000", "152242.530000", "152242.990000", "152243.450000", "152243.910000", "152244.370000", "152244.830000", "152245.290000", "152245.750000", "152246.210000", "152246.670000", "152247.130000", "152247.590000", "152248.050000", "152248.510000", "152248.970000", "152249.430000", "152249.890000", "152250.350000", "152250.810000", "152251.270000", "152251.730000", "152252.190000", "152252.650000", "152253.110000", "152253.570000", "152254.030000", "152254.490000", "152254.950000", "152255.410000", "152255.870000", "152256.330000", "152256.790000", "152257.250000", "152257.710000", "152258.170000", "152258.630000", "152259.090000", "152259.550000", "152300.010000", "152300.470000", "152300.930000", "152301.390000", "152301.850000", "152302.310000", "152302.770000", "152303.230000", "152303.690000", "152304.150000", "152304.610000", "152305.070000", "152305.530000", "152305.990000", "152306.450000", "152306.910000", "152307.370000", "152307.830000", "152308.290000", "152308.750000", "152309.210000", "152309.670000", "152310.130000", "152310.590000", "152311.050000", "152311.510000", "152311.970000", "152312.430000", "152312.890000", "152313.350000", "152313.810000", "152314.270000", "152314.730000", "152315.190000", "152315.650000", "152316.110000", "152316.570000", "152317.030000", "152317.490000", "152317.950000", "152318.410000", "152318.870000", "152319.330000", "152319.790000", "152320.250000", "152320.710000", "152321.170000", "152321.630000", "152322.090000", "152322.550000", "152323.010000", "152323.470000", "152323.930000", "152324.390000", "152324.850000", "152325.310000", "152325.770000", "152326.230000", "152326.690000", "152327.150000", "152327.610000", "152328.070000", "152328.530000", "152328.990000", "152329.450000", "152329.910000", "152330.370000", "152330.830000", "152331.290000", "152331.750000", "152332.210000", "152332.670000", "152333.130000", "152333.590000", "152334.050000", "152334.510000", "152334.970000", "152335.430000", "152335.890000", "152336.350000", "152336.810000", "152337.270000", "152337.730000", "152338.190000", "152338.650000", "152339.110000", "152339.570000", "152340.030000", "152340.490000", "152340.950000", "152341.410000", "152341.870000", "152342.330000", "152342.790000", "152343.250000", "152343.710000", "152344.170000", "152344.630000", "152345.090000", "152345.550000", "152346.010000", "152346.470000", "152346.930000", "152347.390000", "152347.850000", "152348.310000", "152348.770000", "152349.230000", "152349.690000", "152350.150000", "152350.610000", "152351.070000", "152351.530000", "152351.990000", "152352.450000", "152352.910000", "152353.370000", "152353.830000", "152354.290000", "152354.750000", "152355.210000", "152355.670000", "152356.130000", "152356.590000", "152357.050000", "152357.510000", "152357.970000", "152358.430000", "152358.890000", "152359.350000", "152359.810000", "152400.270000", "152400.730000", "152401.190000", "152401.650000", "152402.110000", "152402.570000", "152403.030000", "152403.490000", "152403.950000", "152404.410000", "152404.870000", "152405.330000", "152405.790000", "152406.250000", "152406.710000", "152407.170000", "152407.630000", "152408.090000", "152408.550000", "152409.010000", "152409.470000", "152409.930000", "152410.390000", "152410.850000", "152411.310000", "152411.770000", "152412.230000", "152412.690000", "152413.150000", "152413.610000", "152414.070000", "152414.530000", "152414.990000", "152415.450000", "152415.910000", "152416.370000", "152416.830000", "152417.290000", "152417.750000", "152418.210000", "152418.670000", "152419.130000", "152419.590000", "152420.050000", "152420.510000", "152420.970000", "152421.430000", "152421.890000", "152422.350000", "152422.810000", "152423.270000", "152423.730000", "152424.190000", "152424.650000", "152425.110000", "152425.570000", "152426.030000", "152426.490000", "152426.950000", "152427.410000", "152427.870000", "152428.330000", "152428.790000", "152429.250000", "152429.710000", "152430.170000", "152430.630000", "152431.090000", "152431.550000", "152432.010000", "152432.470000"],
