{
  "AcquisitionMatrixPE": 82,
  "AcquisitionNumber": 1,
  "AcquisitionTime": "15:51:38.490000",
  "BandwidthPerPixelPhaseEncode": 24.888,
  "BaseResolution": 82,
  "BodyPartExamined": "BRAIN",
  "ConsistencyInfo": "N4_VE11C_LATEST_20160120",
  "ConversionSoftware": "dcm2niix",
  "ConversionSoftwareVersion": "v1.0.20201102",
  "DerivedVendorReportedEchoSpacing": 0.00049,
  "DeviceSerialNumber": "66112",
  "DwellTime": 2e-06,
  "EchoTime": 0.0272,
  "EchoTrainLength": 82,
  "EffectiveEchoSpacing": 0.00049,
  "FlipAngle": 44,
  "ImageComments": "Unaliased MB8/PE3",
  "ImageOrientationPatientDICOM": [0.998736, -0.050059, -0.00459425, 0.0498947, 0.99828, -0.0307665],
  "ImageType": [
    "ORIGINAL",
    "PRIMARY",
    "M",
    "MB",
    "ND",
    "NORM",
    "MOSAIC"
],
  "ImagingFrequency": 123.252,
  "InPlanePhaseEncodingDirectionDICOM": "COL",
  "InstitutionAddress": "Maynard 3,Hanover,NH,US,03755",
  "InstitutionName": "Dartmouth College - PBS",
  "InstitutionalDepartmentName": "Department",
  "MRAcquisitionType": "2D",
  "MagneticFieldStrength": 3,
  "Manufacturer": "Siemens",
  "ManufacturersModelName": "Prisma",
  "Modality": "MR",
  "MultibandAccelerationFactor": 8,
  "PartialFourier": 1,
  "PatientPosition": "HFS",
  "PercentPhaseFOV": 100,
  "PercentSampling": 100,
  "PhaseEncodingDirection": "j-",
  "PhaseEncodingSteps": 82,
  "PhaseResolution": 1,
  "PixelBandwidth": 3050,
  "ProcedureStepDescription": "Wager_Wager^1076_spacetop",
  "ProtocolName": "func_run-01_task-alignvideo_acq-ap-mb8",
  "PulseSequenceDetails": "%CustomerSeq%\\cmrr_mbep2d_bold",
  "ReceiveCoilActiveElements": "HEA;HEP",
  "ReceiveCoilName": "Head_32",
  "ReconMatrixPE": 82,
  "RepetitionTime": 0.46,
  "SAR": 0.101042,
  "ScanOptions": "FS",
  "ScanningSequence": "EP",
  "SequenceName": "epfid2d1_82",
  "SequenceVariant": "SK\\SS",
  "SeriesDescription": "func_run-01_task-alignvideo_acq-ap-mb8",
  "SeriesNumber": 30,
  "ShimSetting": [4129, -7784, -7242, 588, -63, -230, 58, 91],
  "SliceThickness": 2.7,
  "SliceTiming": [0, 0.2525, 0.0625, 0.315, 0.125, 0.3775, 0.19, 0, 0.2525, 0.0625, 0.315, 0.125, 0.3775, 0.19, 0, 0.2525, 0.0625, 0.315, 0.125, 0.3775, 0.19, 0, 0.2525, 0.0625, 0.315, 0.125, 0.3775, 0.19, 0, 0.2525, 0.0625, 0.315, 0.125, 0.3775, 0.19, 0, 0.2525, 0.0625, 0.315, 0.125, 0.3775, 0.19, 0, 0.2525, 0.0625, 0.315, 0.125, 0.3775, 0.19, 0, 0.2525, 0.0625, 0.315, 0.125, 0.3775, 0.19],
  "SoftwareVersions": "syngo MR E11",
  "SpacingBetweenSlices": 2.7,
  "StationName": "AWP66112",
  "TaskName": "alignvideo",
  "TotalReadoutTime": 0.03969,
  "TxRefAmp": 251.699,
  "WipMemBlock": "da71acd1-805a-4742-9f86-37cd8e5be259||Sequence: R016 ve11c/master r/e634e98; Dec 19 2017 11:00:25 by eja",
  "dcmmeta_affine": [
    [-2.679534912109375, 0.13386385142803192, -0.01654152013361454, 105.60542297363281],
    [0.13430476188659668, 2.6783134937286377, -0.08234554529190063, -102.08648681640625],
    [-0.012326032854616642, 0.08254420757293701, 2.69869327545166, -73.22676849365234],
    [0.0, 0.0, 0.0, 1.0]
],
  "dcmmeta_reorient_transform": [
    [0.0, -1.0, 0.0, 81.0],
    [1.0, 0.0, 0.0, 0.0],
    [0.0, 0.0, 1.0, 0.0],
    [0.0, 0.0, 0.0, 1.0]
],
  "dcmmeta_shape": [82, 82, 56, 1073],
  "dcmmeta_slice_dim": 2,
  "dcmmeta_version": 0.6,
  "global": {
    "const": {
      "AccessionNumber": "A003793",
      "AcquisitionMatrix": [82, 0, 0, 82],
      "AngioFlag": "N",
      "BitsAllocated": 16,
      "BitsStored": 16,
      "BodyPartExamined": "BRAIN",
      "Columns": 656,
      "EchoNumbers": 1,
      "EchoTime": 27.2,
      "EchoTrainLength": 82,
      "FlipAngle": 44.0,
      "HighBit": 15,
      "ImageOrientationPatient": [0.99873569303992, -0.0500590484195, -0.0045942485137, 0.04989470490319, 0.99828049278587, -0.0307664776312],
      "ImagePositionPatient": [-923.8938223553, -844.98744411374, -39.31292676672],
      "ImageType": [
        "ORIGINAL",
        "PRIMARY",
        "M",
        "MB",
        "ND",
        "NORM",
        "MOSAIC"
],
      "ImagedNucleus": "1H",
      "ImagingFrequency": 123.252201,
      "InPlanePhaseEncodingDirection": "COL",
      "MRAcquisitionType": "2D",
      "MagneticFieldStrength": 3.0,
      "Manufacturer": "SIEMENS",
      "ManufacturerModelName": "Prisma",
      "Modality": "MR",
      "NumberOfAverages": 1.0,
      "NumberOfPhaseEncodingSteps": 82,
      "PercentPhaseFieldOfView": 100.0,
      "PercentSampling": 100.0,
      "PerformedProcedureStepStartTime": "143343.482000",
      "PhotometricInterpretation": "MONOCHROME2",
      "PixelBandwidth": 3050.0,
      "PixelRepresentation": 0,
      "PixelSpacing": [2.6829268932343, 2.6829268932343],
      "ProtocolName": "func_run-01_task-alignvideo_acq-ap-mb8",
      "RepetitionTime": 460.0,
      "Rows": 656,
      "SAR": 0.10104175143401,
      "SamplesPerPixel": 1,
      "ScanOptions": "FS",
      "ScanningSequence": "EP",
      "SequenceName": "epfid2d1_82",
      "SequenceVariant": [
        "SK",
        "SS"
],
      "SeriesDescription": "func_run-01_task-alignvideo_acq-ap-mb8",
      "SeriesNumber": 30,
      "SeriesTime": "155206.217000",
      "SliceLocation": -70.724849911078,
      "SliceThickness": 2.7000000476837,
      "SmallestImagePixelValue": 0,
      "SoftwareVersions": "syngo MR E11",
      "SpacingBetweenSlices": 2.6999999811399,
      "SpecificCharacterSet": "ISO_IR 100",
      "StudyID": "1",
      "StudyTime": "143343.428000",
      "TransmitCoilName": "Body",
      "VariableFlipAngleFlag": "N",
      "WindowCenterWidthExplanation": "Algo1",
      "dBdt": 0.0},
    "slices": {}
  },
  "time": {
    "samples": {
      "AcquisitionNumber": [1, 2, 3, 4, 5, 6, 7, 8, 9, 10, 11, 12, 13, 14, 15, 16, 17, 18, 19, 20, 21, 22, 23, 24, 25, 26, 27, 28, 29, 30, 31, 32, 33, 34, 35, 36, 37, 38, 39, 40, 41, 42, 43, 44, 45, 46, 47, 48, 49, 50, 51, 52, 53, 54, 55, 56, 57, 58, 59, 60, 61, 62, 63, 64, 65, 66, 67, 68, 69, 70, 71, 72, 73, 74, 75, 76, 77, 78, 79, 80, 81, 82, 83, 84, 85, 86, 87, 88, 89, 90, 91, 92, 93, 94, 95, 96, 97, 98, 99, 100, 101, 102, 103, 104, 105, 106, 107, 108, 109, 110, 111, 112, 113, 114, 115, 116, 117, 118, 119, 120, 121, 122, 123, 124, 125, 126, 127, 128, 129, 130, 131, 132, 133, 134, 135, 136, 137, 138, 139, 140, 141, 142, 143, 144, 145, 146, 147, 148, 149, 150, 151, 152, 153, 154, 155, 156, 157, 158, 159, 160, 161, 162, 163, 164, 165, 166, 167, 168, 169, 170, 171, 172, 173, 174, 175, 176, 177, 178, 179, 180, 181, 182, 183, 184, 185, 186, 187, 188, 189, 190, 191, 192, 193, 194, 195, 196, 197, 198, 199, 200, 201, 202, 203, 204, 205, 206, 207, 208, 209, 210, 211, 212, 213, 214, 215, 216, 217, 218, 219, 220, 221, 222, 223, 224, 225, 226, 227, 228, 229, 230, 231, 232, 233, 234, 235, 236, 237, 238, 239, 240, 241, 242, 243, 244, 245, 246, 247, 248, 249, 250, 251, 252, 253, 254, 255, 256, 257, 258, 259, 260, 261, 262, 263, 264, 265, 266, 267, 268, 269, 270, 271, 272, 273, 274, 275, 276, 277, 278, 279, 280, 281, 282, 283, 284, 285, 286, 287, 288, 289, 290, 291, 292, 293, 294, 295, 296, 297, 298, 299, 300, 301, 302, 303, 304, 305, 306, 307, 308, 309, 310, 311, 312, 313, 314, 315, 316, 317, 318, 319, 320, 321, 322, 323, 324, 325, 326, 327, 328, 329, 330, 331, 332, 333, 334, 335, 336, 337, 338, 339, 340, 341, 342, 343, 344, 345, 346, 347, 348, 349, 350, 351, 352, 353, 354, 355, 356, 357, 358, 359, 360, 361, 362, 363, 364, 365, 366, 367, 368, 369, 370, 371, 372, 373, 374, 375, 376, 377, 378, 379, 380, 381, 382, 383, 384, 385, 386, 387, 388, 389, 390, 391, 392, 393, 394, 395, 396, 397, 398, 399, 400, 401, 402, 403, 404, 405, 406, 407, 408, 409, 410, 411, 412, 413, 414, 415, 416, 417, 418, 419, 420, 421, 422, 423, 424, 425, 426, 427, 428, 429, 430, 431, 432, 433, 434, 435, 436, 437, 438, 439, 440, 441, 442, 443, 444, 445, 446, 447, 448, 449, 450, 451, 452, 453, 454, 455, 456, 457, 458, 459, 460, 461, 462, 463, 464, 465, 466, 467, 468, 469, 470, 471, 472, 473, 474, 475, 476, 477, 478, 479, 480, 481, 482, 483, 484, 485, 486, 487, 488, 489, 490, 491, 492, 493, 494, 495, 496, 497, 498, 499, 500, 501, 502, 503, 504, 505, 506, 507, 508, 509, 510, 511, 512, 513, 514, 515, 516, 517, 518, 519, 520, 521, 522, 523, 524, 525, 526, 527, 528, 529, 530, 531, 532, 533, 534, 535, 536, 537, 538, 539, 540, 541, 542, 543, 544, 545, 546, 547, 548, 549, 550, 551, 552, 553, 554, 555, 556, 557, 558, 559, 560, 561, 562, 563, 564, 565, 566, 567, 568, 569, 570, 571, 572, 573, 574, 575, 576, 577, 578, 579, 580, 581, 582, 583, 584, 585, 586, 587, 588, 589, 590, 591, 592, 593, 594, 595, 596, 597, 598, 599, 600, 601, 602, 603, 604, 605, 606, 607, 608, 609, 610, 611, 612, 613, 614, 615, 616, 617, 618, 619, 620, 621, 622, 623, 624, 625, 626, 627, 628, 629, 630, 631, 632, 633, 634, 635, 636, 637, 638, 639, 640, 641, 642, 643, 644, 645, 646, 647, 648, 649, 650, 651, 652, 653, 654, 655, 656, 657, 658, 659, 660, 661, 662, 663, 664, 665, 666, 667, 668, 669, 670, 671, 672, 673, 674, 675, 676, 677, 678, 679, 680, 681, 682, 683, 684, 685, 686, 687, 688, 689, 690, 691, 692, 693, 694, 695, 696, 697, 698, 699, 700, 701, 702, 703, 704, 705, 706, 707, 708, 709, 710, 711, 712, 713, 714, 715, 716, 717, 718, 719, 720, 721, 722, 723, 724, 725, 726, 727, 728, 729, 730, 731, 732, 733, 734, 735, 736, 737, 738, 739, 740, 741, 742, 743, 744, 745, 746, 747, 748, 749, 750, 751, 752, 753, 754, 755, 756, 757, 758, 759, 760, 761, 762, 763, 764, 765, 766, 767, 768, 769, 770, 771, 772, 773, 774, 775, 776, 777, 778, 779, 780, 781, 782, 783, 784, 785, 786, 787, 788, 789, 790, 791, 792, 793, 794, 795, 796, 797, 798, 799, 800, 801, 802, 803, 804, 805, 806, 807, 808, 809, 810, 811, 812, 813, 814, 815, 816, 817, 818, 819, 820, 821, 822, 823, 824, 825, 826, 827, 828, 829, 830, 831, 832, 833, 834, 835, 836, 837, 838, 839, 840, 841, 842, 843, 844, 845, 846, 847, 848, 849, 850, 851, 852, 853, 854, 855, 856, 857, 858, 859, 860, 861, 862, 863, 864, 865, 866, 867, 868, 869, 870, 871, 872, 873, 874, 875, 876, 877, 878, 879, 880, 881, 882, 883, 884, 885, 886, 887, 888, 889, 890, 891, 892, 893, 894, 895, 896, 897, 898, 899, 900, 901, 902, 903, 904, 905, 906, 907, 908, 909, 910, 911, 912, 913, 914, 915, 916, 917, 918, 919, 920, 921, 922, 923, 924, 925, 926, 927, 928, 929, 930, 931, 932, 933, 934, 935, 936, 937, 938, 939, 940, 941, 942, 943, 944, 945, 946, 947, 948, 949, 950, 951, 952, 953, 954, 955, 956, 957, 958, 959, 960, 961, 962, 963, 964, 965, 966, 967, 968, 969, 970, 971, 972, 973, 974, 975, 976, 977, 978, 979, 980, 981, 982, 983, 984, 985, 986, 987, 988, 989, 990, 991, 992, 993, 994, 995, 996, 997, 998, 999, 1000, 1001, 1002, 1003, 1004, 1005, 1006, 1007, 1008, 1009, 1010, 1011, 1012, 1013, 1014, 1015, 1016, 1017, 1018, 1019, 1020, 1021, 1022, 1023, 1024, 1025, 1026, 1027, 1028, 1029, 1030, 1031, 1032, 1033, 1034, 1035, 1036, 1037, 1038, 1039, 1040, 1041, 1042, 1043, 1044, 1045, 1046, 1047, 1048, 1049, 1050, 1051, 1052, 1053, 1054, 1055, 1056, 1057, 1058, 1059, 1060, 1061, 1062, 1063, 1064, 1065, 1066, 1067, 1068, 1069, 1070, 1071, 1072, 1073],
      "AcquisitionTime": ["155138.490000", "155138.950000", "155139.410000", "155139.870000", "155140.330000", "155140.790000", "155141.250000", "155141.710000", "155142.170000", "155142.630000", "155143.090000", "155143.550000", "155144.010000", "155144.470000", "155144.930000", "155145.390000", "155145.850000", "155146.310000", "155146.770000", "155147.230000", "155147.690000", "155148.150000", "155148.610000", "155149.070000", "155149.530000", "155149.990000", "155150.450000", "155150.910000", "155151.370000", "155151.830000", "155152.290000", "155152.750000", "155153.210000", "155153.670000", "155154.130000", "155154.590000", "155155.050000", "155155.510000", "155155.970000", "155156.430000", "155156.890000", "155157.350000", "155157.810000", "155158.270000", "155158.730000", "155159.190000", "155159.650000", "155200.110000", "155200.570000", "155201.030000", "155201.490000", "155201.950000", "155202.410000", "155202.870000", "155203.330000", "155203.790000", "155204.250000", "155204.710000", "155205.170000", "155205.630000", "155206.090000", "155206.550000", "155207.010000", "155207.470000", "155207.930000", "155208.390000", "155208.850000", "155209.310000", "155209.770000", "155210.230000", "155210.690000", "155211.150000", "155211.610000", "155212.070000", "155212.530000", "155212.990000", "155213.450000", "155213.910000", "155214.370000", "155214.830000", "155215.290000", "155215.750000", "155216.210000", "155216.670000", "155217.130000", "155217.590000", "155218.050000", "155218.510000", "155218.970000", "155219.430000", "155219.890000", "155220.350000", "155220.810000", "155221.270000", "155221.730000", "155222.190000", "155222.650000", "155223.110000", "155223.570000", "155224.030000", "155224.490000", "155224.950000", "155225.410000", "155225.870000", "155226.330000", "155226.790000", "155227.250000", "155227.710000", "155228.170000", "155228.630000", "155229.090000", "155229.550000", "155230.010000", "155230.470000", "155230.930000", "155231.390000", "155231.850000", "155232.310000", "155232.770000", "155233.230000", "155233.690000", "155234.150000", "155234.610000", "155235.070000", "155235.530000", "155235.990000", "155236.450000", "155236.910000", "155237.370000", "155237.830000", "155238.290000", "155238.750000", "155239.210000", "155239.670000", "155240.130000", "155240.590000", "155241.050000", "155241.510000", "155241.970000", "155242.430000", "155242.890000", "155243.350000", "155243.810000", "155244.270000", "155244.730000", "155245.190000", "155245.650000", "155246.110000", "155246.570000", "155247.030000", "155247.490000", "155247.950000", "155248.410000", "155248.870000", "155249.330000", "155249.790000", "155250.250000", "155250.710000", "155251.170000", "155251.630000", "155252.090000", "155252.550000", "155253.010000", "155253.470000", "155253.930000", "155254.390000", "155254.850000", "155255.310000", "155255.770000", "155256.230000", "155256.690000", "155257.150000", "155257.610000", "155258.070000", "155258.530000", "155258.990000", "155259.450000", "155259.910000", "155300.370000", "155300.830000", "155301.290000", "155301.750000", "155302.210000", "155302.670000", "155303.130000", "155303.590000", "155304.050000", "155304.510000", "155304.970000", "155305.430000", "155305.890000", "155306.350000", "155306.810000", "155307.270000", "155307.730000", "155308.190000", "155308.650000", "155309.110000", "155309.570000", "155310.030000", "155310.490000", "155310.950000", "155311.410000", "155311.870000", "155312.330000", "155312.790000", "155313.250000", "155313.710000", "155314.170000", "155314.630000", "155315.090000", "155315.550000", "155316.010000", "155316.470000", "155316.930000", "155317.390000", "155317.850000", "155318.310000", "155318.770000", "155319.230000", "155319.690000", "155320.150000", "155320.610000", "155321.070000", "155321.530000", "155321.990000", "155322.450000", "155322.910000", "155323.370000", "155323.830000", "155324.290000", "155324.750000", "155325.210000", "155325.670000", "155326.130000", "155326.590000", "155327.050000", "155327.510000", "155327.970000", "155328.430000", "155328.890000", "155329.350000", "155329.810000", "155330.270000", "155330.730000", "155331.190000", "155331.650000", "155332.110000", "155332.570000", "155333.030000", "155333.490000", "155333.950000", "155334.410000", "155334.870000", "155335.330000", "155335.790000", "155336.250000", "155336.710000", "155337.170000", "155337.630000", "155338.090000", "155338.550000", "155339.010000", "155339.470000", "155339.930000", "155340.390000", "155340.850000", "155341.310000", "155341.770000", "155342.230000", "155342.690000", "155343.150000", "155343.610000", "155344.070000", "155344.530000", "155344.990000", "155345.450000", "155345.910000", "155346.370000", "155346.830000", "155347.290000", "155347.750000", "155348.210000", "155348.670000", "155349.130000", "155349.590000", "155350.050000", "155350.510000", "155350.970000", "155351.430000", "155351.890000", "155352.350000", "155352.810000", "155353.270000", "155353.730000", "155354.190000", "155354.650000", "155355.110000", "155355.570000", "155356.030000", "155356.490000", "155356.950000", "155357.410000", "155357.870000", "155358.330000", "155358.790000", "155359.250000", "155359.710000", "155400.170000", "155400.630000", "155401.090000", "155401.550000", "155402.010000", "155402.470000", "155402.930000", "155403.390000", "155403.850000", "155404.310000", "155404.770000", "155405.230000", "155405.690000", "155406.150000", "155406.610000", "155407.070000", "155407.530000", "155407.990000", "155408.450000", "155408.910000", "155409.370000", "155409.830000", "155410.290000", "155410.750000", "155411.210000", "155411.670000", "155412.130000", "155412.590000", "155413.050000", "155413.510000", "155413.970000", "155414.430000", "155414.890000", "155415.350000", "155415.810000", "155416.270000", "155416.730000", "155417.190000", "155417.650000", "155418.110000", "155418.570000", "155419.030000", "155419.490000", "155419.950000", "155420.410000", "155420.870000", "155421.330000", "155421.790000", "155422.250000", "155422.710000", "155423.170000", "155423.630000", "155424.090000", "155424.550000", "155425.010000", "155425.470000", "155425.930000", "155426.390000", "155426.850000", "155427.310000", "155427.770000", "155428.230000", "155428.690000", "155429.150000", "155429.610000", "155430.070000", "155430.530000", "155430.990000", "155431.450000", "155431.910000", "155432.370000", "155432.830000", "155433.290000", "155433.750000", "155434.210000", "155434.670000", "155435.130000", "155435.590000", "155436.050000", "155436.510000", "155436.970000", "155437.430000", "155437.890000", "155438.350000", "155438.810000", "155439.270000", "155439.730000", "155440.190000", "155440.650000", "155441.110000", "155441.570000", "155442.030000", "155442.490000", "155442.950000", "155443.410000", "155443.870000", "155444.330000", "155444.790000", "155445.250000", "155445.710000", "155446.170000", "155446.630000", "155447.090000", "155447.550000", "155448.010000", "155448.470000", "155448.930000", "155449.390000", "155449.850000", "155450.310000", "155450.770000", "155451.230000", "155451.690000", "155452.150000", "155452.610000", "155453.070000", "155453.530000", "155453.990000", "155454.450000", "155454.910000", "155455.370000", "155455.830000", "155456.290000", "155456.750000", "155457.210000", "155457.670000", "155458.130000", "155458.590000", "155459.050000", "155459.510000", "155459.970000", "155500.430000", "155500.890000", "155501.350000", "155501.810000", "155502.270000", "155502.730000", "155503.190000", "155503.650000", "155504.110000", "155504.570000", "155505.030000", "155505.490000", "155505.950000", "155506.410000", "155506.870000", "155507.330000", "155507.790000", "155508.250000", "155508.710000", "155509.170000", "155509.630000", "155510.090000", "155510.550000", "155511.010000", "155511.470000", "155511.930000", "155512.390000", "155512.850000", "155513.310000", "155513.770000", "155514.230000", "155514.690000", "155515.150000", "155515.610000", "155516.070000", "155516.530000", "155516.990000", "155517.450000", "155517.910000", "155518.370000", "155518.830000", "155519.290000", "155519.750000", "155520.210000", "155520.670000", "155521.130000", "155521.590000", "155522.050000", "155522.510000", "155522.970000", "155523.430000", "155523.890000", "155524.350000", "155524.810000", "155525.270000", "155525.730000", "155526.190000", "155526.650000", "155527.110000", "155527.570000", "155528.030000", "155528.490000", "155528.950000", "155529.410000", "155529.870000", "155530.330000", "155530.790000", "155531.250000", "155531.710000", "155532.170000", "155532.630000", "155533.090000", "155533.550000", "155534.010000", "155534.470000", "155534.930000", "155535.390000", "155535.850000", "155536.310000", "155536.770000", "155537.230000", "155537.690000", "155538.150000", "155538.610000", "155539.070000", "155539.530000", "155539.990000", "155540.450000", "155540.910000", "155541.370000", "155541.830000", "155542.290000", "155542.750000", "155543.210000", "155543.670000", "155544.130000", "155544.590000", "155545.050000", "155545.510000", "155545.970000", "155546.430000", "155546.890000", "155547.350000", "155547.810000", "155548.270000", "155548.730000", "155549.190000", "155549.650000", "155550.110000", "155550.570000", "155551.030000", "155551.490000", "155551.950000", "155552.410000", "155552.870000", "155553.330000", "155553.790000", "155554.250000", "155554.710000", "155555.170000", "155555.630000", "155556.090000", "155556.550000", "155557.010000", "155557.470000", "155557.930000", "155558.390000", "155558.850000", "155559.310000", "155559.770000", "155600.230000", "155600.690000", "155601.150000", "155601.610000", "155602.070000", "155602.530000", "155602.990000", "155603.450000", "155603.910000", "155604.370000", "155604.830000", "155605.290000", "155605.750000", "155606.210000", "155606.670000", "155607.130000", "155607.590000", "155608.050000", "155608.510000", "155608.970000", "155609.430000", "155609.890000", "155610.350000", "155610.810000", "155611.270000", "155611.730000", "155612.190000", "155612.650000", "155613.110000", "155613.570000", "155614.030000", "155614.490000", "155614.950000", "155615.410000", "155615.870000", "155616.330000", "155616.790000", "155617.250000", "155617.710000", "155618.170000", "155618.630000", "155619.090000", "155619.550000", "155620.010000", "155620.470000", "155620.930000", "155621.390000", "155621.850000", "155622.310000", "155622.770000", "155623.230000", "155623.690000", "155624.150000", "155624.610000", "155625.070000", "155625.530000", "155625.990000", "155626.450000", "155626.910000", "155627.370000", "155627.830000", "155628.290000", "155628.750000", "155629.210000", "155629.670000", "155630.130000", "155630.590000", "155631.050000", "155631.510000", "155631.970000", "155632.430000", "155632.890000", "155633.350000", "155633.810000", "155634.270000", "155634.730000", "155635.190000", "155635.650000", "155636.110000", "155636.570000", "155637.030000", "155637.490000", "155637.950000", "155638.410000", "155638.870000", "155639.330000", "155639.790000", "155640.250000", "155640.710000", "155641.170000", "155641.630000", "155642.090000", "155642.550000", "155643.010000", "155643.470000", "155643.930000", "155644.390000", "155644.850000", "155645.310000", "155645.770000", "155646.230000", "155646.690000", "155647.150000", "155647.610000", "155648.070000", "155648.530000", "155648.990000", "155649.450000", "155649.910000", "155650.370000", "155650.830000", "155651.290000", "155651.750000", "155652.210000", "155652.670000", "155653.130000", "155653.590000", "155654.050000", "155654.510000", "155654.970000", "155655.430000", "155655.890000", "155656.350000", "155656.810000", "155657.270000", "155657.730000", "155658.190000", "155658.650000", "155659.110000", "155659.570000", "155700.030000", "155700.490000", "155700.950000", "155701.410000", "155701.870000", "155702.330000", "155702.790000", "155703.250000", "155703.710000", "155704.170000", "155704.630000", "155705.090000", "155705.550000", "155706.010000", "155706.470000", "155706.930000", "155707.390000", "155707.850000", "155708.310000", "155708.770000", "155709.230000", "155709.690000", "155710.150000", "155710.610000", "155711.070000", "155711.530000", "155711.990000", "155712.450000", "155712.910000", "155713.370000", "155713.830000", "155714.290000", "155714.750000", "155715.210000", "155715.670000", "155716.130000", "155716.590000", "155717.050000", "155717.510000", "155717.970000", "155718.430000", "155718.890000", "155719.350000", "155719.810000", "155720.270000", "155720.730000", "155721.190000", "155721.650000", "155722.110000", "155722.570000", "155723.030000", "155723.490000", "155723.950000", "155724.410000", "155724.870000", "155725.330000", "155725.790000", "155726.250000", "155726.710000", "155727.170000", "155727.630000", "155728.090000", "155728.550000", "155729.010000", "155729.470000", "155729.930000", "155730.390000", "155730.850000", "155731.310000", "155731.770000", "155732.230000", "155732.690000", "155733.150000", "155733.610000", "155734.070000", "155734.530000", "155734.990000", "155735.450000", "155735.910000", "155736.370000", "155736.830000", "155737.290000", "155737.750000", "155738.210000", "155738.670000", "155739.130000", "155739.590000", "155740.050000", "155740.510000", "155740.970000", "155741.430000", "155741.890000", "155742.350000", "155742.810000", "155743.270000", "155743.730000", "155744.190000", "155744.650000", "155745.110000", "155745.570000", "155746.030000", "155746.490000", "155746.950000", "155747.410000", "155747.870000", "155748.330000", "155748.790000", "155749.250000", "155749.710000", "155750.170000", "155750.630000", "155751.090000", "155751.550000", "155752.010000", "155752.470000", "155752.930000", "155753.390000", "155753.850000", "155754.310000", "155754.770000", "155755.230000", "155755.690000", "155756.150000", "155756.610000", "155757.070000", "155757.530000", "155757.990000", "155758.450000", "155758.910000", "155759.370000", "155759.830000", "155800.290000", "155800.750000", "155801.210000", "155801.670000", "155802.130000", "155802.590000", "155803.050000", "155803.510000", "155803.970000", "155804.430000", "155804.890000", "155805.350000", "155805.810000", "155806.270000", "155806.730000", "155807.190000", "155807.650000", "155808.110000", "155808.570000", "155809.030000", "155809.490000", "155809.950000", "155810.410000", "155810.870000", "155811.330000", "155811.790000", "155812.250000", "155812.710000", "155813.170000", "155813.630000", "155814.090000", "155814.550000", "155815.010000", "155815.470000", "155815.930000", "155816.390000", "155816.850000", "155817.310000", "155817.770000", "155818.230000", "155818.690000", "155819.150000", "155819.610000", "155820.070000", "155820.530000", "155820.990000", "155821.450000", "155821.910000", "155822.370000", "155822.830000", "155823.290000", "155823.750000", "155824.210000", "155824.670000", "155825.130000", "155825.590000", "155826.050000", "155826.510000", "155826.970000", "155827.430000", "155827.890000", "155828.350000", "155828.810000", "155829.270000", "155829.730000", "155830.190000", "155830.650000", "155831.110000", "155831.570000", "155832.030000", "155832.490000", "155832.950000", "155833.410000", "155833.870000", "155834.330000", "155834.790000", "155835.250000", "155835.710000", "155836.170000", "155836.630000", "155837.090000", "155837.550000", "155838.010000", "155838.470000", "155838.930000", "155839.390000", "155839.850000", "155840.310000", "155840.770000", "155841.230000", "155841.690000", "155842.150000", "155842.610000", "155843.070000", "155843.530000", "155843.990000", "155844.450000", "155844.910000", "155845.370000", "155845.830000", "155846.290000", "155846.750000", "155847.210000", "155847.670000", "155848.130000", "155848.590000", "155849.050000", "155849.510000", "155849.970000", "155850.430000", "155850.890000", "155851.350000", "155851.810000", "155852.270000", "155852.730000", "155853.190000", "155853.650000", "155854.110000", "155854.570000", "155855.030000", "155855.490000", "155855.950000", "155856.410000", "155856.870000", "155857.330000", "155857.790000", "155858.250000", "155858.710000", "155859.170000", "155859.630000", "155900.090000", "155900.550000", "155901.010000", "155901.470000", "155901.930000", "155902.390000", "155902.850000", "155903.310000", "155903.770000", "155904.230000", "155904.690000", "155905.150000", "155905.610000", "155906.070000", "155906.530000", "155906.990000", "155907.450000", "155907.910000", "155908.370000", "155908.830000", "155909.290000", "155909.750000", "155910.210000", "155910.670000", "155911.130000", "155911.590000", "155912.050000", "155912.510000", "155912.970000", "155913.430000", "155913.890000", "155914.350000", "155914.810000", "155915.270000", "155915.730000", "155916.190000", "155916.650000", "155917.110000", "155917.570000", "155918.030000", "155918.490000", "155918.950000", "155919.410000", "155919.870000", "155920.330000", "155920.790000", "155921.250000", "155921.710000", "155922.170000", "155922.630000", "155923.090000", "155923.550000", "155924.010000", "155924.470000", "155924.930000", "155925.390000", "155925.850000", "155926.310000", "155926.770000", "155927.230000", "155927.690000", "155928.150000", "155928.610000", "155929.070000", "155929.530000", "155929.990000", "155930.450000", "155930.910000", "155931.370000", "155931.830000", "155932.290000", "155932.750000", "155933.210000", "155933.670000", "155934.130000", "155934.590000", "155935.050000", "155935.510000", "155935.970000", "155936.430000", "155936.890000", "155937.350000", "155937.810000", "155938.270000", "155938.730000", "155939.190000", "155939.650000", "155940.110000", "155940.570000", "155941.030000", "155941.490000", "155941.950000", "155942.410000", "155942.870000", "155943.330000", "155943.790000", "155944.250000", "155944.710000", "155945.170000", "155945.630000", "155946.090000", "155946.550000", "155947.010000", "155947.470000", "155947.930000", "155948.390000", "155948.850000", "155949.310000", "155949.770000", "155950.230000", "155950.690000", "155951.150000", "155951.610000"],
