{
  "AcquisitionMatrixPE": 82,
  "AcquisitionNumber": 1,
  "AcquisitionTime": "15:09:47.030000",
  "BandwidthPerPixelPhaseEncode": 24.888,
  "BaseResolution": 82,
  "BodyPartExamined": "BRAIN",
  "ConsistencyInfo": "N4_VE11C_LATEST_20160120",
  "ConversionSoftware": "dcm2niix",
  "ConversionSoftwareVersion": "v1.0.20201102",
  "DerivedVendorReportedEchoSpacing": 0.00049,
  "DeviceSerialNumber": "66112",
  "DwellTime": 2e-06,
  "EchoTime": 0.0272,
  "EchoTrainLength": 82,
  "EffectiveEchoSpacing": 0.00049,
  "FlipAngle": 44,
  "ImageComments": "Unaliased MB8/PE3",
  "ImageOrientationPatientDICOM": [0.99916, 0.037949, -0.0154846, -0.0392571, 0.994662, -0.0954243],
  "ImageType": [
    "ORIGINAL",
    "PRIMARY",
    "M",
    "MB",
    "ND",
    "NORM",
    "MOSAIC"
],
  "ImagingFrequency": 123.252,
  "InPlanePhaseEncodingDirectionDICOM": "COL",
  "InstitutionAddress": "Maynard 3,Hanover,NH,US,03755",
  "InstitutionName": "Dartmouth College - PBS",
  "InstitutionalDepartmentName": "Department",
  "MRAcquisitionType": "2D",
  "MagneticFieldStrength": 3,
  "Manufacturer": "Siemens",
  "ManufacturersModelName": "Prisma",
  "Modality": "MR",
  "MultibandAccelerationFactor": 8,
  "PartialFourier": 1,
  "PatientPosition": "HFS",
  "PercentPhaseFOV": 100,
  "PercentSampling": 100,
  "PhaseEncodingDirection": "j-",
  "PhaseEncodingSteps": 82,
  "PhaseResolution": 1,
  "PixelBandwidth": 3050,
  "ProcedureStepDescription": "Wager_Wager^1076_spacetop",
  "ProtocolName": "func_run-02_task-social_acq-ap-mb8",
  "PulseSequenceDetails": "%CustomerSeq%\\cmrr_mbep2d_bold",
  "ReceiveCoilActiveElements": "HEA;HEP",
  "ReceiveCoilName": "Head_32",
  "ReconMatrixPE": 82,
  "RepetitionTime": 0.46,
  "SAR": 0.100924,
  "ScanOptions": "FS",
  "ScanningSequence": "EP",
  "SequenceName": "epfid2d1_82",
  "SequenceVariant": "SK\\SS",
  "SeriesDescription": "func_run-02_task-social_acq-ap-mb8",
  "SeriesNumber": 14,
  "ShimSetting": [4130, -7791, -7244, 580, -57, -265, 47, 87],
  "SliceThickness": 2.7,
  "SliceTiming": [0, 0.2525, 0.065, 0.315, 0.1275, 0.3775, 0.19, 0, 0.2525, 0.065, 0.315, 0.1275, 0.3775, 0.19, 0, 0.2525, 0.065, 0.315, 0.1275, 0.3775, 0.19, 0, 0.2525, 0.065, 0.315, 0.1275, 0.3775, 0.19, 0, 0.2525, 0.065, 0.315, 0.1275, 0.3775, 0.19, 0, 0.2525, 0.065, 0.315, 0.1275, 0.3775, 0.19, 0, 0.2525, 0.065, 0.315, 0.1275, 0.3775, 0.19, 0, 0.2525, 0.065, 0.315, 0.1275, 0.3775, 0.19],
  "SoftwareVersions": "syngo MR E11",
  "SpacingBetweenSlices": 2.7,
  "StationName": "AWP66112",
  "TaskName": "social",
  "TotalReadoutTime": 0.03969,
  "TxRefAmp": 251.699,
  "WipMemBlock": "cb2d4506-3bd7-44eb-99c3-afd8e844f4ea||Sequence: R016 ve11c/master r/e634e98; Dec 19 2017 11:00:25 by eja",
  "dcmmeta_affine": [
    [-2.6806724071502686, -0.10532385110855103, -0.03180789202451706, 116.67813873291016],
    [-0.10181448608636856, 2.6686062812805176, -0.259070485830307, -79.74855041503906],
    [-0.04154408723115921, 0.2560165226459503, 2.6873538494110107, -81.39044189453125],
    [0.0, 0.0, 0.0, 1.0]
],
  "dcmmeta_reorient_transform": [
    [0.0, -1.0, 0.0, 81.0],
    [1.0, 0.0, 0.0, 0.0],
    [0.0, 0.0, 1.0, 0.0],
    [0.0, 0.0, 0.0, 1.0]
],
  "dcmmeta_shape": [82, 82, 56, 872],
  "dcmmeta_slice_dim": 2,
  "dcmmeta_version": 0.6,
  "global": {
    "const": {
      "AccessionNumber": "A003793",
      "AcquisitionMatrix": [82, 0, 0, 82],
      "AngioFlag": "N",
      "BitsAllocated": 16,
      "BitsStored": 16,
      "BodyPartExamined": "BRAIN",
      "Columns": 656,
      "EchoNumbers": 1,
      "EchoTime": 27.2,
      "EchoTrainLength": 82,
      "FlipAngle": 44.0,
      "HighBit": 15,
      "ImageOrientationPatient": [0.99915969565917, 0.03794903570883, -0.0154846136228, -0.0392570717698, 0.99466229358198, -0.0954243367402],
      "ImagePositionPatient": [-847.27194754178, -931.5192938549, 24.746790267487],
      "ImageType": [
        "ORIGINAL",
        "PRIMARY",
        "M",
        "MB",
        "ND",
        "NORM",
        "MOSAIC"
],
      "ImagedNucleus": "1H",
      "ImagingFrequency": 123.252204,
      "InPlanePhaseEncodingDirection": "COL",
      "MRAcquisitionType": "2D",
      "MagneticFieldStrength": 3.0,
      "Manufacturer": "SIEMENS",
      "ManufacturerModelName": "Prisma",
      "Modality": "MR",
      "NumberOfAverages": 1.0,
      "NumberOfPhaseEncodingSteps": 82,
      "PercentPhaseFieldOfView": 100.0,
      "PercentSampling": 100.0,
      "PerformedProcedureStepStartTime": "143343.482000",
      "PhotometricInterpretation": "MONOCHROME2",
      "PixelBandwidth": 3050.0,
      "PixelRepresentation": 0,
      "PixelSpacing": [2.6829268932343, 2.6829268932343],
      "ProtocolName": "func_run-02_task-social_acq-ap-mb8",
      "RepetitionTime": 460.0,
      "Rows": 656,
      "SAR": 0.10092405592948,
      "SamplesPerPixel": 1,
      "ScanOptions": "FS",
      "ScanningSequence": "EP",
      "SequenceName": "epfid2d1_82",
      "SequenceVariant": [
        "SK",
        "SS"
],
      "SeriesDescription": "func_run-02_task-social_acq-ap-mb8",
      "SeriesNumber": 14,
      "SeriesTime": "151006.060000",
      "SliceLocation": -74.731743054121,
      "SliceThickness": 2.7000000476837,
      "SmallestImagePixelValue": 0,
      "SoftwareVersions": "syngo MR E11",
      "SpacingBetweenSlices": 2.7000000746012,
      "SpecificCharacterSet": "ISO_IR 100",
      "StudyID": "1",
      "StudyTime": "143343.428000",
      "TransmitCoilName": "Body",
      "VariableFlipAngleFlag": "N",
      "WindowCenterWidthExplanation": "Algo1",
      "dBdt": 0.0},
    "slices": {}
  },
  "time": {
    "samples": {
      "AcquisitionNumber": [1, 2, 3, 4, 5, 6, 7, 8, 9, 10, 11, 12, 13, 14, 15, 16, 17, 18, 19, 20, 21, 22, 23, 24, 25, 26, 27, 28, 29, 30, 31, 32, 33, 34, 35, 36, 37, 38, 39, 40, 41, 42, 43, 44, 45, 46, 47, 48, 49, 50, 51, 52, 53, 54, 55, 56, 57, 58, 59, 60, 61, 62, 63, 64, 65, 66, 67, 68, 69, 70, 71, 72, 73, 74, 75, 76, 77, 78, 79, 80, 81, 82, 83, 84, 85, 86, 87, 88, 89, 90, 91, 92, 93, 94, 95, 96, 97, 98, 99, 100, 101, 102, 103, 104, 105, 106, 107, 108, 109, 110, 111, 112, 113, 114, 115, 116, 117, 118, 119, 120, 121, 122, 123, 124, 125, 126, 127, 128, 129, 130, 131, 132, 133, 134, 135, 136, 137, 138, 139, 140, 141, 142, 143, 144, 145, 146, 147, 148, 149, 150, 151, 152, 153, 154, 155, 156, 157, 158, 159, 160, 161, 162, 163, 164, 165, 166, 167, 168, 169, 170, 171, 172, 173, 174, 175, 176, 177, 178, 179, 180, 181, 182, 183, 184, 185, 186, 187, 188, 189, 190, 191, 192, 193, 194, 195, 196, 197, 198, 199, 200, 201, 202, 203, 204, 205, 206, 207, 208, 209, 210, 211, 212, 213, 214, 215, 216, 217, 218, 219, 220, 221, 222, 223, 224, 225, 226, 227, 228, 229, 230, 231, 232, 233, 234, 235, 236, 237, 238, 239, 240, 241, 242, 243, 244, 245, 246, 247, 248, 249, 250, 251, 252, 253, 254, 255, 256, 257, 258, 259, 260, 261, 262, 263, 264, 265, 266, 267, 268, 269, 270, 271, 272, 273, 274, 275, 276, 277, 278, 279, 280, 281, 282, 283, 284, 285, 286, 287, 288, 289, 290, 291, 292, 293, 294, 295, 296, 297, 298, 299, 300, 301, 302, 303, 304, 305, 306, 307, 308, 309, 310, 311, 312, 313, 314, 315, 316, 317, 318, 319, 320, 321, 322, 323, 324, 325, 326, 327, 328, 329, 330, 331, 332, 333, 334, 335, 336, 337, 338, 339, 340, 341, 342, 343, 344, 345, 346, 347, 348, 349, 350, 351, 352, 353, 354, 355, 356, 357, 358, 359, 360, 361, 362, 363, 364, 365, 366, 367, 368, 369, 370, 371, 372, 373, 374, 375, 376, 377, 378, 379, 380, 381, 382, 383, 384, 385, 386, 387, 388, 389, 390, 391, 392, 393, 394, 395, 396, 397, 398, 399, 400, 401, 402, 403, 404, 405, 406, 407, 408, 409, 410, 411, 412, 413, 414, 415, 416, 417, 418, 419, 420, 421, 422, 423, 424, 425, 426, 427, 428, 429, 430, 431, 432, 433, 434, 435, 436, 437, 438, 439, 440, 441, 442, 443, 444, 445, 446, 447, 448, 449, 450, 451, 452, 453, 454, 455, 456, 457, 458, 459, 460, 461, 462, 463, 464, 465, 466, 467, 468, 469, 470, 471, 472, 473, 474, 475, 476, 477, 478, 479, 480, 481, 482, 483, 484, 485, 486, 487, 488, 489, 490, 491, 492, 493, 494, 495, 496, 497, 498, 499, 500, 501, 502, 503, 504, 505, 506, 507, 508, 509, 510, 511, 512, 513, 514, 515, 516, 517, 518, 519, 520, 521, 522, 523, 524, 525, 526, 527, 528, 529, 530, 531, 532, 533, 534, 535, 536, 537, 538, 539, 540, 541, 542, 543, 544, 545, 546, 547, 548, 549, 550, 551, 552, 553, 554, 555, 556, 557, 558, 559, 560, 561, 562, 563, 564, 565, 566, 567, 568, 569, 570, 571, 572, 573, 574, 575, 576, 577, 578, 579, 580, 581, 582, 583, 584, 585, 586, 587, 588, 589, 590, 591, 592, 593, 594, 595, 596, 597, 598, 599, 600, 601, 602, 603, 604, 605, 606, 607, 608, 609, 610, 611, 612, 613, 614, 615, 616, 617, 618, 619, 620, 621, 622, 623, 624, 625, 626, 627, 628, 629, 630, 631, 632, 633, 634, 635, 636, 637, 638, 639, 640, 641, 642, 643, 644, 645, 646, 647, 648, 649, 650, 651, 652, 653, 654, 655, 656, 657, 658, 659, 660, 661, 662, 663, 664, 665, 666, 667, 668, 669, 670, 671, 672, 673, 674, 675, 676, 677, 678, 679, 680, 681, 682, 683, 684, 685, 686, 687, 688, 689, 690, 691, 692, 693, 694, 695, 696, 697, 698, 699, 700, 701, 702, 703, 704, 705, 706, 707, 708, 709, 710, 711, 712, 713, 714, 715, 716, 717, 718, 719, 720, 721, 722, 723, 724, 725, 726, 727, 728, 729, 730, 731, 732, 733, 734, 735, 736, 737, 738, 739, 740, 741, 742, 743, 744, 745, 746, 747, 748, 749, 750, 751, 752, 753, 754, 755, 756, 757, 758, 759, 760, 761, 762, 763, 764, 765, 766, 767, 768, 769, 770, 771, 772, 773, 774, 775, 776, 777, 778, 779, 780, 781, 782, 783, 784, 785, 786, 787, 788, 789, 790, 791, 792, 793, 794, 795, 796, 797, 798, 799, 800, 801, 802, 803, 804, 805, 806, 807, 808, 809, 810, 811, 812, 813, 814, 815, 816, 817, 818, 819, 820, 821, 822, 823, 824, 825, 826, 827, 828, 829, 830, 831, 832, 833, 834, 835, 836, 837, 838, 839, 840, 841, 842, 843, 844, 845, 846, 847, 848, 849, 850, 851, 852, 853, 854, 855, 856, 857, 858, 859, 860, 861, 862, 863, 864, 865, 866, 867, 868, 869, 870, 871, 872],
      "AcquisitionTime": ["150947.030000", "150947.490000", "150947.950000", "150948.410000", "150948.870000", "150949.330000", "150949.790000", "150950.250000", "150950.710000", "150951.170000", "150951.630000", "150952.090000", "150952.550000", "150953.010000", "150953.470000", "150953.930000", "150954.390000", "150954.850000", "150955.310000", "150955.770000", "150956.230000", "150956.690000", "150957.150000", "150957.610000", "150958.070000", "150958.530000", "150958.990000", "150959.450000", "150959.910000", "151000.370000", "151000.830000", "151001.290000", "151001.750000", "151002.210000", "151002.670000", "151003.130000", "151003.590000", "151004.050000", "151004.510000", "151004.970000", "151005.430000", "151005.890000", "151006.350000", "151006.810000", "151007.270000", "151007.730000", "151008.190000", "151008.650000", "151009.110000", "151009.570000", "151010.030000", "151010.490000", "151010.950000", "151011.410000", "151011.870000", "151012.330000", "151012.790000", "151013.250000", "151013.710000", "151014.170000", "151014.630000", "151015.090000", "151015.550000", "151016.010000", "151016.470000", "151016.930000", "151017.390000", "151017.850000", "151018.310000", "151018.770000", "151019.230000", "151019.690000", "151020.150000", "151020.610000", "151021.070000", "151021.530000", "151021.990000", "151022.450000", "151022.910000", "151023.370000", "151023.830000", "151024.290000", "151024.750000", "151025.210000", "151025.670000", "151026.130000", "151026.590000", "151027.050000", "151027.510000", "151027.970000", "151028.430000", "151028.890000", "151029.350000", "151029.810000", "151030.270000", "151030.730000", "151031.190000", "151031.650000", "151032.110000", "151032.570000", "151033.030000", "151033.490000", "151033.950000", "151034.410000", "151034.870000", "151035.330000", "151035.790000", "151036.250000", "151036.710000", "151037.170000", "151037.630000", "151038.090000", "151038.550000", "151039.010000", "151039.470000", "151039.930000", "151040.390000", "151040.850000", "151041.310000", "151041.770000", "151042.230000", "151042.690000", "151043.150000", "151043.610000", "151044.070000", "151044.530000", "151044.990000", "151045.450000", "151045.910000", "151046.370000", "151046.830000", "151047.290000", "151047.750000", "151048.210000", "151048.670000", "151049.130000", "151049.590000", "151050.050000", "151050.510000", "151050.970000", "151051.430000", "151051.890000", "151052.350000", "151052.810000", "151053.270000", "151053.730000", "151054.190000", "151054.650000", "151055.110000", "151055.570000", "151056.030000", "151056.490000", "151056.950000", "151057.410000", "151057.870000", "151058.330000", "151058.790000", "151059.250000", "151059.710000", "151100.170000", "151100.630000", "151101.090000", "151101.550000", "151102.010000", "151102.470000", "151102.930000", "151103.390000", "151103.850000", "151104.310000", "151104.770000", "151105.230000", "151105.690000", "151106.150000", "151106.610000", "151107.070000", "151107.530000", "151107.990000", "151108.450000", "151108.910000", "151109.370000", "151109.830000", "151110.290000", "151110.750000", "151111.210000", "151111.670000", "151112.130000", "151112.590000", "151113.050000", "151113.510000", "151113.970000", "151114.430000", "151114.890000", "151115.350000", "151115.810000", "151116.270000", "151116.730000", "151117.190000", "151117.650000", "151118.110000", "151118.570000", "151119.030000", "151119.490000", "151119.950000", "151120.410000", "151120.870000", "151121.330000", "151121.790000", "151122.250000", "151122.710000", "151123.170000", "151123.630000", "151124.090000", "151124.550000", "151125.010000", "151125.470000", "151125.930000", "151126.390000", "151126.850000", "151127.310000", "151127.770000", "151128.230000", "151128.690000", "151129.150000", "151129.610000", "151130.070000", "151130.530000", "151130.990000", "151131.450000", "151131.910000", "151132.370000", "151132.830000", "151133.290000", "151133.750000", "151134.210000", "151134.670000", "151135.130000", "151135.590000", "151136.050000", "151136.510000", "151136.970000", "151137.430000", "151137.890000", "151138.350000", "151138.810000", "151139.270000", "151139.730000", "151140.190000", "151140.650000", "151141.110000", "151141.570000", "151142.030000", "151142.490000", "151142.950000", "151143.410000", "151143.870000", "151144.330000", "151144.790000", "151145.250000", "151145.710000", "151146.170000", "151146.630000", "151147.090000", "151147.550000", "151148.010000", "151148.470000", "151148.930000", "151149.390000", "151149.850000", "151150.310000", "151150.770000", "151151.230000", "151151.690000", "151152.150000", "151152.610000", "151153.070000", "151153.530000", "151153.990000", "151154.450000", "151154.910000", "151155.370000", "151155.830000", "151156.290000", "151156.750000", "151157.210000", "151157.670000", "151158.130000", "151158.590000", "151159.050000", "151159.510000", "151159.970000", "151200.430000", "151200.890000", "151201.350000", "151201.810000", "151202.270000", "151202.730000", "151203.190000", "151203.650000", "151204.110000", "151204.570000", "151205.030000", "151205.490000", "151205.950000", "151206.410000", "151206.870000", "151207.330000", "151207.790000", "151208.250000", "151208.710000", "151209.170000", "151209.630000", "151210.090000", "151210.550000", "151211.010000", "151211.470000", "151211.930000", "151212.390000", "151212.850000", "151213.310000", "151213.770000", "151214.230000", "151214.690000", "151215.150000", "151215.610000", "151216.070000", "151216.530000", "151216.990000", "151217.450000", "151217.910000", "151218.370000", "151218.830000", "151219.290000", "151219.750000", "151220.210000", "151220.670000", "151221.130000", "151221.590000", "151222.050000", "151222.510000", "151222.970000", "151223.430000", "151223.890000", "151224.350000", "151224.810000", "151225.270000", "151225.730000", "151226.190000", "151226.650000", "151227.110000", "151227.570000", "151228.030000", "151228.490000", "151228.950000", "151229.410000", "151229.870000", "151230.330000", "151230.790000", "151231.250000", "151231.710000", "151232.170000", "151232.630000", "151233.090000", "151233.550000", "151234.010000", "151234.470000", "151234.930000", "151235.390000", "151235.850000", "151236.310000", "151236.770000", "151237.230000", "151237.690000", "151238.150000", "151238.610000", "151239.070000", "151239.530000", "151239.990000", "151240.450000", "151240.910000", "151241.370000", "151241.830000", "151242.290000", "151242.750000", "151243.210000", "151243.670000", "151244.130000", "151244.590000", "151245.050000", "151245.510000", "151245.970000", "151246.430000", "151246.890000", "151247.350000", "151247.810000", "151248.270000", "151248.730000", "151249.190000", "151249.650000", "151250.110000", "151250.570000", "151251.030000", "151251.490000", "151251.950000", "151252.410000", "151252.870000", "151253.330000", "151253.790000", "151254.250000", "151254.710000", "151255.170000", "151255.630000", "151256.090000", "151256.550000", "151257.010000", "151257.470000", "151257.930000", "151258.390000", "151258.850000", "151259.310000", "151259.770000", "151300.230000", "151300.690000", "151301.150000", "151301.610000", "151302.070000", "151302.530000", "151302.990000", "151303.450000", "151303.910000", "151304.370000", "151304.830000", "151305.290000", "151305.750000", "151306.210000", "151306.670000", "151307.130000", "151307.590000", "151308.050000", "151308.510000", "151308.970000", "151309.430000", "151309.890000", "151310.350000", "151310.810000", "151311.270000", "151311.730000", "151312.190000", "151312.650000", "151313.110000", "151313.570000", "151314.030000", "151314.490000", "151314.950000", "151315.410000", "151315.870000", "151316.330000", "151316.790000", "151317.250000", "151317.710000", "151318.170000", "151318.630000", "151319.090000", "151319.550000", "151320.010000", "151320.470000", "151320.930000", "151321.390000", "151321.850000", "151322.310000", "151322.770000", "151323.230000", "151323.690000", "151324.150000", "151324.610000", "151325.070000", "151325.530000", "151325.990000", "151326.450000", "151326.910000", "151327.370000", "151327.830000", "151328.290000", "151328.750000", "151329.210000", "151329.670000", "151330.130000", "151330.590000", "151331.050000", "151331.510000", "151331.970000", "151332.430000", "151332.890000", "151333.350000", "151333.810000", "151334.270000", "151334.730000", "151335.190000", "151335.650000", "151336.110000", "151336.570000", "151337.030000", "151337.490000", "151337.950000", "151338.410000", "151338.870000", "151339.330000", "151339.790000", "151340.250000", "151340.710000", "151341.170000", "151341.630000", "151342.090000", "151342.550000", "151343.010000", "151343.470000", "151343.930000", "151344.390000", "151344.850000", "151345.310000", "151345.770000", "151346.230000", "151346.690000", "151347.150000", "151347.610000", "151348.070000", "151348.530000", "151348.990000", "151349.450000", "151349.910000", "151350.370000", "151350.830000", "151351.290000", "151351.750000", "151352.210000", "151352.670000", "151353.130000", "151353.590000", "151354.050000", "151354.510000", "151354.970000", "151355.430000", "151355.890000", "151356.350000", "151356.810000", "151357.270000", "151357.730000", "151358.190000", "151358.650000", "151359.110000", "151359.570000", "151400.030000", "151400.490000", "151400.950000", "151401.410000", "151401.870000", "151402.330000", "151402.790000", "151403.250000", "151403.710000", "151404.170000", "151404.630000", "151405.090000", "151405.550000", "151406.010000", "151406.470000", "151406.930000", "151407.390000", "151407.850000", "151408.310000", "151408.770000", "151409.230000", "151409.690000", "151410.150000", "151410.610000", "151411.070000", "151411.530000", "151411.990000", "151412.450000", "151412.910000", "151413.370000", "151413.830000", "151414.290000", "151414.750000", "151415.210000", "151415.670000", "151416.130000", "151416.590000", "151417.050000", "151417.510000", "151417.970000", "151418.430000", "151418.890000", "151419.350000", "151419.810000", "151420.270000", "151420.730000", "151421.190000", "151421.650000", "151422.110000", "151422.570000", "151423.030000", "151423.490000", "151423.950000", "151424.410000", "151424.870000", "151425.330000", "151425.790000", "151426.250000", "151426.710000", "151427.170000", "151427.630000", "151428.090000", "151428.550000", "151429.010000", "151429.470000", "151429.930000", "151430.390000", "151430.850000", "151431.310000", "151431.770000", "151432.230000", "151432.690000", "151433.150000", "151433.610000", "151434.070000", "151434.530000", "151434.990000", "151435.450000", "151435.910000", "151436.370000", "151436.830000", "151437.290000", "151437.750000", "151438.210000", "151438.670000", "151439.130000", "151439.590000", "151440.050000", "151440.510000", "151440.970000", "151441.430000", "151441.890000", "151442.350000", "151442.810000", "151443.270000", "151443.730000", "151444.190000", "151444.650000", "151445.110000", "151445.570000", "151446.030000", "151446.490000", "151446.950000", "151447.410000", "151447.870000", "151448.330000", "151448.790000", "151449.250000", "151449.710000", "151450.170000", "151450.630000", "151451.090000", "151451.550000", "151452.010000", "151452.470000", "151452.930000", "151453.390000", "151453.850000", "151454.310000", "151454.770000", "151455.230000", "151455.690000", "151456.150000", "151456.610000", "151457.070000", "151457.530000", "151457.990000", "151458.450000", "151458.910000", "151459.370000", "151459.830000", "151500.290000", "151500.750000", "151501.210000", "151501.670000", "151502.130000", "151502.590000", "151503.050000", "151503.510000", "151503.970000", "151504.430000", "151504.890000", "151505.350000", "151505.810000", "151506.270000", "151506.730000", "151507.190000", "151507.650000", "151508.110000", "151508.570000", "151509.030000", "151509.490000", "151509.950000", "151510.410000", "151510.870000", "151511.330000", "151511.790000", "151512.250000", "151512.710000", "151513.170000", "151513.630000", "151514.090000", "151514.550000", "151515.010000", "151515.470000", "151515.930000", "151516.390000", "151516.850000", "151517.310000", "151517.770000", "151518.230000", "151518.690000", "151519.150000", "151519.610000", "151520.070000", "151520.530000", "151520.990000", "151521.450000", "151521.910000", "151522.370000", "151522.830000", "151523.290000", "151523.750000", "151524.210000", "151524.670000", "151525.130000", "151525.590000", "151526.050000", "151526.510000", "151526.970000", "151527.430000", "151527.890000", "151528.350000", "151528.810000", "151529.270000", "151529.730000", "151530.190000", "151530.650000", "151531.110000", "151531.570000", "151532.030000", "151532.490000", "151532.950000", "151533.410000", "151533.870000", "151534.330000", "151534.790000", "151535.250000", "151535.710000", "151536.170000", "151536.630000", "151537.090000", "151537.550000", "151538.010000", "151538.470000", "151538.930000", "151539.390000", "151539.850000", "151540.310000", "151540.770000", "151541.230000", "151541.690000", "151542.150000", "151542.610000", "151543.070000", "151543.530000", "151543.990000", "151544.450000", "151544.910000", "151545.370000", "151545.830000", "151546.290000", "151546.750000", "151547.210000", "151547.670000", "151548.130000", "151548.590000", "151549.050000", "151549.510000", "151549.970000", "151550.430000", "151550.890000", "151551.350000", "151551.810000", "151552.270000", "151552.730000", "151553.190000", "151553.650000", "151554.110000", "151554.570000", "151555.030000", "151555.490000", "151555.950000", "151556.410000", "151556.870000", "151557.330000", "151557.790000", "151558.250000", "151558.710000", "151559.170000", "151559.630000", "151600.090000", "151600.550000", "151601.010000", "151601.470000", "151601.930000", "151602.390000", "151602.850000", "151603.310000", "151603.770000", "151604.230000", "151604.690000", "151605.150000", "151605.610000", "151606.070000", "151606.530000", "151606.990000", "151607.450000", "151607.910000", "151608.370000", "151608.830000", "151609.290000", "151609.750000", "151610.210000", "151610.670000", "151611.130000", "151611.590000", "151612.050000", "151612.510000", "151612.970000", "151613.430000", "151613.890000", "151614.350000", "151614.810000", "151615.270000", "151615.730000", "151616.190000", "151616.650000", "151617.110000", "151617.570000", "151618.030000", "151618.490000", "151618.950000", "151619.410000", "151619.870000", "151620.330000", "151620.790000", "151621.250000", "151621.710000", "151622.170000", "151622.630000", "151623.090000", "151623.550000", "151624.010000", "151624.470000", "151624.930000", "151625.390000", "151625.850000", "151626.310000", "151626.770000", "151627.230000", "151627.690000"],
