{
  "AcquisitionMatrixPE": 82,
  "AcquisitionNumber": 1,
  "AcquisitionTime": "15:31:52.325000",
  "BandwidthPerPixelPhaseEncode": 24.888,
  "BaseResolution": 82,
  "BodyPartExamined": "BRAIN",
  "ConsistencyInfo": "N4_VE11C_LATEST_20160120",
  "ConversionSoftware": "dcm2niix",
  "ConversionSoftwareVersion": "v1.0.20201102",
  "DerivedVendorReportedEchoSpacing": 0.00049,
  "DeviceSerialNumber": "66112",
  "DwellTime": 2e-06,
  "EchoTime": 0.0272,
  "EchoTrainLength": 82,
  "EffectiveEchoSpacing": 0.00049,
  "FlipAngle": 44,
  "ImageComments": "Unaliased MB8/PE3",
  "ImageOrientationPatientDICOM": [0.99916, 0.037949, -0.0154846, -0.0392571, 0.994662, -0.0954243],
  "ImageType": [
    "ORIGINAL",
    "PRIMARY",
    "M",
    "MB",
    "ND",
    "NORM",
    "MOSAIC"
],
  "ImagingFrequency": 123.252,
  "InPlanePhaseEncodingDirectionDICOM": "COL",
  "InstitutionAddress": "Maynard 3,Hanover,NH,US,03755",
  "InstitutionName": "Dartmouth College - PBS",
  "InstitutionalDepartmentName": "Department",
  "MRAcquisitionType": "2D",
  "MagneticFieldStrength": 3,
  "Manufacturer": "Siemens",
  "ManufacturersModelName": "Prisma",
  "Modality": "MR",
  "MultibandAccelerationFactor": 8,
  "PartialFourier": 1,
  "PatientPosition": "HFS",
  "PercentPhaseFOV": 100,
  "PercentSampling": 100,
  "PhaseEncodingDirection": "j-",
  "PhaseEncodingSteps": 82,
  "PhaseResolution": 1,
  "PixelBandwidth": 3050,
  "ProcedureStepDescription": "Wager_Wager^1076_spacetop",
  "ProtocolName": "func_run-05_task-social_acq-ap-mb8",
  "PulseSequenceDetails": "%CustomerSeq%\\cmrr_mbep2d_bold",
  "ReceiveCoilActiveElements": "HEA;HEP",
  "ReceiveCoilName": "Head_32",
  "ReconMatrixPE": 82,
  "RepetitionTime": 0.46,
  "SAR": 0.100924,
  "ScanOptions": "FS",
  "ScanningSequence": "EP",
  "SequenceName": "epfid2d1_82",
  "SequenceVariant": "SK\\SS",
  "SeriesDescription": "func_run-05_task-social_acq-ap-mb8",
  "SeriesNumber": 20,
  "ShimSetting": [4130, -7791, -7244, 580, -57, -265, 47, 87],
  "SliceThickness": 2.7,
  "SliceTiming": [0, 0.2525, 0.065, 0.315, 0.1275, 0.3775, 0.19, 0, 0.2525, 0.065, 0.315, 0.1275, 0.3775, 0.19, 0, 0.2525, 0.065, 0.315, 0.1275, 0.3775, 0.19, 0, 0.2525, 0.065, 0.315, 0.1275, 0.3775, 0.19, 0, 0.2525, 0.065, 0.315, 0.1275, 0.3775, 0.19, 0, 0.2525, 0.065, 0.315, 0.1275, 0.3775, 0.19, 0, 0.2525, 0.065, 0.315, 0.1275, 0.3775, 0.19, 0, 0.2525, 0.065, 0.315, 0.1275, 0.3775, 0.19],
  "SoftwareVersions": "syngo MR E11",
  "SpacingBetweenSlices": 2.7,
  "StationName": "AWP66112",
  "TaskName": "social",
  "TotalReadoutTime": 0.03969,
  "TxRefAmp": 251.699,
  "WipMemBlock": "f46d9ab2-cd2d-4de8-b723-98725c9fb859||Sequence: R016 ve11c/master r/e634e98; Dec 19 2017 11:00:25 by eja",
  "dcmmeta_affine": [
    [-2.6806724071502686, -0.10532385110855103, -0.03180789202451706, 116.67813873291016],
    [-0.10181448608636856, 2.6686062812805176, -0.259070485830307, -79.74855041503906],
    [-0.04154408723115921, 0.2560165226459503, 2.6873538494110107, -81.39044189453125],
    [0.0, 0.0, 0.0, 1.0]
],
  "dcmmeta_reorient_transform": [
    [0.0, -1.0, 0.0, 81.0],
    [1.0, 0.0, 0.0, 0.0],
    [0.0, 0.0, 1.0, 0.0],
    [0.0, 0.0, 0.0, 1.0]
],
  "dcmmeta_shape": [82, 82, 56, 872],
  "dcmmeta_slice_dim": 2,
  "dcmmeta_version": 0.6,
  "global": {
    "const": {
      "AccessionNumber": "A003793",
      "AcquisitionMatrix": [82, 0, 0, 82],
      "AngioFlag": "N",
      "BitsAllocated": 16,
      "BitsStored": 16,
      "BodyPartExamined": "BRAIN",
      "Columns": 656,
      "EchoNumbers": 1,
      "EchoTime": 27.2,
      "EchoTrainLength": 82,
      "FlipAngle": 44.0,
      "HighBit": 15,
      "ImageOrientationPatient": [0.99915969565917, 0.03794903570883, -0.0154846136228, -0.0392570717698, 0.99466229358198, -0.0954243367402],
      "ImagePositionPatient": [-847.27194754178, -931.5192938549, 24.746790267487],
      "ImageType": [
        "ORIGINAL",
        "PRIMARY",
        "M",
        "MB",
        "ND",
        "NORM",
        "MOSAIC"
],
      "ImagedNucleus": "1H",
      "ImagingFrequency": 123.25221,
      "InPlanePhaseEncodingDirection": "COL",
      "MRAcquisitionType": "2D",
      "MagneticFieldStrength": 3.0,
      "Manufacturer": "SIEMENS",
      "ManufacturerModelName": "Prisma",
      "Modality": "MR",
      "NumberOfAverages": 1.0,
      "NumberOfPhaseEncodingSteps": 82,
      "PercentPhaseFieldOfView": 100.0,
      "PercentSampling": 100.0,
      "PerformedProcedureStepStartTime": "143343.482000",
      "PhotometricInterpretation": "MONOCHROME2",
      "PixelBandwidth": 3050.0,
      "PixelRepresentation": 0,
      "PixelSpacing": [2.6829268932343, 2.6829268932343],
      "ProtocolName": "func_run-05_task-social_acq-ap-mb8",
      "RepetitionTime": 460.0,
      "Rows": 656,
      "SAR": 0.10092405592948,
      "SamplesPerPixel": 1,
      "ScanOptions": "FS",
      "ScanningSequence": "EP",
      "SequenceName": "epfid2d1_82",
      "SequenceVariant": [
        "SK",
        "SS"
],
      "SeriesDescription": "func_run-05_task-social_acq-ap-mb8",
      "SeriesNumber": 20,
      "SeriesTime": "153206.106000",
      "SliceLocation": -74.731743054121,
      "SliceThickness": 2.7000000476837,
      "SmallestImagePixelValue": 0,
      "SoftwareVersions": "syngo MR E11",
      "SpacingBetweenSlices": 2.7000000746012,
      "SpecificCharacterSet": "ISO_IR 100",
      "StudyID": "1",
      "StudyTime": "143343.428000",
      "TransmitCoilName": "Body",
      "VariableFlipAngleFlag": "N",
      "WindowCenterWidthExplanation": "Algo1",
      "dBdt": 0.0},
    "slices": {}
  },
  "time": {
    "samples": {
      "AcquisitionNumber": [1, 2, 3, 4, 5, 6, 7, 8, 9, 10, 11, 12, 13, 14, 15, 16, 17, 18, 19, 20, 21, 22, 23, 24, 25, 26, 27, 28, 29, 30, 31, 32, 33, 34, 35, 36, 37, 38, 39, 40, 41, 42, 43, 44, 45, 46, 47, 48, 49, 50, 51, 52, 53, 54, 55, 56, 57, 58, 59, 60, 61, 62, 63, 64, 65, 66, 67, 68, 69, 70, 71, 72, 73, 74, 75, 76, 77, 78, 79, 80, 81, 82, 83, 84, 85, 86, 87, 88, 89, 90, 91, 92, 93, 94, 95, 96, 97, 98, 99, 100, 101, 102, 103, 104, 105, 106, 107, 108, 109, 110, 111, 112, 113, 114, 115, 116, 117, 118, 119, 120, 121, 122, 123, 124, 125, 126, 127, 128, 129, 130, 131, 132, 133, 134, 135, 136, 137, 138, 139, 140, 141, 142, 143, 144, 145, 146, 147, 148, 149, 150, 151, 152, 153, 154, 155, 156, 157, 158, 159, 160, 161, 162, 163, 164, 165, 166, 167, 168, 169, 170, 171, 172, 173, 174, 175, 176, 177, 178, 179, 180, 181, 182, 183, 184, 185, 186, 187, 188, 189, 190, 191, 192, 193, 194, 195, 196, 197, 198, 199, 200, 201, 202, 203, 204, 205, 206, 207, 208, 209, 210, 211, 212, 213, 214, 215, 216, 217, 218, 219, 220, 221, 222, 223, 224, 225, 226, 227, 228, 229, 230, 231, 232, 233, 234, 235, 236, 237, 238, 239, 240, 241, 242, 243, 244, 245, 246, 247, 248, 249, 250, 251, 252, 253, 254, 255, 256, 257, 258, 259, 260, 261, 262, 263, 264, 265, 266, 267, 268, 269, 270, 271, 272, 273, 274, 275, 276, 277, 278, 279, 280, 281, 282, 283, 284, 285, 286, 287, 288, 289, 290, 291, 292, 293, 294, 295, 296, 297, 298, 299, 300, 301, 302, 303, 304, 305, 306, 307, 308, 309, 310, 311, 312, 313, 314, 315, 316, 317, 318, 319, 320, 321, 322, 323, 324, 325, 326, 327, 328, 329, 330, 331, 332, 333, 334, 335, 336, 337, 338, 339, 340, 341, 342, 343, 344, 345, 346, 347, 348, 349, 350, 351, 352, 353, 354, 355, 356, 357, 358, 359, 360, 361, 362, 363, 364, 365, 366, 367, 368, 369, 370, 371, 372, 373, 374, 375, 376, 377, 378, 379, 380, 381, 382, 383, 384, 385, 386, 387, 388, 389, 390, 391, 392, 393, 394, 395, 396, 397, 398, 399, 400, 401, 402, 403, 404, 405, 406, 407, 408, 409, 410, 411, 412, 413, 414, 415, 416, 417, 418, 419, 420, 421, 422, 423, 424, 425, 426, 427, 428, 429, 430, 431, 432, 433, 434, 435, 436, 437, 438, 439, 440, 441, 442, 443, 444, 445, 446, 447, 448, 449, 450, 451, 452, 453, 454, 455, 456, 457, 458, 459, 460, 461, 462, 463, 464, 465, 466, 467, 468, 469, 470, 471, 472, 473, 474, 475, 476, 477, 478, 479, 480, 481, 482, 483, 484, 485, 486, 487, 488, 489, 490, 491, 492, 493, 494, 495, 496, 497, 498, 499, 500, 501, 502, 503, 504, 505, 506, 507, 508, 509, 510, 511, 512, 513, 514, 515, 516, 517, 518, 519, 520, 521, 522, 523, 524, 525, 526, 527, 528, 529, 530, 531, 532, 533, 534, 535, 536, 537, 538, 539, 540, 541, 542, 543, 544, 545, 546, 547, 548, 549, 550, 551, 552, 553, 554, 555, 556, 557, 558, 559, 560, 561, 562, 563, 564, 565, 566, 567, 568, 569, 570, 571, 572, 573, 574, 575, 576, 577, 578, 579, 580, 581, 582, 583, 584, 585, 586, 587, 588, 589, 590, 591, 592, 593, 594, 595, 596, 597, 598, 599, 600, 601, 602, 603, 604, 605, 606, 607, 608, 609, 610, 611, 612, 613, 614, 615, 616, 617, 618, 619, 620, 621, 622, 623, 624, 625, 626, 627, 628, 629, 630, 631, 632, 633, 634, 635, 636, 637, 638, 639, 640, 641, 642, 643, 644, 645, 646, 647, 648, 649, 650, 651, 652, 653, 654, 655, 656, 657, 658, 659, 660, 661, 662, 663, 664, 665, 666, 667, 668, 669, 670, 671, 672, 673, 674, 675, 676, 677, 678, 679, 680, 681, 682, 683, 684, 685, 686, 687, 688, 689, 690, 691, 692, 693, 694, 695, 696, 697, 698, 699, 700, 701, 702, 703, 704, 705, 706, 707, 708, 709, 710, 711, 712, 713, 714, 715, 716, 717, 718, 719, 720, 721, 722, 723, 724, 725, 726, 727, 728, 729, 730, 731, 732, 733, 734, 735, 736, 737, 738, 739, 740, 741, 742, 743, 744, 745, 746, 747, 748, 749, 750, 751, 752, 753, 754, 755, 756, 757, 758, 759, 760, 761, 762, 763, 764, 765, 766, 767, 768, 769, 770, 771, 772, 773, 774, 775, 776, 777, 778, 779, 780, 781, 782, 783, 784, 785, 786, 787, 788, 789, 790, 791, 792, 793, 794, 795, 796, 797, 798, 799, 800, 801, 802, 803, 804, 805, 806, 807, 808, 809, 810, 811, 812, 813, 814, 815, 816, 817, 818, 819, 820, 821, 822, 823, 824, 825, 826, 827, 828, 829, 830, 831, 832, 833, 834, 835, 836, 837, 838, 839, 840, 841, 842, 843, 844, 845, 846, 847, 848, 849, 850, 851, 852, 853, 854, 855, 856, 857, 858, 859, 860, 861, 862, 863, 864, 865, 866, 867, 868, 869, 870, 871, 872],
      "AcquisitionTime": ["153152.325000", "153152.785000", "153153.245000", "153153.705000", "153154.165000", "153154.625000", "153155.085000", "153155.545000", "153156.005000", "153156.465000", "153156.925000", "153157.385000", "153157.845000", "153158.305000", "153158.765000", "153159.225000", "153159.685000", "153200.145000", "153200.605000", "153201.065000", "153201.525000", "153201.985000", "153202.445000", "153202.905000", "153203.365000", "153203.825000", "153204.285000", "153204.745000", "153205.205000", "153205.665000", "153206.125000", "153206.585000", "153207.045000", "153207.505000", "153207.965000", "153208.425000", "153208.885000", "153209.345000", "153209.805000", "153210.265000", "153210.725000", "153211.185000", "153211.645000", "153212.105000", "153212.565000", "153213.025000", "153213.485000", "153213.945000", "153214.405000", "153214.865000", "153215.325000", "153215.785000", "153216.245000", "153216.705000", "153217.165000", "153217.625000", "153218.085000", "153218.545000", "153219.005000", "153219.465000", "153219.925000", "153220.385000", "153220.845000", "153221.305000", "153221.765000", "153222.225000", "153222.685000", "153223.145000", "153223.605000", "153224.065000", "153224.525000", "153224.985000", "153225.445000", "153225.905000", "153226.365000", "153226.825000", "153227.285000", "153227.745000", "153228.205000", "153228.665000", "153229.125000", "153229.585000", "153230.045000", "153230.505000", "153230.965000", "153231.425000", "153231.885000", "153232.345000", "153232.805000", "153233.265000", "153233.725000", "153234.185000", "153234.645000", "153235.105000", "153235.565000", "153236.025000", "153236.485000", "153236.945000", "153237.405000", "153237.865000", "153238.325000", "153238.785000", "153239.245000", "153239.705000", "153240.165000", "153240.625000", "153241.085000", "153241.545000", "153242.005000", "153242.465000", "153242.925000", "153243.385000", "153243.845000", "153244.305000", "153244.765000", "153245.225000", "153245.685000", "153246.145000", "153246.605000", "153247.065000", "153247.525000", "153247.985000", "153248.445000", "153248.905000", "153249.365000", "153249.825000", "153250.285000", "153250.745000", "153251.205000", "153251.665000", "153252.125000", "153252.585000", "153253.045000", "153253.505000", "153253.965000", "153254.425000", "153254.885000", "153255.345000", "153255.805000", "153256.265000", "153256.725000", "153257.185000", "153257.645000", "153258.105000", "153258.565000", "153259.025000", "153259.485000", "153259.945000", "153300.405000", "153300.865000", "153301.325000", "153301.785000", "153302.245000", "153302.705000", "153303.165000", "153303.625000", "153304.085000", "153304.545000", "153305.005000", "153305.465000", "153305.925000", "153306.385000", "153306.845000", "153307.305000", "153307.765000", "153308.225000", "153308.685000", "153309.145000", "153309.605000", "153310.065000", "153310.525000", "153310.985000", "153311.445000", "153311.905000", "153312.365000", "153312.825000", "153313.285000", "153313.745000", "153314.205000", "153314.665000", "153315.125000", "153315.585000", "153316.045000", "153316.505000", "153316.965000", "153317.425000", "153317.885000", "153318.345000", "153318.805000", "153319.265000", "153319.725000", "153320.185000", "153320.645000", "153321.105000", "153321.565000", "153322.025000", "153322.485000", "153322.945000", "153323.405000", "153323.865000", "153324.325000", "153324.785000", "153325.245000", "153325.705000", "153326.165000", "153326.625000", "153327.085000", "153327.545000", "153328.005000", "153328.465000", "153328.925000", "153329.385000", "153329.845000", "153330.305000", "153330.765000", "153331.225000", "153331.685000", "153332.145000", "153332.605000", "153333.065000", "153333.525000", "153333.985000", "153334.445000", "153334.905000", "153335.365000", "153335.825000", "153336.285000", "153336.745000", "153337.205000", "153337.665000", "153338.125000", "153338.585000", "153339.045000", "153339.505000", "153339.965000", "153340.425000", "153340.885000", "153341.345000", "153341.805000", "153342.265000", "153342.725000", "153343.185000", "153343.645000", "153344.105000", "153344.565000", "153345.025000", "153345.485000", "153345.945000", "153346.405000", "153346.865000", "153347.325000", "153347.785000", "153348.245000", "153348.705000", "153349.165000", "153349.625000", "153350.085000", "153350.545000", "153351.005000", "153351.465000", "153351.925000", "153352.385000", "153352.845000", "153353.305000", "153353.765000", "153354.225000", "153354.685000", "153355.145000", "153355.605000", "153356.065000", "153356.525000", "153356.985000", "153357.445000", "153357.905000", "153358.365000", "153358.825000", "153359.285000", "153359.745000", "153400.205000", "153400.665000", "153401.125000", "153401.585000", "153402.045000", "153402.505000", "153402.965000", "153403.425000", "153403.885000", "153404.345000", "153404.805000", "153405.265000", "153405.725000", "153406.185000", "153406.645000", "153407.105000", "153407.565000", "153408.025000", "153408.485000", "153408.945000", "153409.405000", "153409.865000", "153410.325000", "153410.785000", "153411.245000", "153411.705000", "153412.165000", "153412.625000", "153413.085000", "153413.545000", "153414.005000", "153414.465000", "153414.925000", "153415.385000", "153415.845000", "153416.305000", "153416.765000", "153417.225000", "153417.685000", "153418.145000", "153418.605000", "153419.065000", "153419.525000", "153419.985000", "153420.445000", "153420.905000", "153421.365000", "153421.825000", "153422.285000", "153422.745000", "153423.205000", "153423.665000", "153424.125000", "153424.585000", "153425.045000", "153425.505000", "153425.965000", "153426.425000", "153426.885000", "153427.345000", "153427.805000", "153428.265000", "153428.725000", "153429.185000", "153429.645000", "153430.105000", "153430.565000", "153431.025000", "153431.485000", "153431.945000", "153432.405000", "153432.865000", "153433.325000", "153433.785000", "153434.245000", "153434.705000", "153435.165000", "153435.625000", "153436.085000", "153436.545000", "153437.005000", "153437.465000", "153437.925000", "153438.385000", "153438.845000", "153439.305000", "153439.765000", "153440.225000", "153440.685000", "153441.145000", "153441.605000", "153442.065000", "153442.525000", "153442.985000", "153443.445000", "153443.905000", "153444.365000", "153444.825000", "153445.285000", "153445.745000", "153446.205000", "153446.665000", "153447.125000", "153447.585000", "153448.045000", "153448.505000", "153448.965000", "153449.425000", "153449.885000", "153450.345000", "153450.805000", "153451.265000", "153451.725000", "153452.185000", "153452.645000", "153453.105000", "153453.565000", "153454.025000", "153454.485000", "153454.945000", "153455.405000", "153455.865000", "153456.325000", "153456.785000", "153457.245000", "153457.705000", "153458.165000", "153458.625000", "153459.085000", "153459.545000", "153500.005000", "153500.465000", "153500.925000", "153501.385000", "153501.845000", "153502.305000", "153502.765000", "153503.225000", "153503.685000", "153504.145000", "153504.605000", "153505.065000", "153505.525000", "153505.985000", "153506.445000", "153506.905000", "153507.365000", "153507.825000", "153508.285000", "153508.745000", "153509.205000", "153509.665000", "153510.125000", "153510.585000", "153511.045000", "153511.505000", "153511.965000", "153512.425000", "153512.885000", "153513.345000", "153513.805000", "153514.265000", "153514.725000", "153515.185000", "153515.645000", "153516.105000", "153516.565000", "153517.025000", "153517.485000", "153517.945000", "153518.405000", "153518.865000", "153519.325000", "153519.785000", "153520.245000", "153520.705000", "153521.165000", "153521.625000", "153522.085000", "153522.545000", "153523.005000", "153523.465000", "153523.925000", "153524.385000", "153524.845000", "153525.305000", "153525.765000", "153526.225000", "153526.685000", "153527.145000", "153527.605000", "153528.065000", "153528.525000", "153528.985000", "153529.445000", "153529.905000", "153530.365000", "153530.825000", "153531.285000", "153531.745000", "153532.205000", "153532.665000", "153533.125000", "153533.585000", "153534.045000", "153534.505000", "153534.965000", "153535.425000", "153535.885000", "153536.345000", "153536.805000", "153537.265000", "153537.725000", "153538.185000", "153538.645000", "153539.105000", "153539.565000", "153540.025000", "153540.485000", "153540.945000", "153541.405000", "153541.865000", "153542.325000", "153542.785000", "153543.245000", "153543.705000", "153544.165000", "153544.625000", "153545.085000", "153545.545000", "153546.005000", "153546.465000", "153546.925000", "153547.385000", "153547.845000", "153548.305000", "153548.765000", "153549.225000", "153549.685000", "153550.145000", "153550.605000", "153551.065000", "153551.525000", "153551.985000", "153552.445000", "153552.905000", "153553.365000", "153553.825000", "153554.285000", "153554.745000", "153555.205000", "153555.665000", "153556.125000", "153556.585000", "153557.045000", "153557.505000", "153557.965000", "153558.425000", "153558.885000", "153559.345000", "153559.805000", "153600.265000", "153600.725000", "153601.185000", "153601.645000", "153602.105000", "153602.565000", "153603.025000", "153603.485000", "153603.945000", "153604.405000", "153604.865000", "153605.325000", "153605.785000", "153606.245000", "153606.705000", "153607.165000", "153607.625000", "153608.085000", "153608.545000", "153609.005000", "153609.465000", "153609.925000", "153610.385000", "153610.845000", "153611.305000", "153611.765000", "153612.225000", "153612.685000", "153613.145000", "153613.605000", "153614.065000", "153614.525000", "153614.985000", "153615.445000", "153615.905000", "153616.365000", "153616.825000", "153617.285000", "153617.745000", "153618.205000", "153618.665000", "153619.125000", "153619.585000", "153620.045000", "153620.505000", "153620.965000", "153621.425000", "153621.885000", "153622.345000", "153622.805000", "153623.265000", "153623.725000", "153624.185000", "153624.645000", "153625.105000", "153625.565000", "153626.025000", "153626.485000", "153626.945000", "153627.405000", "153627.865000", "153628.325000", "153628.785000", "153629.245000", "153629.705000", "153630.165000", "153630.625000", "153631.085000", "153631.545000", "153632.005000", "153632.465000", "153632.925000", "153633.385000", "153633.845000", "153634.305000", "153634.765000", "153635.225000", "153635.685000", "153636.145000", "153636.605000", "153637.065000", "153637.525000", "153637.985000", "153638.445000", "153638.905000", "153639.365000", "153639.825000", "153640.285000", "153640.745000", "153641.205000", "153641.665000", "153642.125000", "153642.585000", "153643.045000", "153643.505000", "153643.965000", "153644.425000", "153644.885000", "153645.345000", "153645.805000", "153646.265000", "153646.725000", "153647.185000", "153647.645000", "153648.105000", "153648.565000", "153649.025000", "153649.485000", "153649.945000", "153650.405000", "153650.865000", "153651.325000", "153651.785000", "153652.245000", "153652.705000", "153653.165000", "153653.625000", "153654.085000", "153654.545000", "153655.005000", "153655.465000", "153655.925000", "153656.385000", "153656.845000", "153657.305000", "153657.765000", "153658.225000", "153658.685000", "153659.145000", "153659.605000", "153700.065000", "153700.525000", "153700.985000", "153701.445000", "153701.905000", "153702.365000", "153702.825000", "153703.285000", "153703.745000", "153704.205000", "153704.665000", "153705.125000", "153705.585000", "153706.045000", "153706.505000", "153706.965000", "153707.425000", "153707.885000", "153708.345000", "153708.805000", "153709.265000", "153709.725000", "153710.185000", "153710.645000", "153711.105000", "153711.565000", "153712.025000", "153712.485000", "153712.945000", "153713.405000", "153713.865000", "153714.325000", "153714.785000", "153715.245000", "153715.705000", "153716.165000", "153716.625000", "153717.085000", "153717.545000", "153718.005000", "153718.465000", "153718.925000", "153719.385000", "153719.845000", "153720.305000", "153720.765000", "153721.225000", "153721.685000", "153722.145000", "153722.605000", "153723.065000", "153723.525000", "153723.985000", "153724.445000", "153724.905000", "153725.365000", "153725.825000", "153726.285000", "153726.745000", "153727.205000", "153727.665000", "153728.125000", "153728.585000", "153729.045000", "153729.505000", "153729.965000", "153730.425000", "153730.885000", "153731.345000", "153731.805000", "153732.265000", "153732.725000", "153733.185000", "153733.645000", "153734.105000", "153734.565000", "153735.025000", "153735.485000", "153735.945000", "153736.405000", "153736.865000", "153737.325000", "153737.785000", "153738.245000", "153738.705000", "153739.165000", "153739.625000", "153740.085000", "153740.545000", "153741.005000", "153741.465000", "153741.925000", "153742.385000", "153742.845000", "153743.305000", "153743.765000", "153744.225000", "153744.685000", "153745.145000", "153745.605000", "153746.065000", "153746.525000", "153746.985000", "153747.445000", "153747.905000", "153748.365000", "153748.825000", "153749.285000", "153749.745000", "153750.205000", "153750.665000", "153751.125000", "153751.585000", "153752.045000", "153752.505000", "153752.965000", "153753.425000", "153753.885000", "153754.345000", "153754.805000", "153755.265000", "153755.725000", "153756.185000", "153756.645000", "153757.105000", "153757.565000", "153758.025000", "153758.485000", "153758.945000", "153759.405000", "153759.865000", "153800.325000", "153800.785000", "153801.245000", "153801.705000", "153802.165000", "153802.625000", "153803.085000", "153803.545000", "153804.005000", "153804.465000", "153804.925000", "153805.385000", "153805.845000", "153806.305000", "153806.765000", "153807.225000", "153807.685000", "153808.145000", "153808.605000", "153809.065000", "153809.525000", "153809.985000", "153810.445000", "153810.905000", "153811.365000", "153811.825000", "153812.285000", "153812.745000", "153813.205000", "153813.665000", "153814.125000", "153814.585000", "153815.045000", "153815.505000", "153815.965000", "153816.425000", "153816.885000", "153817.345000", "153817.805000", "153818.265000", "153818.725000", "153819.185000", "153819.645000", "153820.105000", "153820.565000", "153821.025000", "153821.485000", "153821.945000", "153822.405000", "153822.865000", "153823.325000", "153823.785000", "153824.245000", "153824.705000", "153825.165000", "153825.625000", "153826.085000", "153826.545000", "153827.005000", "153827.465000", "153827.925000", "153828.385000", "153828.845000", "153829.305000", "153829.765000", "153830.225000", "153830.685000", "153831.145000", "153831.605000", "153832.065000", "153832.525000", "153832.985000"],
