{
  "AcquisitionMatrixPE": 82,
  "AcquisitionNumber": 1,
  "AcquisitionTime": "15:24:53.217500",
  "BandwidthPerPixelPhaseEncode": 24.888,
  "BaseResolution": 82,
  "BodyPartExamined": "BRAIN",
  "ConsistencyInfo": "N4_VE11C_LATEST_20160120",
  "ConversionSoftware": "dcm2niix",
  "ConversionSoftwareVersion": "v1.0.20201102",
  "DerivedVendorReportedEchoSpacing": 0.00049,
  "DeviceSerialNumber": "66112",
  "DwellTime": 2e-06,
  "EchoTime": 0.0272,
  "EchoTrainLength": 82,
  "EffectiveEchoSpacing": 0.00049,
  "FlipAngle": 44,
  "ImageComments": "Unaliased MB8/PE3",
  "ImageOrientationPatientDICOM": [0.99916, 0.037949, -0.0154846, -0.0392571, 0.994662, -0.0954243],
  "ImageType": [
    "ORIGINAL",
    "PRIMARY",
    "M",
    "MB",
    "ND",
    "NORM",
    "MOSAIC"
],
  "ImagingFrequency": 123.252,
  "InPlanePhaseEncodingDirectionDICOM": "COL",
  "InstitutionAddress": "Maynard 3,Hanover,NH,US,03755",
  "InstitutionName": "Dartmouth College - PBS",
  "InstitutionalDepartmentName": "Department",
  "MRAcquisitionType": "2D",
  "MagneticFieldStrength": 3,
  "Manufacturer": "Siemens",
  "ManufacturersModelName": "Prisma",
  "Modality": "MR",
  "MultibandAccelerationFactor": 8,
  "PartialFourier": 1,
  "PatientPosition": "HFS",
  "PercentPhaseFOV": 100,
  "PercentSampling": 100,
  "PhaseEncodingDirection": "j-",
  "PhaseEncodingSteps": 82,
  "PhaseResolution": 1,
  "PixelBandwidth": 3050,
  "ProcedureStepDescription": "Wager_Wager^1076_spacetop",
  "ProtocolName": "func_run-04_task-social_acq-ap-mb8",
  "PulseSequenceDetails": "%CustomerSeq%\\cmrr_mbep2d_bold",
  "ReceiveCoilActiveElements": "HEA;HEP",
  "ReceiveCoilName": "Head_32",
  "ReconMatrixPE": 82,
  "RepetitionTime": 0.46,
  "SAR": 0.100924,
  "ScanOptions": "FS",
  "ScanningSequence": "EP",
  "SequenceName": "epfid2d1_82",
  "SequenceVariant": "SK\\SS",
  "SeriesDescription": "func_run-04_task-social_acq-ap-mb8",
  "SeriesNumber": 18,
  "ShimSetting": [4130, -7791, -7244, 580, -57, -265, 47, 87],
  "SliceThickness": 2.7,
  "SliceTiming": [0, 0.2525, 0.0625, 0.315, 0.1275, 0.3775, 0.19, 0, 0.2525, 0.0625, 0.315, 0.1275, 0.3775, 0.19, 0, 0.2525, 0.0625, 0.315, 0.1275, 0.3775, 0.19, 0, 0.2525, 0.0625, 0.315, 0.1275, 0.3775, 0.19, 0, 0.2525, 0.0625, 0.315, 0.1275, 0.3775, 0.19, 0, 0.2525, 0.0625, 0.315, 0.1275, 0.3775, 0.19, 0, 0.2525, 0.0625, 0.315, 0.1275, 0.3775, 0.19, 0, 0.2525, 0.0625, 0.315, 0.1275, 0.3775, 0.19],
  "SoftwareVersions": "syngo MR E11",
  "SpacingBetweenSlices": 2.7,
  "StationName": "AWP66112",
  "TaskName": "social",
  "TotalReadoutTime": 0.03969,
  "TxRefAmp": 251.699,
  "WipMemBlock": "d59f0540-ad0a-401d-9500-9346934fee4d||Sequence: R016 ve11c/master r/e634e98; Dec 19 2017 11:00:25 by eja",
  "dcmmeta_affine": [
    [-2.6806724071502686, -0.10532385110855103, -0.03180789202451706, 116.67813873291016],
    [-0.10181448608636856, 2.6686062812805176, -0.259070485830307, -79.74855041503906],
    [-0.04154408723115921, 0.2560165226459503, 2.6873538494110107, -81.39044189453125],
    [0.0, 0.0, 0.0, 1.0]
],
  "dcmmeta_reorient_transform": [
    [0.0, -1.0, 0.0, 81.0],
    [1.0, 0.0, 0.0, 0.0],
    [0.0, 0.0, 1.0, 0.0],
    [0.0, 0.0, 0.0, 1.0]
],
  "dcmmeta_shape": [82, 82, 56, 872],
  "dcmmeta_slice_dim": 2,
  "dcmmeta_version": 0.6,
  "global": {
    "const": {
      "AccessionNumber": "A003793",
      "AcquisitionMatrix": [82, 0, 0, 82],
      "AngioFlag": "N",
      "BitsAllocated": 16,
      "BitsStored": 16,
      "BodyPartExamined": "BRAIN",
      "Columns": 656,
      "EchoNumbers": 1,
      "EchoTime": 27.2,
      "EchoTrainLength": 82,
      "FlipAngle": 44.0,
      "HighBit": 15,
      "ImageOrientationPatient": [0.99915969565917, 0.03794903570883, -0.0154846136228, -0.0392570717698, 0.99466229358198, -0.0954243367402],
      "ImagePositionPatient": [-847.27194754178, -931.5192938549, 24.746790267487],
      "ImageType": [
        "ORIGINAL",
        "PRIMARY",
        "M",
        "MB",
        "ND",
        "NORM",
        "MOSAIC"
],
      "ImagedNucleus": "1H",
      "ImagingFrequency": 123.252208,
      "InPlanePhaseEncodingDirection": "COL",
      "MRAcquisitionType": "2D",
      "MagneticFieldStrength": 3.0,
      "Manufacturer": "SIEMENS",
      "ManufacturerModelName": "Prisma",
      "Modality": "MR",
      "NumberOfAverages": 1.0,
      "NumberOfPhaseEncodingSteps": 82,
      "PercentPhaseFieldOfView": 100.0,
      "PercentSampling": 100.0,
      "PerformedProcedureStepStartTime": "143343.482000",
      "PhotometricInterpretation": "MONOCHROME2",
      "PixelBandwidth": 3050.0,
      "PixelRepresentation": 0,
      "PixelSpacing": [2.6829268932343, 2.6829268932343],
      "ProtocolName": "func_run-04_task-social_acq-ap-mb8",
      "RepetitionTime": 460.0,
      "Rows": 656,
      "SAR": 0.10092405592948,
      "SamplesPerPixel": 1,
      "ScanOptions": "FS",
      "ScanningSequence": "EP",
      "SequenceName": "epfid2d1_82",
      "SequenceVariant": [
        "SK",
        "SS"
],
      "SeriesDescription": "func_run-04_task-social_acq-ap-mb8",
      "SeriesNumber": 18,
      "SeriesTime": "152506.202000",
      "SliceLocation": -74.731743054121,
      "SliceThickness": 2.7000000476837,
      "SmallestImagePixelValue": 0,
      "SoftwareVersions": "syngo MR E11",
      "SpacingBetweenSlices": 2.7000000746012,
      "SpecificCharacterSet": "ISO_IR 100",
      "StudyID": "1",
      "StudyTime": "143343.428000",
      "TransmitCoilName": "Body",
      "VariableFlipAngleFlag": "N",
      "WindowCenterWidthExplanation": "Algo1",
      "dBdt": 0.0},
    "slices": {}
  },
  "time": {
    "samples": {
      "AcquisitionNumber": [1, 2, 3, 4, 5, 6, 7, 8, 9, 10, 11, 12, 13, 14, 15, 16, 17, 18, 19, 20, 21, 22, 23, 24, 25, 26, 27, 28, 29, 30, 31, 32, 33, 34, 35, 36, 37, 38, 39, 40, 41, 42, 43, 44, 45, 46, 47, 48, 49, 50, 51, 52, 53, 54, 55, 56, 57, 58, 59, 60, 61, 62, 63, 64, 65, 66, 67, 68, 69, 70, 71, 72, 73, 74, 75, 76, 77, 78, 79, 80, 81, 82, 83, 84, 85, 86, 87, 88, 89, 90, 91, 92, 93, 94, 95, 96, 97, 98, 99, 100, 101, 102, 103, 104, 105, 106, 107, 108, 109, 110, 111, 112, 113, 114, 115, 116, 117, 118, 119, 120, 121, 122, 123, 124, 125, 126, 127, 128, 129, 130, 131, 132, 133, 134, 135, 136, 137, 138, 139, 140, 141, 142, 143, 144, 145, 146, 147, 148, 149, 150, 151, 152, 153, 154, 155, 156, 157, 158, 159, 160, 161, 162, 163, 164, 165, 166, 167, 168, 169, 170, 171, 172, 173, 174, 175, 176, 177, 178, 179, 180, 181, 182, 183, 184, 185, 186, 187, 188, 189, 190, 191, 192, 193, 194, 195, 196, 197, 198, 199, 200, 201, 202, 203, 204, 205, 206, 207, 208, 209, 210, 211, 212, 213, 214, 215, 216, 217, 218, 219, 220, 221, 222, 223, 224, 225, 226, 227, 228, 229, 230, 231, 232, 233, 234, 235, 236, 237, 238, 239, 240, 241, 242, 243, 244, 245, 246, 247, 248, 249, 250, 251, 252, 253, 254, 255, 256, 257, 258, 259, 260, 261, 262, 263, 264, 265, 266, 267, 268, 269, 270, 271, 272, 273, 274, 275, 276, 277, 278, 279, 280, 281, 282, 283, 284, 285, 286, 287, 288, 289, 290, 291, 292, 293, 294, 295, 296, 297, 298, 299, 300, 301, 302, 303, 304, 305, 306, 307, 308, 309, 310, 311, 312, 313, 314, 315, 316, 317, 318, 319, 320, 321, 322, 323, 324, 325, 326, 327, 328, 329, 330, 331, 332, 333, 334, 335, 336, 337, 338, 339, 340, 341, 342, 343, 344, 345, 346, 347, 348, 349, 350, 351, 352, 353, 354, 355, 356, 357, 358, 359, 360, 361, 362, 363, 364, 365, 366, 367, 368, 369, 370, 371, 372, 373, 374, 375, 376, 377, 378, 379, 380, 381, 382, 383, 384, 385, 386, 387, 388, 389, 390, 391, 392, 393, 394, 395, 396, 397, 398, 399, 400, 401, 402, 403, 404, 405, 406, 407, 408, 409, 410, 411, 412, 413, 414, 415, 416, 417, 418, 419, 420, 421, 422, 423, 424, 425, 426, 427, 428, 429, 430, 431, 432, 433, 434, 435, 436, 437, 438, 439, 440, 441, 442, 443, 444, 445, 446, 447, 448, 449, 450, 451, 452, 453, 454, 455, 456, 457, 458, 459, 460, 461, 462, 463, 464, 465, 466, 467, 468, 469, 470, 471, 472, 473, 474, 475, 476, 477, 478, 479, 480, 481, 482, 483, 484, 485, 486, 487, 488, 489, 490, 491, 492, 493, 494, 495, 496, 497, 498, 499, 500, 501, 502, 503, 504, 505, 506, 507, 508, 509, 510, 511, 512, 513, 514, 515, 516, 517, 518, 519, 520, 521, 522, 523, 524, 525, 526, 527, 528, 529, 530, 531, 532, 533, 534, 535, 536, 537, 538, 539, 540, 541, 542, 543, 544, 545, 546, 547, 548, 549, 550, 551, 552, 553, 554, 555, 556, 557, 558, 559, 560, 561, 562, 563, 564, 565, 566, 567, 568, 569, 570, 571, 572, 573, 574, 575, 576, 577, 578, 579, 580, 581, 582, 583, 584, 585, 586, 587, 588, 589, 590, 591, 592, 593, 594, 595, 596, 597, 598, 599, 600, 601, 602, 603, 604, 605, 606, 607, 608, 609, 610, 611, 612, 613, 614, 615, 616, 617, 618, 619, 620, 621, 622, 623, 624, 625, 626, 627, 628, 629, 630, 631, 632, 633, 634, 635, 636, 637, 638, 639, 640, 641, 642, 643, 644, 645, 646, 647, 648, 649, 650, 651, 652, 653, 654, 655, 656, 657, 658, 659, 660, 661, 662, 663, 664, 665, 666, 667, 668, 669, 670, 671, 672, 673, 674, 675, 676, 677, 678, 679, 680, 681, 682, 683, 684, 685, 686, 687, 688, 689, 690, 691, 692, 693, 694, 695, 696, 697, 698, 699, 700, 701, 702, 703, 704, 705, 706, 707, 708, 709, 710, 711, 712, 713, 714, 715, 716, 717, 718, 719, 720, 721, 722, 723, 724, 725, 726, 727, 728, 729, 730, 731, 732, 733, 734, 735, 736, 737, 738, 739, 740, 741, 742, 743, 744, 745, 746, 747, 748, 749, 750, 751, 752, 753, 754, 755, 756, 757, 758, 759, 760, 761, 762, 763, 764, 765, 766, 767, 768, 769, 770, 771, 772, 773, 774, 775, 776, 777, 778, 779, 780, 781, 782, 783, 784, 785, 786, 787, 788, 789, 790, 791, 792, 793, 794, 795, 796, 797, 798, 799, 800, 801, 802, 803, 804, 805, 806, 807, 808, 809, 810, 811, 812, 813, 814, 815, 816, 817, 818, 819, 820, 821, 822, 823, 824, 825, 826, 827, 828, 829, 830, 831, 832, 833, 834, 835, 836, 837, 838, 839, 840, 841, 842, 843, 844, 845, 846, 847, 848, 849, 850, 851, 852, 853, 854, 855, 856, 857, 858, 859, 860, 861, 862, 863, 864, 865, 866, 867, 868, 869, 870, 871, 872],
      "AcquisitionTime": ["152453.217500", "152453.677500", "152454.137500", "152454.597500", "152455.057500", "152455.517500", "152455.977500", "152456.437500", "152456.897500", "152457.357500", "152457.817500", "152458.277500", "152458.737500", "152459.197500", "152459.657500", "152500.117500", "152500.577500", "152501.037500", "152501.497500", "152501.957500", "152502.417500", "152502.877500", "152503.337500", "152503.797500", "152504.257500", "152504.717500", "152505.177500", "152505.637500", "152506.097500", "152506.557500", "152507.017500", "152507.477500", "152507.937500", "152508.397500", "152508.857500", "152509.317500", "152509.777500", "152510.237500", "152510.697500", "152511.157500", "152511.617500", "152512.077500", "152512.537500", "152512.997500", "152513.457500", "152513.917500", "152514.377500", "152514.837500", "152515.297500", "152515.757500", "152516.217500", "152516.677500", "152517.137500", "152517.597500", "152518.057500", "152518.517500", "152518.977500", "152519.437500", "152519.897500", "152520.357500", "152520.817500", "152521.277500", "152521.737500", "152522.197500", "152522.657500", "152523.117500", "152523.577500", "152524.037500", "152524.497500", "152524.957500", "152525.417500", "152525.877500", "152526.337500", "152526.797500", "152527.257500", "152527.717500", "152528.177500", "152528.637500", "152529.097500", "152529.557500", "152530.017500", "152530.477500", "152530.937500", "152531.397500", "152531.857500", "152532.317500", "152532.777500", "152533.237500", "152533.697500", "152534.157500", "152534.617500", "152535.077500", "152535.537500", "152535.997500", "152536.457500", "152536.917500", "152537.377500", "152537.837500", "152538.297500", "152538.757500", "152539.217500", "152539.677500", "152540.137500", "152540.597500", "152541.057500", "152541.517500", "152541.977500", "152542.437500", "152542.897500", "152543.357500", "152543.817500", "152544.277500", "152544.737500", "152545.197500", "152545.657500", "152546.117500", "152546.577500", "152547.037500", "152547.497500", "152547.957500", "152548.417500", "152548.877500", "152549.337500", "152549.797500", "152550.257500", "152550.717500", "152551.177500", "152551.637500", "152552.097500", "152552.557500", "152553.017500", "152553.477500", "152553.937500", "152554.397500", "152554.857500", "152555.317500", "152555.777500", "152556.237500", "152556.697500", "152557.157500", "152557.617500", "152558.077500", "152558.537500", "152558.997500", "152559.457500", "152559.917500", "152600.377500", "152600.837500", "152601.297500", "152601.757500", "152602.217500", "152602.677500", "152603.137500", "152603.597500", "152604.057500", "152604.517500", "152604.977500", "152605.437500", "152605.897500", "152606.357500", "152606.817500", "152607.277500", "152607.737500", "152608.197500", "152608.657500", "152609.117500", "152609.577500", "152610.037500", "152610.497500", "152610.957500", "152611.417500", "152611.877500", "152612.337500", "152612.797500", "152613.257500", "152613.717500", "152614.177500", "152614.637500", "152615.097500", "152615.557500", "152616.017500", "152616.477500", "152616.937500", "152617.397500", "152617.857500", "152618.317500", "152618.777500", "152619.237500", "152619.697500", "152620.157500", "152620.617500", "152621.077500", "152621.537500", "152621.997500", "152622.457500", "152622.917500", "152623.377500", "152623.837500", "152624.297500", "152624.757500", "152625.217500", "152625.677500", "152626.137500", "152626.597500", "152627.057500", "152627.517500", "152627.977500", "152628.437500", "152628.897500", "152629.357500", "152629.817500", "152630.277500", "152630.737500", "152631.197500", "152631.657500", "152632.117500", "152632.577500", "152633.037500", "152633.497500", "152633.957500", "152634.417500", "152634.877500", "152635.337500", "152635.797500", "152636.257500", "152636.717500", "152637.177500", "152637.637500", "152638.097500", "152638.557500", "152639.017500", "152639.477500", "152639.937500", "152640.397500", "152640.857500", "152641.317500", "152641.777500", "152642.237500", "152642.697500", "152643.157500", "152643.617500", "152644.077500", "152644.537500", "152644.997500", "152645.457500", "152645.917500", "152646.377500", "152646.837500", "152647.297500", "152647.757500", "152648.217500", "152648.677500", "152649.137500", "152649.597500", "152650.057500", "152650.517500", "152650.977500", "152651.437500", "152651.897500", "152652.357500", "152652.817500", "152653.277500", "152653.737500", "152654.197500", "152654.657500", "152655.117500", "152655.577500", "152656.037500", "152656.497500", "152656.957500", "152657.417500", "152657.877500", "152658.337500", "152658.797500", "152659.257500", "152659.717500", "152700.177500", "152700.637500", "152701.097500", "152701.557500", "152702.017500", "152702.477500", "152702.937500", "152703.397500", "152703.857500", "152704.317500", "152704.777500", "152705.237500", "152705.697500", "152706.157500", "152706.617500", "152707.077500", "152707.537500", "152707.997500", "152708.457500", "152708.917500", "152709.377500", "152709.837500", "152710.297500", "152710.757500", "152711.217500", "152711.677500", "152712.137500", "152712.597500", "152713.057500", "152713.517500", "152713.977500", "152714.437500", "152714.897500", "152715.357500", "152715.817500", "152716.277500", "152716.737500", "152717.197500", "152717.657500", "152718.117500", "152718.577500", "152719.037500", "152719.497500", "152719.957500", "152720.417500", "152720.877500", "152721.337500", "152721.797500", "152722.257500", "152722.717500", "152723.177500", "152723.637500", "152724.097500", "152724.557500", "152725.017500", "152725.477500", "152725.937500", "152726.397500", "152726.857500", "152727.317500", "152727.777500", "152728.237500", "152728.697500", "152729.157500", "152729.617500", "152730.077500", "152730.537500", "152730.997500", "152731.457500", "152731.917500", "152732.377500", "152732.837500", "152733.297500", "152733.757500", "152734.217500", "152734.677500", "152735.137500", "152735.597500", "152736.057500", "152736.517500", "152736.977500", "152737.437500", "152737.897500", "152738.357500", "152738.817500", "152739.277500", "152739.737500", "152740.197500", "152740.657500", "152741.117500", "152741.577500", "152742.037500", "152742.497500", "152742.957500", "152743.417500", "152743.877500", "152744.337500", "152744.797500", "152745.257500", "152745.717500", "152746.177500", "152746.637500", "152747.097500", "152747.557500", "152748.017500", "152748.477500", "152748.937500", "152749.397500", "152749.857500", "152750.317500", "152750.777500", "152751.237500", "152751.697500", "152752.157500", "152752.617500", "152753.077500", "152753.537500", "152753.997500", "152754.457500", "152754.917500", "152755.377500", "152755.837500", "152756.297500", "152756.757500", "152757.217500", "152757.677500", "152758.137500", "152758.597500", "152759.057500", "152759.517500", "152759.977500", "152800.437500", "152800.897500", "152801.357500", "152801.817500", "152802.277500", "152802.737500", "152803.197500", "152803.657500", "152804.117500", "152804.577500", "152805.037500", "152805.497500", "152805.957500", "152806.417500", "152806.877500", "152807.337500", "152807.797500", "152808.257500", "152808.717500", "152809.177500", "152809.637500", "152810.097500", "152810.557500", "152811.017500", "152811.477500", "152811.937500", "152812.397500", "152812.857500", "152813.317500", "152813.777500", "152814.237500", "152814.697500", "152815.157500", "152815.617500", "152816.077500", "152816.537500", "152816.997500", "152817.457500", "152817.917500", "152818.377500", "152818.837500", "152819.297500", "152819.757500", "152820.217500", "152820.677500", "152821.137500", "152821.597500", "152822.057500", "152822.517500", "152822.977500", "152823.437500", "152823.897500", "152824.357500", "152824.817500", "152825.277500", "152825.737500", "152826.197500", "152826.657500", "152827.117500", "152827.577500", "152828.037500", "152828.497500", "152828.957500", "152829.417500", "152829.877500", "152830.337500", "152830.797500", "152831.257500", "152831.717500", "152832.177500", "152832.637500", "152833.097500", "152833.557500", "152834.017500", "152834.477500", "152834.937500", "152835.397500", "152835.857500", "152836.317500", "152836.777500", "152837.237500", "152837.697500", "152838.157500", "152838.617500", "152839.077500", "152839.537500", "152839.997500", "152840.457500", "152840.917500", "152841.377500", "152841.837500", "152842.297500", "152842.757500", "152843.217500", "152843.677500", "152844.137500", "152844.597500", "152845.057500", "152845.517500", "152845.977500", "152846.437500", "152846.897500", "152847.357500", "152847.817500", "152848.277500", "152848.737500", "152849.197500", "152849.657500", "152850.117500", "152850.577500", "152851.037500", "152851.497500", "152851.957500", "152852.417500", "152852.877500", "152853.337500", "152853.797500", "152854.257500", "152854.717500", "152855.177500", "152855.637500", "152856.097500", "152856.557500", "152857.017500", "152857.477500", "152857.937500", "152858.397500", "152858.857500", "152859.317500", "152859.777500", "152900.237500", "152900.697500", "152901.157500", "152901.617500", "152902.077500", "152902.537500", "152902.997500", "152903.457500", "152903.917500", "152904.377500", "152904.837500", "152905.297500", "152905.757500", "152906.217500", "152906.677500", "152907.137500", "152907.597500", "152908.057500", "152908.517500", "152908.977500", "152909.437500", "152909.897500", "152910.357500", "152910.817500", "152911.277500", "152911.737500", "152912.197500", "152912.657500", "152913.117500", "152913.577500", "152914.037500", "152914.497500", "152914.957500", "152915.417500", "152915.877500", "152916.337500", "152916.797500", "152917.257500", "152917.717500", "152918.177500", "152918.637500", "152919.097500", "152919.557500", "152920.017500", "152920.477500", "152920.937500", "152921.397500", "152921.857500", "152922.317500", "152922.777500", "152923.237500", "152923.697500", "152924.157500", "152924.617500", "152925.077500", "152925.537500", "152925.997500", "152926.457500", "152926.917500", "152927.377500", "152927.837500", "152928.297500", "152928.757500", "152929.217500", "152929.677500", "152930.137500", "152930.597500", "152931.057500", "152931.517500", "152931.977500", "152932.437500", "152932.897500", "152933.357500", "152933.817500", "152934.277500", "152934.737500", "152935.197500", "152935.657500", "152936.117500", "152936.577500", "152937.037500", "152937.497500", "152937.957500", "152938.417500", "152938.877500", "152939.337500", "152939.797500", "152940.257500", "152940.717500", "152941.177500", "152941.637500", "152942.097500", "152942.557500", "152943.017500", "152943.477500", "152943.937500", "152944.397500", "152944.857500", "152945.317500", "152945.777500", "152946.237500", "152946.697500", "152947.157500", "152947.617500", "152948.077500", "152948.537500", "152948.997500", "152949.457500", "152949.917500", "152950.377500", "152950.837500", "152951.297500", "152951.757500", "152952.217500", "152952.677500", "152953.137500", "152953.597500", "152954.057500", "152954.517500", "152954.977500", "152955.437500", "152955.897500", "152956.357500", "152956.817500", "152957.277500", "152957.737500", "152958.197500", "152958.657500", "152959.117500", "152959.577500", "153000.037500", "153000.497500", "153000.957500", "153001.417500", "153001.877500", "153002.337500", "153002.797500", "153003.257500", "153003.717500", "153004.177500", "153004.637500", "153005.097500", "153005.557500", "153006.017500", "153006.477500", "153006.937500", "153007.397500", "153007.857500", "153008.317500", "153008.777500", "153009.237500", "153009.697500", "153010.157500", "153010.617500", "153011.077500", "153011.537500", "153011.997500", "153012.457500", "153012.917500", "153013.377500", "153013.837500", "153014.297500", "153014.757500", "153015.217500", "153015.677500", "153016.137500", "153016.597500", "153017.057500", "153017.517500", "153017.977500", "153018.437500", "153018.897500", "153019.357500", "153019.817500", "153020.277500", "153020.737500", "153021.197500", "153021.657500", "153022.117500", "153022.577500", "153023.037500", "153023.497500", "153023.957500", "153024.417500", "153024.877500", "153025.337500", "153025.797500", "153026.257500", "153026.717500", "153027.177500", "153027.637500", "153028.097500", "153028.557500", "153029.017500", "153029.477500", "153029.937500", "153030.397500", "153030.857500", "153031.317500", "153031.777500", "153032.237500", "153032.697500", "153033.157500", "153033.617500", "153034.077500", "153034.537500", "153034.997500", "153035.457500", "153035.917500", "153036.377500", "153036.837500", "153037.297500", "153037.757500", "153038.217500", "153038.677500", "153039.137500", "153039.597500", "153040.057500", "153040.517500", "153040.977500", "153041.437500", "153041.897500", "153042.357500", "153042.817500", "153043.277500", "153043.737500", "153044.197500", "153044.657500", "153045.117500", "153045.577500", "153046.037500", "153046.497500", "153046.957500", "153047.417500", "153047.877500", "153048.337500", "153048.797500", "153049.257500", "153049.717500", "153050.177500", "153050.637500", "153051.097500", "153051.557500", "153052.017500", "153052.477500", "153052.937500", "153053.397500", "153053.857500", "153054.317500", "153054.777500", "153055.237500", "153055.697500", "153056.157500", "153056.617500", "153057.077500", "153057.537500", "153057.997500", "153058.457500", "153058.917500", "153059.377500", "153059.837500", "153100.297500", "153100.757500", "153101.217500", "153101.677500", "153102.137500", "153102.597500", "153103.057500", "153103.517500", "153103.977500", "153104.437500", "153104.897500", "153105.357500", "153105.817500", "153106.277500", "153106.737500", "153107.197500", "153107.657500", "153108.117500", "153108.577500", "153109.037500", "153109.497500", "153109.957500", "153110.417500", "153110.877500", "153111.337500", "153111.797500", "153112.257500", "153112.717500", "153113.177500", "153113.637500", "153114.097500", "153114.557500", "153115.017500", "153115.477500", "153115.937500", "153116.397500", "153116.857500", "153117.317500", "153117.777500", "153118.237500", "153118.697500", "153119.157500", "153119.617500", "153120.077500", "153120.537500", "153120.997500", "153121.457500", "153121.917500", "153122.377500", "153122.837500", "153123.297500", "153123.757500", "153124.217500", "153124.677500", "153125.137500", "153125.597500", "153126.057500", "153126.517500", "153126.977500", "153127.437500", "153127.897500", "153128.357500", "153128.817500", "153129.277500", "153129.737500", "153130.197500", "153130.657500", "153131.117500", "153131.577500", "153132.037500", "153132.497500", "153132.957500", "153133.417500", "153133.877500"],
