{
  "AcquisitionMatrixPE": 82,
  "AcquisitionNumber": 1,
  "AcquisitionTime": "22:56:39.637500",
  "BandwidthPerPixelPhaseEncode": 24.888,
  "BaseResolution": 82,
  "BodyPartExamined": "BRAIN",
  "ConsistencyInfo": "N4_VE11E_LATEST_20181129",
  "ConversionSoftware": "dcm2niix",
  "ConversionSoftwareVersion": "v1.0.20201102",
  "DerivedVendorReportedEchoSpacing": 0.00049,
  "DeviceSerialNumber": "66112",
  "DwellTime": 2e-06,
  "EchoTime": 0.0272,
  "EchoTrainLength": 82,
  "EffectiveEchoSpacing": 0.00049,
  "FlipAngle": 44,
  "ImageComments": "Unaliased MB8/PE3",
  "ImageOrientationPatientDICOM": [0.999613, -0.0220111, 0.0170236, 0.0228589, 0.99842, -0.0513254],
  "ImageType": [
    "ORIGINAL",
    "PRIMARY",
    "M",
    "MB",
    "ND",
    "NORM",
    "MOSAIC"
],
  "ImagingFrequency": 123.259,
  "InPlanePhaseEncodingDirectionDICOM": "COL",
  "InstitutionAddress": "Maynard 3,Hanover,NH,US,03755",
  "InstitutionName": "Dartmouth College - PBS",
  "InstitutionalDepartmentName": "Department",
  "MRAcquisitionType": "2D",
  "MagneticFieldStrength": 3,
  "Manufacturer": "Siemens",
  "ManufacturersModelName": "Prisma",
  "Modality": "MR",
  "MultibandAccelerationFactor": 8,
  "PartialFourier": 1,
  "PatientPosition": "HFS",
  "PercentPhaseFOV": 100,
  "PercentSampling": 100,
  "PhaseEncodingDirection": "j-",
  "PhaseEncodingSteps": 82,
  "PhaseResolution": 1,
  "PixelBandwidth": 3050,
  "ProcedureStepDescription": "Wager_Wager^1076_spacetop",
  "ProtocolName": "func_run-04_task-alignvideo_acq-ap-mb8",
  "PulseSequenceDetails": "%CustomerSeq%\\cmrr_mbep2d_bold",
  "ReceiveCoilActiveElements": "HEA;HEP",
  "ReceiveCoilName": "Head_32",
  "ReconMatrixPE": 82,
  "RepetitionTime": 0.46,
  "SAR": 0.093719,
  "ScanOptions": "FS",
  "ScanningSequence": "EP",
  "SequenceName": "epfid2d1_82",
  "SequenceVariant": "SK\\SS",
  "SeriesDescription": "func_run-04_task-alignvideo_acq-ap-mb8",
  "SeriesNumber": 34,
  "ShimSetting": [4241, -7753, -7286, 210, -121, 59, -41, 110],
  "SliceThickness": 2.7,
  "SliceTiming": [0, 0.25, 0.0625, 0.3125, 0.125, 0.375, 0.1875, 0, 0.25, 0.0625, 0.3125, 0.125, 0.375, 0.1875, 0, 0.25, 0.0625, 0.3125, 0.125, 0.375, 0.1875, 0, 0.25, 0.0625, 0.3125, 0.125, 0.375, 0.1875, 0, 0.25, 0.0625, 0.3125, 0.125, 0.375, 0.1875, 0, 0.25, 0.0625, 0.3125, 0.125, 0.375, 0.1875, 0, 0.25, 0.0625, 0.3125, 0.125, 0.375, 0.1875, 0, 0.25, 0.0625, 0.3125, 0.125, 0.375, 0.1875],
  "SoftwareVersions": "syngo MR E11",
  "SpacingBetweenSlices": 2.7,
  "StationName": "AWP66112",
  "TaskName": "alignvideo",
  "TotalReadoutTime": 0.03969,
  "TxRefAmp": 227.42,
  "WipMemBlock": "6ebf8c1e-711b-4017-b523-40e0d1422d22||Sequence: R016 ve11e/master r/434b28f1; Aug  7 2019 18:53:46 by eja",
  "dcmmeta_affine": [
    [-2.6818881034851074, 0.06132880598306656, 0.04284090921282768, 105.66836547851562],
    [0.05905415117740631, 2.6786887645721436, -0.13957571983337402, -92.69190216064453],
    [0.04567313939332962, 0.13770240545272827, 2.696049690246582, -77.05892181396484],
    [0.0, 0.0, 0.0, 1.0]
],
  "dcmmeta_reorient_transform": [
    [0.0, -1.0, 0.0, 81.0],
    [1.0, 0.0, 0.0, 0.0],
    [0.0, 0.0, 1.0, 0.0],
    [0.0, 0.0, 0.0, 1.0]
],
  "dcmmeta_shape": [82, 82, 56, 914],
  "dcmmeta_slice_dim": 2,
  "dcmmeta_version": 0.6,
  "global": {
    "const": {
      "AccessionNumber": "A004775",
      "AcquisitionMatrix": [82, 0, 0, 82],
      "AngioFlag": "N",
      "BitsAllocated": 16,
      "BitsStored": 16,
      "BodyPartExamined": "BRAIN",
      "Columns": 656,
      "EchoNumbers": 1,
      "EchoTime": 27.2,
      "EchoTrainLength": 82,
      "FlipAngle": 44.0,
      "HighBit": 15,
      "ImageOrientationPatient": [0.99961277906359, -0.0220110918485, 0.01702362383279, 0.02285891819501, 0.99842033679637, -0.0513254413559],
      "ImagePositionPatient": [-897.9392253428, -876.11702142699, -39.492630145666],
      "ImageType": [
        "ORIGINAL",
        "PRIMARY",
        "M",
        "MB",
        "ND",
        "NORM",
        "MOSAIC"
],
      "ImagedNucleus": "1H",
      "ImagingFrequency": 123.259119,
      "InPlanePhaseEncodingDirection": "COL",
      "MRAcquisitionType": "2D",
      "MagneticFieldStrength": 3.0,
      "Manufacturer": "SIEMENS",
      "ManufacturerModelName": "Prisma",
      "Modality": "MR",
      "NumberOfAverages": 1.0,
      "NumberOfPhaseEncodingSteps": 82,
      "PercentPhaseFieldOfView": 100.0,
      "PercentSampling": 100.0,
      "PerformedProcedureStepStartTime": "211559.515000",
      "PhotometricInterpretation": "MONOCHROME2",
      "PixelBandwidth": 3050.0,
      "PixelRepresentation": 0,
      "PixelSpacing": [2.6829268932343, 2.6829268932343],
      "ProtocolName": "func_run-04_task-alignvideo_acq-ap-mb8",
      "RepetitionTime": 460.0,
      "Rows": 656,
      "SAR": 0.09371904280614,
      "SamplesPerPixel": 1,
      "ScanOptions": "FS",
      "ScanningSequence": "EP",
      "SequenceName": "epfid2d1_82",
      "SequenceVariant": [
        "SK",
        "SS"
],
      "SeriesDescription": "func_run-04_task-alignvideo_acq-ap-mb8",
      "SeriesNumber": 34,
      "SeriesTime": "225707.116000",
      "SliceLocation": -70.477857191912,
      "SliceThickness": 2.7000000476837,
      "SmallestImagePixelValue": 0,
      "SoftwareVersions": "syngo MR E11",
      "SpacingBetweenSlices": 2.7000000686112,
      "SpecificCharacterSet": "ISO_IR 100",
      "StudyID": "1",
      "StudyTime": "211559.459000",
      "TransmitCoilName": "Body",
      "VariableFlipAngleFlag": "N",
      "WindowCenterWidthExplanation": "Algo1"
    },
    "slices": {}
  },
  "time": {
    "samples": {
      "AcquisitionNumber": [1, 2, 3, 4, 5, 6, 7, 8, 9, 10, 11, 12, 13, 14, 15, 16, 17, 18, 19, 20, 21, 22, 23, 24, 25, 26, 27, 28, 29, 30, 31, 32, 33, 34, 35, 36, 37, 38, 39, 40, 41, 42, 43, 44, 45, 46, 47, 48, 49, 50, 51, 52, 53, 54, 55, 56, 57, 58, 59, 60, 61, 62, 63, 64, 65, 66, 67, 68, 69, 70, 71, 72, 73, 74, 75, 76, 77, 78, 79, 80, 81, 82, 83, 84, 85, 86, 87, 88, 89, 90, 91, 92, 93, 94, 95, 96, 97, 98, 99, 100, 101, 102, 103, 104, 105, 106, 107, 108, 109, 110, 111, 112, 113, 114, 115, 116, 117, 118, 119, 120, 121, 122, 123, 124, 125, 126, 127, 128, 129, 130, 131, 132, 133, 134, 135, 136, 137, 138, 139, 140, 141, 142, 143, 144, 145, 146, 147, 148, 149, 150, 151, 152, 153, 154, 155, 156, 157, 158, 159, 160, 161, 162, 163, 164, 165, 166, 167, 168, 169, 170, 171, 172, 173, 174, 175, 176, 177, 178, 179, 180, 181, 182, 183, 184, 185, 186, 187, 188, 189, 190, 191, 192, 193, 194, 195, 196, 197, 198, 199, 200, 201, 202, 203, 204, 205, 206, 207, 208, 209, 210, 211, 212, 213, 214, 215, 216, 217, 218, 219, 220, 221, 222, 223, 224, 225, 226, 227, 228, 229, 230, 231, 232, 233, 234, 235, 236, 237, 238, 239, 240, 241, 242, 243, 244, 245, 246, 247, 248, 249, 250, 251, 252, 253, 254, 255, 256, 257, 258, 259, 260, 261, 262, 263, 264, 265, 266, 267, 268, 269, 270, 271, 272, 273, 274, 275, 276, 277, 278, 279, 280, 281, 282, 283, 284, 285, 286, 287, 288, 289, 290, 291, 292, 293, 294, 295, 296, 297, 298, 299, 300, 301, 302, 303, 304, 305, 306, 307, 308, 309, 310, 311, 312, 313, 314, 315, 316, 317, 318, 319, 320, 321, 322, 323, 324, 325, 326, 327, 328, 329, 330, 331, 332, 333, 334, 335, 336, 337, 338, 339, 340, 341, 342, 343, 344, 345, 346, 347, 348, 349, 350, 351, 352, 353, 354, 355, 356, 357, 358, 359, 360, 361, 362, 363, 364, 365, 366, 367, 368, 369, 370, 371, 372, 373, 374, 375, 376, 377, 378, 379, 380, 381, 382, 383, 384, 385, 386, 387, 388, 389, 390, 391, 392, 393, 394, 395, 396, 397, 398, 399, 400, 401, 402, 403, 404, 405, 406, 407, 408, 409, 410, 411, 412, 413, 414, 415, 416, 417, 418, 419, 420, 421, 422, 423, 424, 425, 426, 427, 428, 429, 430, 431, 432, 433, 434, 435, 436, 437, 438, 439, 440, 441, 442, 443, 444, 445, 446, 447, 448, 449, 450, 451, 452, 453, 454, 455, 456, 457, 458, 459, 460, 461, 462, 463, 464, 465, 466, 467, 468, 469, 470, 471, 472, 473, 474, 475, 476, 477, 478, 479, 480, 481, 482, 483, 484, 485, 486, 487, 488, 489, 490, 491, 492, 493, 494, 495, 496, 497, 498, 499, 500, 501, 502, 503, 504, 505, 506, 507, 508, 509, 510, 511, 512, 513, 514, 515, 516, 517, 518, 519, 520, 521, 522, 523, 524, 525, 526, 527, 528, 529, 530, 531, 532, 533, 534, 535, 536, 537, 538, 539, 540, 541, 542, 543, 544, 545, 546, 547, 548, 549, 550, 551, 552, 553, 554, 555, 556, 557, 558, 559, 560, 561, 562, 563, 564, 565, 566, 567, 568, 569, 570, 571, 572, 573, 574, 575, 576, 577, 578, 579, 580, 581, 582, 583, 584, 585, 586, 587, 588, 589, 590, 591, 592, 593, 594, 595, 596, 597, 598, 599, 600, 601, 602, 603, 604, 605, 606, 607, 608, 609, 610, 611, 612, 613, 614, 615, 616, 617, 618, 619, 620, 621, 622, 623, 624, 625, 626, 627, 628, 629, 630, 631, 632, 633, 634, 635, 636, 637, 638, 639, 640, 641, 642, 643, 644, 645, 646, 647, 648, 649, 650, 651, 652, 653, 654, 655, 656, 657, 658, 659, 660, 661, 662, 663, 664, 665, 666, 667, 668, 669, 670, 671, 672, 673, 674, 675, 676, 677, 678, 679, 680, 681, 682, 683, 684, 685, 686, 687, 688, 689, 690, 691, 692, 693, 694, 695, 696, 697, 698, 699, 700, 701, 702, 703, 704, 705, 706, 707, 708, 709, 710, 711, 712, 713, 714, 715, 716, 717, 718, 719, 720, 721, 722, 723, 724, 725, 726, 727, 728, 729, 730, 731, 732, 733, 734, 735, 736, 737, 738, 739, 740, 741, 742, 743, 744, 745, 746, 747, 748, 749, 750, 751, 752, 753, 754, 755, 756, 757, 758, 759, 760, 761, 762, 763, 764, 765, 766, 767, 768, 769, 770, 771, 772, 773, 774, 775, 776, 777, 778, 779, 780, 781, 782, 783, 784, 785, 786, 787, 788, 789, 790, 791, 792, 793, 794, 795, 796, 797, 798, 799, 800, 801, 802, 803, 804, 805, 806, 807, 808, 809, 810, 811, 812, 813, 814, 815, 816, 817, 818, 819, 820, 821, 822, 823, 824, 825, 826, 827, 828, 829, 830, 831, 832, 833, 834, 835, 836, 837, 838, 839, 840, 841, 842, 843, 844, 845, 846, 847, 848, 849, 850, 851, 852, 853, 854, 855, 856, 857, 858, 859, 860, 861, 862, 863, 864, 865, 866, 867, 868, 869, 870, 871, 872, 873, 874, 875, 876, 877, 878, 879, 880, 881, 882, 883, 884, 885, 886, 887, 888, 889, 890, 891, 892, 893, 894, 895, 896, 897, 898, 899, 900, 901, 902, 903, 904, 905, 906, 907, 908, 909, 910, 911, 912, 913, 914],
      "AcquisitionTime": ["225639.637500", "225640.097500", "225640.557500", "225641.017500", "225641.477500", "225641.937500", "225642.397500", "225642.857500", "225643.317500", "225643.777500", "225644.237500", "225644.697500", "225645.157500", "225645.617500", "225646.077500", "225646.537500", "225646.997500", "225647.457500", "225647.917500", "225648.377500", "225648.837500", "225649.297500", "225649.757500", "225650.217500", "225650.677500", "225651.137500", "225651.597500", "225652.057500", "225652.517500", "225652.977500", "225653.437500", "225653.897500", "225654.357500", "225654.817500", "225655.277500", "225655.737500", "225656.197500", "225656.657500", "225657.117500", "225657.577500", "225658.037500", "225658.497500", "225658.957500", "225659.417500", "225659.877500", "225700.337500", "225700.797500", "225701.257500", "225701.717500", "225702.177500", "225702.637500", "225703.097500", "225703.557500", "225704.017500", "225704.477500", "225704.937500", "225705.397500", "225705.857500", "225706.317500", "225706.777500", "225707.237500", "225707.697500", "225708.157500", "225708.617500", "225709.077500", "225709.537500", "225709.997500", "225710.457500", "225710.917500", "225711.377500", "225711.837500", "225712.297500", "225712.757500", "225713.217500", "225713.677500", "225714.137500", "225714.597500", "225715.057500", "225715.517500", "225715.977500", "225716.437500", "225716.897500", "225717.357500", "225717.817500", "225718.277500", "225718.737500", "225719.197500", "225719.657500", "225720.117500", "225720.577500", "225721.037500", "225721.497500", "225721.957500", "225722.417500", "225722.877500", "225723.337500", "225723.797500", "225724.257500", "225724.717500", "225725.177500", "225725.637500", "225726.097500", "225726.557500", "225727.017500", "225727.477500", "225727.937500", "225728.397500", "225728.857500", "225729.317500", "225729.777500", "225730.237500", "225730.697500", "225731.157500", "225731.617500", "225732.077500", "225732.537500", "225732.997500", "225733.457500", "225733.917500", "225734.377500", "225734.837500", "225735.297500", "225735.757500", "225736.217500", "225736.677500", "225737.137500", "225737.597500", "225738.057500", "225738.517500", "225738.977500", "225739.437500", "225739.897500", "225740.357500", "225740.817500", "225741.277500", "225741.737500", "225742.197500", "225742.657500", "225743.117500", "225743.577500", "225744.037500", "225744.497500", "225744.957500", "225745.417500", "225745.877500", "225746.337500", "225746.797500", "225747.257500", "225747.717500", "225748.177500", "225748.637500", "225749.097500", "225749.557500", "225750.017500", "225750.477500", "225750.937500", "225751.397500", "225751.857500", "225752.317500", "225752.777500", "225753.237500", "225753.697500", "225754.157500", "225754.617500", "225755.077500", "225755.537500", "225755.997500", "225756.457500", "225756.917500", "225757.377500", "225757.837500", "225758.297500", "225758.757500", "225759.217500", "225759.677500", "225800.137500", "225800.597500", "225801.057500", "225801.517500", "225801.977500", "225802.437500", "225802.897500", "225803.357500", "225803.817500", "225804.277500", "225804.737500", "225805.197500", "225805.657500", "225806.117500", "225806.577500", "225807.037500", "225807.497500", "225807.957500", "225808.417500", "225808.877500", "225809.337500", "225809.797500", "225810.257500", "225810.717500", "225811.177500", "225811.637500", "225812.097500", "225812.557500", "225813.017500", "225813.477500", "225813.937500", "225814.397500", "225814.857500", "225815.317500", "225815.777500", "225816.237500", "225816.697500", "225817.157500", "225817.617500", "225818.077500", "225818.537500", "225818.997500", "225819.457500", "225819.917500", "225820.377500", "225820.837500", "225821.297500", "225821.757500", "225822.217500", "225822.677500", "225823.137500", "225823.597500", "225824.057500", "225824.517500", "225824.977500", "225825.437500", "225825.897500", "225826.357500", "225826.817500", "225827.277500", "225827.737500", "225828.197500", "225828.657500", "225829.117500", "225829.577500", "225830.037500", "225830.497500", "225830.957500", "225831.417500", "225831.877500", "225832.337500", "225832.797500", "225833.257500", "225833.717500", "225834.177500", "225834.637500", "225835.097500", "225835.557500", "225836.017500", "225836.477500", "225836.937500", "225837.397500", "225837.857500", "225838.317500", "225838.777500", "225839.237500", "225839.697500", "225840.157500", "225840.617500", "225841.077500", "225841.537500", "225841.997500", "225842.457500", "225842.917500", "225843.377500", "225843.837500", "225844.297500", "225844.757500", "225845.217500", "225845.677500", "225846.137500", "225846.597500", "225847.057500", "225847.517500", "225847.977500", "225848.437500", "225848.897500", "225849.357500", "225849.817500", "225850.277500", "225850.737500", "225851.197500", "225851.657500", "225852.117500", "225852.577500", "225853.037500", "225853.497500", "225853.957500", "225854.417500", "225854.877500", "225855.337500", "225855.797500", "225856.257500", "225856.717500", "225857.177500", "225857.637500", "225858.097500", "225858.557500", "225859.017500", "225859.477500", "225859.937500", "225900.397500", "225900.857500", "225901.317500", "225901.777500", "225902.237500", "225902.697500", "225903.157500", "225903.617500", "225904.077500", "225904.537500", "225904.997500", "225905.457500", "225905.917500", "225906.377500", "225906.837500", "225907.297500", "225907.757500", "225908.217500", "225908.677500", "225909.137500", "225909.597500", "225910.057500", "225910.517500", "225910.977500", "225911.437500", "225911.897500", "225912.357500", "225912.817500", "225913.277500", "225913.737500", "225914.197500", "225914.657500", "225915.117500", "225915.577500", "225916.037500", "225916.497500", "225916.957500", "225917.417500", "225917.877500", "225918.337500", "225918.797500", "225919.257500", "225919.717500", "225920.177500", "225920.637500", "225921.097500", "225921.557500", "225922.017500", "225922.477500", "225922.937500", "225923.397500", "225923.857500", "225924.317500", "225924.777500", "225925.237500", "225925.697500", "225926.157500", "225926.617500", "225927.077500", "225927.537500", "225927.997500", "225928.457500", "225928.917500", "225929.377500", "225929.837500", "225930.297500", "225930.757500", "225931.217500", "225931.677500", "225932.137500", "225932.597500", "225933.057500", "225933.517500", "225933.977500", "225934.437500", "225934.897500", "225935.357500", "225935.817500", "225936.277500", "225936.737500", "225937.197500", "225937.657500", "225938.117500", "225938.577500", "225939.037500", "225939.497500", "225939.957500", "225940.417500", "225940.877500", "225941.337500", "225941.797500", "225942.257500", "225942.717500", "225943.177500", "225943.637500", "225944.097500", "225944.557500", "225945.017500", "225945.477500", "225945.937500", "225946.397500", "225946.857500", "225947.317500", "225947.777500", "225948.237500", "225948.697500", "225949.157500", "225949.617500", "225950.077500", "225950.537500", "225950.997500", "225951.457500", "225951.917500", "225952.377500", "225952.837500", "225953.297500", "225953.757500", "225954.217500", "225954.677500", "225955.137500", "225955.597500", "225956.057500", "225956.517500", "225956.977500", "225957.437500", "225957.897500", "225958.357500", "225958.817500", "225959.277500", "225959.737500", "230000.197500", "230000.657500", "230001.117500", "230001.577500", "230002.037500", "230002.497500", "230002.957500", "230003.417500", "230003.877500", "230004.337500", "230004.797500", "230005.257500", "230005.717500", "230006.177500", "230006.637500", "230007.097500", "230007.557500", "230008.017500", "230008.477500", "230008.937500", "230009.397500", "230009.857500", "230010.317500", "230010.777500", "230011.237500", "230011.697500", "230012.157500", "230012.617500", "230013.077500", "230013.537500", "230013.997500", "230014.457500", "230014.917500", "230015.377500", "230015.837500", "230016.297500", "230016.757500", "230017.217500", "230017.677500", "230018.137500", "230018.597500", "230019.057500", "230019.517500", "230019.977500", "230020.437500", "230020.897500", "230021.357500", "230021.817500", "230022.277500", "230022.737500", "230023.197500", "230023.657500", "230024.117500", "230024.577500", "230025.037500", "230025.497500", "230025.957500", "230026.417500", "230026.877500", "230027.337500", "230027.797500", "230028.257500", "230028.717500", "230029.177500", "230029.637500", "230030.097500", "230030.557500", "230031.017500", "230031.477500", "230031.937500", "230032.397500", "230032.857500", "230033.317500", "230033.777500", "230034.237500", "230034.697500", "230035.157500", "230035.617500", "230036.077500", "230036.537500", "230036.997500", "230037.457500", "230037.917500", "230038.377500", "230038.837500", "230039.297500", "230039.757500", "230040.217500", "230040.677500", "230041.137500", "230041.597500", "230042.057500", "230042.517500", "230042.977500", "230043.437500", "230043.897500", "230044.357500", "230044.817500", "230045.277500", "230045.737500", "230046.197500", "230046.657500", "230047.117500", "230047.577500", "230048.037500", "230048.497500", "230048.957500", "230049.417500", "230049.877500", "230050.337500", "230050.797500", "230051.257500", "230051.717500", "230052.177500", "230052.637500", "230053.097500", "230053.557500", "230054.017500", "230054.477500", "230054.937500", "230055.397500", "230055.857500", "230056.317500", "230056.777500", "230057.237500", "230057.697500", "230058.157500", "230058.617500", "230059.077500", "230059.537500", "230059.997500", "230100.457500", "230100.917500", "230101.377500", "230101.837500", "230102.297500", "230102.757500", "230103.217500", "230103.677500", "230104.137500", "230104.597500", "230105.057500", "230105.517500", "230105.977500", "230106.437500", "230106.897500", "230107.357500", "230107.817500", "230108.277500", "230108.737500", "230109.197500", "230109.657500", "230110.117500", "230110.577500", "230111.037500", "230111.497500", "230111.957500", "230112.417500", "230112.877500", "230113.337500", "230113.797500", "230114.257500", "230114.717500", "230115.177500", "230115.637500", "230116.097500", "230116.557500", "230117.017500", "230117.477500", "230117.937500", "230118.397500", "230118.857500", "230119.317500", "230119.777500", "230120.237500", "230120.697500", "230121.157500", "230121.617500", "230122.077500", "230122.537500", "230122.997500", "230123.457500", "230123.917500", "230124.377500", "230124.837500", "230125.297500", "230125.757500", "230126.217500", "230126.677500", "230127.137500", "230127.597500", "230128.057500", "230128.517500", "230128.977500", "230129.437500", "230129.897500", "230130.357500", "230130.817500", "230131.277500", "230131.737500", "230132.197500", "230132.657500", "230133.117500", "230133.577500", "230134.037500", "230134.497500", "230134.957500", "230135.417500", "230135.877500", "230136.337500", "230136.797500", "230137.257500", "230137.717500", "230138.177500", "230138.637500", "230139.097500", "230139.557500", "230140.017500", "230140.477500", "230140.937500", "230141.397500", "230141.857500", "230142.317500", "230142.777500", "230143.237500", "230143.697500", "230144.157500", "230144.617500", "230145.077500", "230145.537500", "230145.997500", "230146.457500", "230146.917500", "230147.377500", "230147.837500", "230148.297500", "230148.757500", "230149.217500", "230149.677500", "230150.137500", "230150.597500", "230151.057500", "230151.517500", "230151.977500", "230152.437500", "230152.897500", "230153.357500", "230153.817500", "230154.277500", "230154.737500", "230155.197500", "230155.657500", "230156.117500", "230156.577500", "230157.037500", "230157.497500", "230157.957500", "230158.417500", "230158.877500", "230159.337500", "230159.797500", "230200.257500", "230200.717500", "230201.177500", "230201.637500", "230202.097500", "230202.557500", "230203.017500", "230203.477500", "230203.937500", "230204.397500", "230204.857500", "230205.317500", "230205.777500", "230206.237500", "230206.697500", "230207.157500", "230207.617500", "230208.077500", "230208.537500", "230208.997500", "230209.457500", "230209.917500", "230210.377500", "230210.837500", "230211.297500", "230211.757500", "230212.217500", "230212.677500", "230213.137500", "230213.597500", "230214.057500", "230214.517500", "230214.977500", "230215.437500", "230215.897500", "230216.357500", "230216.817500", "230217.277500", "230217.737500", "230218.197500", "230218.657500", "230219.117500", "230219.577500", "230220.037500", "230220.497500", "230220.957500", "230221.417500", "230221.877500", "230222.337500", "230222.797500", "230223.257500", "230223.717500", "230224.177500", "230224.637500", "230225.097500", "230225.557500", "230226.017500", "230226.477500", "230226.937500", "230227.397500", "230227.857500", "230228.317500", "230228.777500", "230229.237500", "230229.697500", "230230.157500", "230230.617500", "230231.077500", "230231.537500", "230231.997500", "230232.457500", "230232.917500", "230233.377500", "230233.837500", "230234.297500", "230234.757500", "230235.217500", "230235.677500", "230236.137500", "230236.597500", "230237.057500", "230237.517500", "230237.977500", "230238.437500", "230238.897500", "230239.357500", "230239.817500", "230240.277500", "230240.737500", "230241.197500", "230241.657500", "230242.117500", "230242.577500", "230243.037500", "230243.497500", "230243.957500", "230244.417500", "230244.877500", "230245.337500", "230245.797500", "230246.257500", "230246.717500", "230247.177500", "230247.637500", "230248.097500", "230248.557500", "230249.017500", "230249.477500", "230249.937500", "230250.397500", "230250.857500", "230251.317500", "230251.777500", "230252.237500", "230252.697500", "230253.157500", "230253.617500", "230254.077500", "230254.537500", "230254.997500", "230255.457500", "230255.917500", "230256.377500", "230256.837500", "230257.297500", "230257.757500", "230258.217500", "230258.677500", "230259.137500", "230259.597500", "230300.057500", "230300.517500", "230300.977500", "230301.437500", "230301.897500", "230302.357500", "230302.817500", "230303.277500", "230303.737500", "230304.197500", "230304.657500", "230305.117500", "230305.577500", "230306.037500", "230306.497500", "230306.957500", "230307.417500", "230307.877500", "230308.337500", "230308.797500", "230309.257500", "230309.717500", "230310.177500", "230310.637500", "230311.097500", "230311.557500", "230312.017500", "230312.477500", "230312.937500", "230313.397500", "230313.857500", "230314.317500", "230314.777500", "230315.237500", "230315.697500", "230316.157500", "230316.617500", "230317.077500", "230317.537500", "230317.997500", "230318.457500", "230318.917500", "230319.377500", "230319.837500", "230320.297500", "230320.757500", "230321.217500", "230321.677500", "230322.137500", "230322.597500", "230323.057500", "230323.517500", "230323.977500", "230324.437500", "230324.897500", "230325.357500", "230325.817500", "230326.277500", "230326.737500", "230327.197500", "230327.657500", "230328.117500", "230328.577500", "230329.037500", "230329.497500", "230329.957500", "230330.417500", "230330.877500", "230331.337500", "230331.797500", "230332.257500", "230332.717500", "230333.177500", "230333.637500", "230334.097500", "230334.557500", "230335.017500", "230335.477500", "230335.937500", "230336.397500", "230336.857500", "230337.317500", "230337.777500", "230338.237500", "230338.697500", "230339.157500", "230339.617500"],
