{
  "AcquisitionMatrixPE": 82,
  "AcquisitionNumber": 1,
  "AcquisitionTime": "22:08:4.247500",
  "BandwidthPerPixelPhaseEncode": 24.888,
  "BaseResolution": 82,
  "BodyPartExamined": "BRAIN",
  "ConsistencyInfo": "N4_VE11E_LATEST_20181129",
  "ConversionSoftware": "dcm2niix",
  "ConversionSoftwareVersion": "v1.0.20201102",
  "DerivedVendorReportedEchoSpacing": 0.00049,
  "DeviceSerialNumber": "66112",
  "DwellTime": 2e-06,
  "EchoTime": 0.0272,
  "EchoTrainLength": 82,
  "EffectiveEchoSpacing": 0.00049,
  "FlipAngle": 44,
  "ImageComments": "Unaliased MB8/PE3",
  "ImageOrientationPatientDICOM": [0.999714, -0.0201665, 0.0128163, 0.0211156, 0.996664, -0.0788331],
  "ImageType": [
    "ORIGINAL",
    "PRIMARY",
    "M",
    "MB",
    "ND",
    "NORM",
    "MOSAIC"
],
  "ImagingFrequency": 123.259,
  "InPlanePhaseEncodingDirectionDICOM": "COL",
  "InstitutionAddress": "Maynard 3,Hanover,NH,US,03755",
  "InstitutionName": "Dartmouth College - PBS",
  "InstitutionalDepartmentName": "Department",
  "MRAcquisitionType": "2D",
  "MagneticFieldStrength": 3,
  "Manufacturer": "Siemens",
  "ManufacturersModelName": "Prisma",
  "Modality": "MR",
  "MultibandAccelerationFactor": 8,
  "PartialFourier": 1,
  "PatientPosition": "HFS",
  "PercentPhaseFOV": 100,
  "PercentSampling": 100,
  "PhaseEncodingDirection": "j-",
  "PhaseEncodingSteps": 82,
  "PhaseResolution": 1,
  "PixelBandwidth": 3050,
  "ProcedureStepDescription": "Wager_Wager^1076_spacetop",
  "ProtocolName": "func_run-02_task-faces_acq-ap-mb8",
  "PulseSequenceDetails": "%CustomerSeq%\\cmrr_mbep2d_bold",
  "ReceiveCoilActiveElements": "HEA;HEP",
  "ReceiveCoilName": "Head_32",
  "ReconMatrixPE": 82,
  "RepetitionTime": 0.46,
  "SAR": 0.093719,
  "ScanOptions": "FS",
  "ScanningSequence": "EP",
  "SequenceName": "epfid2d1_82",
  "SequenceVariant": "SK\\SS",
  "SeriesDescription": "func_run-02_task-faces_acq-ap-mb8",
  "SeriesNumber": 18,
  "ShimSetting": [4242, -7752, -7284, 221, -120, 70, -49, 111],
  "SliceThickness": 2.7,
  "SliceTiming": [0, 0.2525, 0.0625, 0.315, 0.1275, 0.3775, 0.19, 0, 0.2525, 0.0625, 0.315, 0.1275, 0.3775, 0.19, 0, 0.2525, 0.0625, 0.315, 0.1275, 0.3775, 0.19, 0, 0.2525, 0.0625, 0.315, 0.1275, 0.3775, 0.19, 0, 0.2525, 0.0625, 0.315, 0.1275, 0.3775, 0.19, 0, 0.2525, 0.0625, 0.315, 0.1275, 0.3775, 0.19, 0, 0.2525, 0.0625, 0.315, 0.1275, 0.3775, 0.19, 0, 0.2525, 0.0625, 0.315, 0.1275, 0.3775, 0.19],
  "SoftwareVersions": "syngo MR E11",
  "SpacingBetweenSlices": 2.7,
  "StationName": "AWP66112",
  "TaskName": "faces",
  "TotalReadoutTime": 0.03969,
  "TxRefAmp": 227.42,
  "WipMemBlock": "7dee7c5d-5f20-4d65-af29-893e8defee5a||Sequence: R016 ve11e/master r/434b28f1; Aug  7 2019 18:53:46 by eja",
  "dcmmeta_affine": [
    [-2.6821608543395996, 0.05665149912238121, 0.030196068808436394, 106.3797607421875],
    [0.05410512536764145, 2.6739771366119385, -0.2135193943977356, -89.70507049560547],
    [0.03438510745763779, 0.2115035504102707, 2.6913747787475586, -77.9762954711914],
    [0.0, 0.0, 0.0, 1.0]
],
  "dcmmeta_reorient_transform": [
    [0.0, -1.0, 0.0, 81.0],
    [1.0, 0.0, 0.0, 0.0],
    [0.0, 0.0, 1.0, 0.0],
    [0.0, 0.0, 0.0, 1.0]
],
  "dcmmeta_shape": [82, 82, 56, 914],
  "dcmmeta_slice_dim": 2,
  "dcmmeta_version": 0.6,
  "global": {
    "const": {
      "AccessionNumber": "A004775",
      "AcquisitionMatrix": [82, 0, 0, 82],
      "AngioFlag": "N",
      "BitsAllocated": 16,
      "BitsStored": 16,
      "BodyPartExamined": "BRAIN",
      "Columns": 656,
      "EchoNumbers": 1,
      "EchoTime": 27.2,
      "EchoTrainLength": 82,
      "FlipAngle": 44.0,
      "HighBit": 15,
      "ImageOrientationPatient": [0.99971448794719, -0.0201664548825, 0.01281626645927, 0.0211155583291, 0.99666417058028, -0.0788331420024],
      "ImagePositionPatient": [-897.00768355843, -878.79033467316, -10.011509526111],
      "ImageType": [
        "ORIGINAL",
        "PRIMARY",
        "M",
        "MB",
        "ND",
        "NORM",
        "MOSAIC"
],
      "ImagedNucleus": "1H",
      "ImagingFrequency": 123.25911,
      "InPlanePhaseEncodingDirection": "COL",
      "MRAcquisitionType": "2D",
      "MagneticFieldStrength": 3.0,
      "Manufacturer": "SIEMENS",
      "ManufacturerModelName": "Prisma",
      "Modality": "MR",
      "NumberOfAverages": 1.0,
      "NumberOfPhaseEncodingSteps": 82,
      "PercentPhaseFieldOfView": 100.0,
      "PercentSampling": 100.0,
      "PerformedProcedureStepStartTime": "211559.515000",
      "PhotometricInterpretation": "MONOCHROME2",
      "PixelBandwidth": 3050.0,
      "PixelRepresentation": 0,
      "PixelSpacing": [2.6829268932343, 2.6829268932343],
      "ProtocolName": "func_run-02_task-faces_acq-ap-mb8",
      "RepetitionTime": 460.0,
      "Rows": 656,
      "SAR": 0.09371904280614,
      "SamplesPerPixel": 1,
      "ScanOptions": "FS",
      "ScanningSequence": "EP",
      "SequenceName": "epfid2d1_82",
      "SequenceVariant": [
        "SK",
        "SS"
],
      "SeriesDescription": "func_run-02_task-faces_acq-ap-mb8",
      "SeriesNumber": 18,
      "SeriesTime": "220819.733000",
      "SliceLocation": -69.44348080126,
      "SliceThickness": 2.7000000476837,
      "SmallestImagePixelValue": 0,
      "SoftwareVersions": "syngo MR E11",
      "SpacingBetweenSlices": 2.7000000806164,
      "SpecificCharacterSet": "ISO_IR 100",
      "StudyID": "1",
      "StudyTime": "211559.459000",
      "TransmitCoilName": "Body",
      "VariableFlipAngleFlag": "N",
      "WindowCenterWidthExplanation": "Algo1"
    },
    "slices": {}
  },
  "time": {
    "samples": {
      "AcquisitionNumber": [1, 2, 3, 4, 5, 6, 7, 8, 9, 10, 11, 12, 13, 14, 15, 16, 17, 18, 19, 20, 21, 22, 23, 24, 25, 26, 27, 28, 29, 30, 31, 32, 33, 34, 35, 36, 37, 38, 39, 40, 41, 42, 43, 44, 45, 46, 47, 48, 49, 50, 51, 52, 53, 54, 55, 56, 57, 58, 59, 60, 61, 62, 63, 64, 65, 66, 67, 68, 69, 70, 71, 72, 73, 74, 75, 76, 77, 78, 79, 80, 81, 82, 83, 84, 85, 86, 87, 88, 89, 90, 91, 92, 93, 94, 95, 96, 97, 98, 99, 100, 101, 102, 103, 104, 105, 106, 107, 108, 109, 110, 111, 112, 113, 114, 115, 116, 117, 118, 119, 120, 121, 122, 123, 124, 125, 126, 127, 128, 129, 130, 131, 132, 133, 134, 135, 136, 137, 138, 139, 140, 141, 142, 143, 144, 145, 146, 147, 148, 149, 150, 151, 152, 153, 154, 155, 156, 157, 158, 159, 160, 161, 162, 163, 164, 165, 166, 167, 168, 169, 170, 171, 172, 173, 174, 175, 176, 177, 178, 179, 180, 181, 182, 183, 184, 185, 186, 187, 188, 189, 190, 191, 192, 193, 194, 195, 196, 197, 198, 199, 200, 201, 202, 203, 204, 205, 206, 207, 208, 209, 210, 211, 212, 213, 214, 215, 216, 217, 218, 219, 220, 221, 222, 223, 224, 225, 226, 227, 228, 229, 230, 231, 232, 233, 234, 235, 236, 237, 238, 239, 240, 241, 242, 243, 244, 245, 246, 247, 248, 249, 250, 251, 252, 253, 254, 255, 256, 257, 258, 259, 260, 261, 262, 263, 264, 265, 266, 267, 268, 269, 270, 271, 272, 273, 274, 275, 276, 277, 278, 279, 280, 281, 282, 283, 284, 285, 286, 287, 288, 289, 290, 291, 292, 293, 294, 295, 296, 297, 298, 299, 300, 301, 302, 303, 304, 305, 306, 307, 308, 309, 310, 311, 312, 313, 314, 315, 316, 317, 318, 319, 320, 321, 322, 323, 324, 325, 326, 327, 328, 329, 330, 331, 332, 333, 334, 335, 336, 337, 338, 339, 340, 341, 342, 343, 344, 345, 346, 347, 348, 349, 350, 351, 352, 353, 354, 355, 356, 357, 358, 359, 360, 361, 362, 363, 364, 365, 366, 367, 368, 369, 370, 371, 372, 373, 374, 375, 376, 377, 378, 379, 380, 381, 382, 383, 384, 385, 386, 387, 388, 389, 390, 391, 392, 393, 394, 395, 396, 397, 398, 399, 400, 401, 402, 403, 404, 405, 406, 407, 408, 409, 410, 411, 412, 413, 414, 415, 416, 417, 418, 419, 420, 421, 422, 423, 424, 425, 426, 427, 428, 429, 430, 431, 432, 433, 434, 435, 436, 437, 438, 439, 440, 441, 442, 443, 444, 445, 446, 447, 448, 449, 450, 451, 452, 453, 454, 455, 456, 457, 458, 459, 460, 461, 462, 463, 464, 465, 466, 467, 468, 469, 470, 471, 472, 473, 474, 475, 476, 477, 478, 479, 480, 481, 482, 483, 484, 485, 486, 487, 488, 489, 490, 491, 492, 493, 494, 495, 496, 497, 498, 499, 500, 501, 502, 503, 504, 505, 506, 507, 508, 509, 510, 511, 512, 513, 514, 515, 516, 517, 518, 519, 520, 521, 522, 523, 524, 525, 526, 527, 528, 529, 530, 531, 532, 533, 534, 535, 536, 537, 538, 539, 540, 541, 542, 543, 544, 545, 546, 547, 548, 549, 550, 551, 552, 553, 554, 555, 556, 557, 558, 559, 560, 561, 562, 563, 564, 565, 566, 567, 568, 569, 570, 571, 572, 573, 574, 575, 576, 577, 578, 579, 580, 581, 582, 583, 584, 585, 586, 587, 588, 589, 590, 591, 592, 593, 594, 595, 596, 597, 598, 599, 600, 601, 602, 603, 604, 605, 606, 607, 608, 609, 610, 611, 612, 613, 614, 615, 616, 617, 618, 619, 620, 621, 622, 623, 624, 625, 626, 627, 628, 629, 630, 631, 632, 633, 634, 635, 636, 637, 638, 639, 640, 641, 642, 643, 644, 645, 646, 647, 648, 649, 650, 651, 652, 653, 654, 655, 656, 657, 658, 659, 660, 661, 662, 663, 664, 665, 666, 667, 668, 669, 670, 671, 672, 673, 674, 675, 676, 677, 678, 679, 680, 681, 682, 683, 684, 685, 686, 687, 688, 689, 690, 691, 692, 693, 694, 695, 696, 697, 698, 699, 700, 701, 702, 703, 704, 705, 706, 707, 708, 709, 710, 711, 712, 713, 714, 715, 716, 717, 718, 719, 720, 721, 722, 723, 724, 725, 726, 727, 728, 729, 730, 731, 732, 733, 734, 735, 736, 737, 738, 739, 740, 741, 742, 743, 744, 745, 746, 747, 748, 749, 750, 751, 752, 753, 754, 755, 756, 757, 758, 759, 760, 761, 762, 763, 764, 765, 766, 767, 768, 769, 770, 771, 772, 773, 774, 775, 776, 777, 778, 779, 780, 781, 782, 783, 784, 785, 786, 787, 788, 789, 790, 791, 792, 793, 794, 795, 796, 797, 798, 799, 800, 801, 802, 803, 804, 805, 806, 807, 808, 809, 810, 811, 812, 813, 814, 815, 816, 817, 818, 819, 820, 821, 822, 823, 824, 825, 826, 827, 828, 829, 830, 831, 832, 833, 834, 835, 836, 837, 838, 839, 840, 841, 842, 843, 844, 845, 846, 847, 848, 849, 850, 851, 852, 853, 854, 855, 856, 857, 858, 859, 860, 861, 862, 863, 864, 865, 866, 867, 868, 869, 870, 871, 872, 873, 874, 875, 876, 877, 878, 879, 880, 881, 882, 883, 884, 885, 886, 887, 888, 889, 890, 891, 892, 893, 894, 895, 896, 897, 898, 899, 900, 901, 902, 903, 904, 905, 906, 907, 908, 909, 910, 911, 912, 913, 914],
      "AcquisitionTime": ["220804.247500", "220804.707500", "220805.167500", "220805.627500", "220806.087500", "220806.547500", "220807.007500", "220807.467500", "220807.927500", "220808.387500", "220808.847500", "220809.307500", "220809.767500", "220810.227500", "220810.687500", "220811.147500", "220811.607500", "220812.067500", "220812.527500", "220812.987500", "220813.447500", "220813.907500", "220814.367500", "220814.827500", "220815.287500", "220815.747500", "220816.207500", "220816.667500", "220817.127500", "220817.587500", "220818.047500", "220818.507500", "220818.967500", "220819.427500", "220819.887500", "220820.347500", "220820.807500", "220821.267500", "220821.727500", "220822.187500", "220822.647500", "220823.107500", "220823.567500", "220824.027500", "220824.487500", "220824.947500", "220825.407500", "220825.867500", "220826.327500", "220826.787500", "220827.247500", "220827.707500", "220828.167500", "220828.627500", "220829.087500", "220829.547500", "220830.007500", "220830.467500", "220830.927500", "220831.387500", "220831.847500", "220832.307500", "220832.767500", "220833.227500", "220833.687500", "220834.147500", "220834.607500", "220835.067500", "220835.527500", "220835.987500", "220836.447500", "220836.907500", "220837.367500", "220837.827500", "220838.287500", "220838.747500", "220839.207500", "220839.667500", "220840.127500", "220840.587500", "220841.047500", "220841.507500", "220841.967500", "220842.427500", "220842.887500", "220843.347500", "220843.807500", "220844.267500", "220844.727500", "220845.187500", "220845.647500", "220846.107500", "220846.567500", "220847.027500", "220847.487500", "220847.947500", "220848.407500", "220848.867500", "220849.327500", "220849.787500", "220850.247500", "220850.707500", "220851.167500", "220851.627500", "220852.087500", "220852.547500", "220853.007500", "220853.467500", "220853.927500", "220854.387500", "220854.847500", "220855.307500", "220855.767500", "220856.227500", "220856.687500", "220857.147500", "220857.607500", "220858.067500", "220858.527500", "220858.987500", "220859.447500", "220859.907500", "220900.367500", "220900.827500", "220901.287500", "220901.747500", "220902.207500", "220902.667500", "220903.127500", "220903.587500", "220904.047500", "220904.507500", "220904.967500", "220905.427500", "220905.887500", "220906.347500", "220906.807500", "220907.267500", "220907.727500", "220908.187500", "220908.647500", "220909.107500", "220909.567500", "220910.027500", "220910.487500", "220910.947500", "220911.407500", "220911.867500", "220912.327500", "220912.787500", "220913.247500", "220913.707500", "220914.167500", "220914.627500", "220915.087500", "220915.547500", "220916.007500", "220916.467500", "220916.927500", "220917.387500", "220917.847500", "220918.307500", "220918.767500", "220919.227500", "220919.687500", "220920.147500", "220920.607500", "220921.067500", "220921.527500", "220921.987500", "220922.447500", "220922.907500", "220923.367500", "220923.827500", "220924.287500", "220924.747500", "220925.207500", "220925.667500", "220926.127500", "220926.587500", "220927.047500", "220927.507500", "220927.967500", "220928.427500", "220928.887500", "220929.347500", "220929.807500", "220930.267500", "220930.727500", "220931.187500", "220931.647500", "220932.107500", "220932.567500", "220933.027500", "220933.487500", "220933.947500", "220934.407500", "220934.867500", "220935.327500", "220935.787500", "220936.247500", "220936.707500", "220937.167500", "220937.627500", "220938.087500", "220938.547500", "220939.007500", "220939.467500", "220939.927500", "220940.387500", "220940.847500", "220941.307500", "220941.767500", "220942.227500", "220942.687500", "220943.147500", "220943.607500", "220944.067500", "220944.527500", "220944.987500", "220945.447500", "220945.907500", "220946.367500", "220946.827500", "220947.287500", "220947.747500", "220948.207500", "220948.667500", "220949.127500", "220949.587500", "220950.047500", "220950.507500", "220950.967500", "220951.427500", "220951.887500", "220952.347500", "220952.807500", "220953.267500", "220953.727500", "220954.187500", "220954.647500", "220955.107500", "220955.567500", "220956.027500", "220956.487500", "220956.947500", "220957.407500", "220957.867500", "220958.327500", "220958.787500", "220959.247500", "220959.707500", "221000.167500", "221000.627500", "221001.087500", "221001.547500", "221002.007500", "221002.467500", "221002.927500", "221003.387500", "221003.847500", "221004.307500", "221004.767500", "221005.227500", "221005.687500", "221006.147500", "221006.607500", "221007.067500", "221007.527500", "221007.987500", "221008.447500", "221008.907500", "221009.367500", "221009.827500", "221010.287500", "221010.747500", "221011.207500", "221011.667500", "221012.127500", "221012.587500", "221013.047500", "221013.507500", "221013.967500", "221014.427500", "221014.887500", "221015.347500", "221015.807500", "221016.267500", "221016.727500", "221017.187500", "221017.647500", "221018.107500", "221018.567500", "221019.027500", "221019.487500", "221019.947500", "221020.407500", "221020.867500", "221021.327500", "221021.787500", "221022.247500", "221022.707500", "221023.167500", "221023.627500", "221024.087500", "221024.547500", "221025.007500", "221025.467500", "221025.927500", "221026.387500", "221026.847500", "221027.307500", "221027.767500", "221028.227500", "221028.687500", "221029.147500", "221029.607500", "221030.067500", "221030.527500", "221030.987500", "221031.447500", "221031.907500", "221032.367500", "221032.827500", "221033.287500", "221033.747500", "221034.207500", "221034.667500", "221035.127500", "221035.587500", "221036.047500", "221036.507500", "221036.967500", "221037.427500", "221037.887500", "221038.347500", "221038.807500", "221039.267500", "221039.727500", "221040.187500", "221040.647500", "221041.107500", "221041.567500", "221042.027500", "221042.487500", "221042.947500", "221043.407500", "221043.867500", "221044.327500", "221044.787500", "221045.247500", "221045.707500", "221046.167500", "221046.627500", "221047.087500", "221047.547500", "221048.007500", "221048.467500", "221048.927500", "221049.387500", "221049.847500", "221050.307500", "221050.767500", "221051.227500", "221051.687500", "221052.147500", "221052.607500", "221053.067500", "221053.527500", "221053.987500", "221054.447500", "221054.907500", "221055.367500", "221055.827500", "221056.287500", "221056.747500", "221057.207500", "221057.667500", "221058.127500", "221058.587500", "221059.047500", "221059.507500", "221059.967500", "221100.427500", "221100.887500", "221101.347500", "221101.807500", "221102.267500", "221102.727500", "221103.187500", "221103.647500", "221104.107500", "221104.567500", "221105.027500", "221105.487500", "221105.947500", "221106.407500", "221106.867500", "221107.327500", "221107.787500", "221108.247500", "221108.707500", "221109.167500", "221109.627500", "221110.087500", "221110.547500", "221111.007500", "221111.467500", "221111.927500", "221112.387500", "221112.847500", "221113.307500", "221113.767500", "221114.227500", "221114.687500", "221115.147500", "221115.607500", "221116.067500", "221116.527500", "221116.987500", "221117.447500", "221117.907500", "221118.367500", "221118.827500", "221119.287500", "221119.747500", "221120.207500", "221120.667500", "221121.127500", "221121.587500", "221122.047500", "221122.507500", "221122.967500", "221123.427500", "221123.887500", "221124.347500", "221124.807500", "221125.267500", "221125.727500", "221126.187500", "221126.647500", "221127.107500", "221127.567500", "221128.027500", "221128.487500", "221128.947500", "221129.407500", "221129.867500", "221130.327500", "221130.787500", "221131.247500", "221131.707500", "221132.167500", "221132.627500", "221133.087500", "221133.547500", "221134.007500", "221134.467500", "221134.927500", "221135.387500", "221135.847500", "221136.307500", "221136.767500", "221137.227500", "221137.687500", "221138.147500", "221138.607500", "221139.067500", "221139.527500", "221139.987500", "221140.447500", "221140.907500", "221141.367500", "221141.827500", "221142.287500", "221142.747500", "221143.207500", "221143.667500", "221144.127500", "221144.587500", "221145.047500", "221145.507500", "221145.967500", "221146.427500", "221146.887500", "221147.347500", "221147.807500", "221148.267500", "221148.727500", "221149.187500", "221149.647500", "221150.107500", "221150.567500", "221151.027500", "221151.487500", "221151.947500", "221152.407500", "221152.867500", "221153.327500", "221153.787500", "221154.247500", "221154.707500", "221155.167500", "221155.627500", "221156.087500", "221156.547500", "221157.007500", "221157.467500", "221157.927500", "221158.387500", "221158.847500", "221159.307500", "221159.767500", "221200.227500", "221200.687500", "221201.147500", "221201.607500", "221202.067500", "221202.527500", "221202.987500", "221203.447500", "221203.907500", "221204.367500", "221204.827500", "221205.287500", "221205.747500", "221206.207500", "221206.667500", "221207.127500", "221207.587500", "221208.047500", "221208.507500", "221208.967500", "221209.427500", "221209.887500", "221210.347500", "221210.807500", "221211.267500", "221211.727500", "221212.187500", "221212.647500", "221213.107500", "221213.567500", "221214.027500", "221214.487500", "221214.947500", "221215.407500", "221215.867500", "221216.327500", "221216.787500", "221217.247500", "221217.707500", "221218.167500", "221218.627500", "221219.087500", "221219.547500", "221220.007500", "221220.467500", "221220.927500", "221221.387500", "221221.847500", "221222.307500", "221222.767500", "221223.227500", "221223.687500", "221224.147500", "221224.607500", "221225.067500", "221225.527500", "221225.987500", "221226.447500", "221226.907500", "221227.367500", "221227.827500", "221228.287500", "221228.747500", "221229.207500", "221229.667500", "221230.127500", "221230.587500", "221231.047500", "221231.507500", "221231.967500", "221232.427500", "221232.887500", "221233.347500", "221233.807500", "221234.267500", "221234.727500", "221235.187500", "221235.647500", "221236.107500", "221236.567500", "221237.027500", "221237.487500", "221237.947500", "221238.407500", "221238.867500", "221239.327500", "221239.787500", "221240.247500", "221240.707500", "221241.167500", "221241.627500", "221242.087500", "221242.547500", "221243.007500", "221243.467500", "221243.927500", "221244.387500", "221244.847500", "221245.307500", "221245.767500", "221246.227500", "221246.687500", "221247.147500", "221247.607500", "221248.067500", "221248.527500", "221248.987500", "221249.447500", "221249.907500", "221250.367500", "221250.827500", "221251.287500", "221251.747500", "221252.207500", "221252.667500", "221253.127500", "221253.587500", "221254.047500", "221254.507500", "221254.967500", "221255.427500", "221255.887500", "221256.347500", "221256.807500", "221257.267500", "221257.727500", "221258.187500", "221258.647500", "221259.107500", "221259.567500", "221300.027500", "221300.487500", "221300.947500", "221301.407500", "221301.867500", "221302.327500", "221302.787500", "221303.247500", "221303.707500", "221304.167500", "221304.627500", "221305.087500", "221305.547500", "221306.007500", "221306.467500", "221306.927500", "221307.387500", "221307.847500", "221308.307500", "221308.767500", "221309.227500", "221309.687500", "221310.147500", "221310.607500", "221311.067500", "221311.527500", "221311.987500", "221312.447500", "221312.907500", "221313.367500", "221313.827500", "221314.287500", "221314.747500", "221315.207500", "221315.667500", "221316.127500", "221316.587500", "221317.047500", "221317.507500", "221317.967500", "221318.427500", "221318.887500", "221319.347500", "221319.807500", "221320.267500", "221320.727500", "221321.187500", "221321.647500", "221322.107500", "221322.567500", "221323.027500", "221323.487500", "221323.947500", "221324.407500", "221324.867500", "221325.327500", "221325.787500", "221326.247500", "221326.707500", "221327.167500", "221327.627500", "221328.087500", "221328.547500", "221329.007500", "221329.467500", "221329.927500", "221330.387500", "221330.847500", "221331.307500", "221331.767500", "221332.227500", "221332.687500", "221333.147500", "221333.607500", "221334.067500", "221334.527500", "221334.987500", "221335.447500", "221335.907500", "221336.367500", "221336.827500", "221337.287500", "221337.747500", "221338.207500", "221338.667500", "221339.127500", "221339.587500", "221340.047500", "221340.507500", "221340.967500", "221341.427500", "221341.887500", "221342.347500", "221342.807500", "221343.267500", "221343.727500", "221344.187500", "221344.647500", "221345.107500", "221345.567500", "221346.027500", "221346.487500", "221346.947500", "221347.407500", "221347.867500", "221348.327500", "221348.787500", "221349.247500", "221349.707500", "221350.167500", "221350.627500", "221351.087500", "221351.547500", "221352.007500", "221352.467500", "221352.927500", "221353.387500", "221353.847500", "221354.307500", "221354.767500", "221355.227500", "221355.687500", "221356.147500", "221356.607500", "221357.067500", "221357.527500", "221357.987500", "221358.447500", "221358.907500", "221359.367500", "221359.827500", "221400.287500", "221400.747500", "221401.207500", "221401.667500", "221402.127500", "221402.587500", "221403.047500", "221403.507500", "221403.967500", "221404.427500", "221404.887500", "221405.347500", "221405.807500", "221406.267500", "221406.727500", "221407.187500", "221407.647500", "221408.107500", "221408.567500", "221409.027500", "221409.487500", "221409.947500", "221410.407500", "221410.867500", "221411.327500", "221411.787500", "221412.247500", "221412.707500", "221413.167500", "221413.627500", "221414.087500", "221414.547500", "221415.007500", "221415.467500", "221415.927500", "221416.387500", "221416.847500", "221417.307500", "221417.767500", "221418.227500", "221418.687500", "221419.147500", "221419.607500", "221420.067500", "221420.527500", "221420.987500", "221421.447500", "221421.907500", "221422.367500", "221422.827500", "221423.287500", "221423.747500", "221424.207500", "221424.667500", "221425.127500", "221425.587500", "221426.047500", "221426.507500", "221426.967500", "221427.427500", "221427.887500", "221428.347500", "221428.807500", "221429.267500", "221429.727500", "221430.187500", "221430.647500", "221431.107500", "221431.567500", "221432.027500", "221432.487500", "221432.947500", "221433.407500", "221433.867500", "221434.327500", "221434.787500", "221435.247500", "221435.707500", "221436.167500", "221436.627500", "221437.087500", "221437.547500", "221438.007500", "221438.467500", "221438.927500", "221439.387500", "221439.847500", "221440.307500", "221440.767500", "221441.227500", "221441.687500", "221442.147500", "221442.607500", "221443.067500", "221443.527500", "221443.987500", "221444.447500", "221444.907500", "221445.367500", "221445.827500", "221446.287500", "221446.747500", "221447.207500", "221447.667500", "221448.127500", "221448.587500", "221449.047500", "221449.507500", "221449.967500", "221450.427500", "221450.887500", "221451.347500", "221451.807500", "221452.267500", "221452.727500", "221453.187500", "221453.647500", "221454.107500", "221454.567500", "221455.027500", "221455.487500", "221455.947500", "221456.407500", "221456.867500", "221457.327500", "221457.787500", "221458.247500", "221458.707500", "221459.167500", "221459.627500", "221500.087500", "221500.547500", "221501.007500", "221501.467500", "221501.927500", "221502.387500", "221502.847500", "221503.307500", "221503.767500", "221504.227500"],
