{
  "AcquisitionMatrixPE": 82,
  "AcquisitionNumber": 1,
  "AcquisitionTime": "22:00:27.332500",
  "BandwidthPerPixelPhaseEncode": 24.888,
  "BaseResolution": 82,
  "BodyPartExamined": "BRAIN",
  "ConsistencyInfo": "N4_VE11E_LATEST_20181129",
  "ConversionSoftware": "dcm2niix",
  "ConversionSoftwareVersion": "v1.0.20201102",
  "DerivedVendorReportedEchoSpacing": 0.00049,
  "DeviceSerialNumber": "66112",
  "DwellTime": 2e-06,
  "EchoTime": 0.0272,
  "EchoTrainLength": 82,
  "EffectiveEchoSpacing": 0.00049,
  "FlipAngle": 44,
  "ImageComments": "Unaliased MB8/PE3",
  "ImageOrientationPatientDICOM": [0.999714, -0.0201665, 0.0128163, 0.0211156, 0.996664, -0.0788331],
  "ImageType": [
    "ORIGINAL",
    "PRIMARY",
    "M",
    "MB",
    "ND",
    "NORM",
    "MOSAIC"
],
  "ImagingFrequency": 123.259,
  "InPlanePhaseEncodingDirectionDICOM": "COL",
  "InstitutionAddress": "Maynard 3,Hanover,NH,US,03755",
  "InstitutionName": "Dartmouth College - PBS",
  "InstitutionalDepartmentName": "Department",
  "MRAcquisitionType": "2D",
  "MagneticFieldStrength": 3,
  "Manufacturer": "Siemens",
  "ManufacturersModelName": "Prisma",
  "Modality": "MR",
  "MultibandAccelerationFactor": 8,
  "PartialFourier": 1,
  "PatientPosition": "HFS",
  "PercentPhaseFOV": 100,
  "PercentSampling": 100,
  "PhaseEncodingDirection": "j-",
  "PhaseEncodingSteps": 82,
  "PhaseResolution": 1,
  "PixelBandwidth": 3050,
  "ProcedureStepDescription": "Wager_Wager^1076_spacetop",
  "ProtocolName": "func_run-01_task-faces_acq-ap-mb8",
  "PulseSequenceDetails": "%CustomerSeq%\\cmrr_mbep2d_bold",
  "ReceiveCoilActiveElements": "HEA;HEP",
  "ReceiveCoilName": "Head_32",
  "ReconMatrixPE": 82,
  "RepetitionTime": 0.46,
  "SAR": 0.093719,
  "ScanOptions": "FS",
  "ScanningSequence": "EP",
  "SequenceName": "epfid2d1_82",
  "SequenceVariant": "SK\\SS",
  "SeriesDescription": "func_run-01_task-faces_acq-ap-mb8",
  "SeriesNumber": 16,
  "ShimSetting": [4242, -7752, -7284, 221, -120, 70, -49, 111],
  "SliceThickness": 2.7,
  "SliceTiming": [0, 0.25, 0.0625, 0.315, 0.125, 0.3775, 0.1875, 0, 0.25, 0.0625, 0.315, 0.125, 0.3775, 0.1875, 0, 0.25, 0.0625, 0.315, 0.125, 0.3775, 0.1875, 0, 0.25, 0.0625, 0.315, 0.125, 0.3775, 0.1875, 0, 0.25, 0.0625, 0.315, 0.125, 0.3775, 0.1875, 0, 0.25, 0.0625, 0.315, 0.125, 0.3775, 0.1875, 0, 0.25, 0.0625, 0.315, 0.125, 0.3775, 0.1875, 0, 0.25, 0.0625, 0.315, 0.125, 0.3775, 0.1875],
  "SoftwareVersions": "syngo MR E11",
  "SpacingBetweenSlices": 2.7,
  "StationName": "AWP66112",
  "TaskName": "faces",
  "TotalReadoutTime": 0.03969,
  "TxRefAmp": 227.42,
  "WipMemBlock": "69d9c963-f92f-497e-8c1f-f2ed9175f307||Sequence: R016 ve11e/master r/434b28f1; Aug  7 2019 18:53:46 by eja",
  "dcmmeta_affine": [
    [-2.6821608543395996, 0.05665149912238121, 0.030196068808436394, 106.3797607421875],
    [0.05410512536764145, 2.6739771366119385, -0.2135193943977356, -89.70507049560547],
    [0.03438510745763779, 0.2115035504102707, 2.6913747787475586, -77.9762954711914],
    [0.0, 0.0, 0.0, 1.0]
],
  "dcmmeta_reorient_transform": [
    [0.0, -1.0, 0.0, 81.0],
    [1.0, 0.0, 0.0, 0.0],
    [0.0, 0.0, 1.0, 0.0],
    [0.0, 0.0, 0.0, 1.0]
],
  "dcmmeta_shape": [82, 82, 56, 914],
  "dcmmeta_slice_dim": 2,
  "dcmmeta_version": 0.6,
  "global": {
    "const": {
      "AccessionNumber": "A004775",
      "AcquisitionMatrix": [82, 0, 0, 82],
      "AngioFlag": "N",
      "BitsAllocated": 16,
      "BitsStored": 16,
      "BodyPartExamined": "BRAIN",
      "Columns": 656,
      "EchoNumbers": 1,
      "EchoTime": 27.2,
      "EchoTrainLength": 82,
      "FlipAngle": 44.0,
      "HighBit": 15,
      "ImageOrientationPatient": [0.99971448794719, -0.0201664548825, 0.01281626645927, 0.0211155583291, 0.99666417058028, -0.0788331420024],
      "ImagePositionPatient": [-897.00768355843, -878.79033467316, -10.011509526111],
      "ImageType": [
        "ORIGINAL",
        "PRIMARY",
        "M",
        "MB",
        "ND",
        "NORM",
        "MOSAIC"
],
      "ImagedNucleus": "1H",
      "ImagingFrequency": 123.259104,
      "InPlanePhaseEncodingDirection": "COL",
      "MRAcquisitionType": "2D",
      "MagneticFieldStrength": 3.0,
      "Manufacturer": "SIEMENS",
      "ManufacturerModelName": "Prisma",
      "Modality": "MR",
      "NumberOfAverages": 1.0,
      "NumberOfPhaseEncodingSteps": 82,
      "PercentPhaseFieldOfView": 100.0,
      "PercentSampling": 100.0,
      "PerformedProcedureStepStartTime": "211559.515000",
      "PhotometricInterpretation": "MONOCHROME2",
      "PixelBandwidth": 3050.0,
      "PixelRepresentation": 0,
      "PixelSpacing": [2.6829268932343, 2.6829268932343],
      "ProtocolName": "func_run-01_task-faces_acq-ap-mb8",
      "RepetitionTime": 460.0,
      "Rows": 656,
      "SAR": 0.09371904280614,
      "SamplesPerPixel": 1,
      "ScanOptions": "FS",
      "ScanningSequence": "EP",
      "SequenceName": "epfid2d1_82",
      "SequenceVariant": [
        "SK",
        "SS"
],
      "SeriesDescription": "func_run-01_task-faces_acq-ap-mb8",
      "SeriesNumber": 16,
      "SeriesTime": "220047.120000",
      "SliceLocation": -69.44348080126,
      "SliceThickness": 2.7000000476837,
      "SmallestImagePixelValue": 0,
      "SoftwareVersions": "syngo MR E11",
      "SpacingBetweenSlices": 2.7000000806164,
      "SpecificCharacterSet": "ISO_IR 100",
      "StudyID": "1",
      "StudyTime": "211559.459000",
      "TransmitCoilName": "Body",
      "VariableFlipAngleFlag": "N",
      "WindowCenterWidthExplanation": "Algo1"
    },
    "slices": {}
  },
  "time": {
    "samples": {
      "AcquisitionNumber": [1, 2, 3, 4, 5, 6, 7, 8, 9, 10, 11, 12, 13, 14, 15, 16, 17, 18, 19, 20, 21, 22, 23, 24, 25, 26, 27, 28, 29, 30, 31, 32, 33, 34, 35, 36, 37, 38, 39, 40, 41, 42, 43, 44, 45, 46, 47, 48, 49, 50, 51, 52, 53, 54, 55, 56, 57, 58, 59, 60, 61, 62, 63, 64, 65, 66, 67, 68, 69, 70, 71, 72, 73, 74, 75, 76, 77, 78, 79, 80, 81, 82, 83, 84, 85, 86, 87, 88, 89, 90, 91, 92, 93, 94, 95, 96, 97, 98, 99, 100, 101, 102, 103, 104, 105, 106, 107, 108, 109, 110, 111, 112, 113, 114, 115, 116, 117, 118, 119, 120, 121, 122, 123, 124, 125, 126, 127, 128, 129, 130, 131, 132, 133, 134, 135, 136, 137, 138, 139, 140, 141, 142, 143, 144, 145, 146, 147, 148, 149, 150, 151, 152, 153, 154, 155, 156, 157, 158, 159, 160, 161, 162, 163, 164, 165, 166, 167, 168, 169, 170, 171, 172, 173, 174, 175, 176, 177, 178, 179, 180, 181, 182, 183, 184, 185, 186, 187, 188, 189, 190, 191, 192, 193, 194, 195, 196, 197, 198, 199, 200, 201, 202, 203, 204, 205, 206, 207, 208, 209, 210, 211, 212, 213, 214, 215, 216, 217, 218, 219, 220, 221, 222, 223, 224, 225, 226, 227, 228, 229, 230, 231, 232, 233, 234, 235, 236, 237, 238, 239, 240, 241, 242, 243, 244, 245, 246, 247, 248, 249, 250, 251, 252, 253, 254, 255, 256, 257, 258, 259, 260, 261, 262, 263, 264, 265, 266, 267, 268, 269, 270, 271, 272, 273, 274, 275, 276, 277, 278, 279, 280, 281, 282, 283, 284, 285, 286, 287, 288, 289, 290, 291, 292, 293, 294, 295, 296, 297, 298, 299, 300, 301, 302, 303, 304, 305, 306, 307, 308, 309, 310, 311, 312, 313, 314, 315, 316, 317, 318, 319, 320, 321, 322, 323, 324, 325, 326, 327, 328, 329, 330, 331, 332, 333, 334, 335, 336, 337, 338, 339, 340, 341, 342, 343, 344, 345, 346, 347, 348, 349, 350, 351, 352, 353, 354, 355, 356, 357, 358, 359, 360, 361, 362, 363, 364, 365, 366, 367, 368, 369, 370, 371, 372, 373, 374, 375, 376, 377, 378, 379, 380, 381, 382, 383, 384, 385, 386, 387, 388, 389, 390, 391, 392, 393, 394, 395, 396, 397, 398, 399, 400, 401, 402, 403, 404, 405, 406, 407, 408, 409, 410, 411, 412, 413, 414, 415, 416, 417, 418, 419, 420, 421, 422, 423, 424, 425, 426, 427, 428, 429, 430, 431, 432, 433, 434, 435, 436, 437, 438, 439, 440, 441, 442, 443, 444, 445, 446, 447, 448, 449, 450, 451, 452, 453, 454, 455, 456, 457, 458, 459, 460, 461, 462, 463, 464, 465, 466, 467, 468, 469, 470, 471, 472, 473, 474, 475, 476, 477, 478, 479, 480, 481, 482, 483, 484, 485, 486, 487, 488, 489, 490, 491, 492, 493, 494, 495, 496, 497, 498, 499, 500, 501, 502, 503, 504, 505, 506, 507, 508, 509, 510, 511, 512, 513, 514, 515, 516, 517, 518, 519, 520, 521, 522, 523, 524, 525, 526, 527, 528, 529, 530, 531, 532, 533, 534, 535, 536, 537, 538, 539, 540, 541, 542, 543, 544, 545, 546, 547, 548, 549, 550, 551, 552, 553, 554, 555, 556, 557, 558, 559, 560, 561, 562, 563, 564, 565, 566, 567, 568, 569, 570, 571, 572, 573, 574, 575, 576, 577, 578, 579, 580, 581, 582, 583, 584, 585, 586, 587, 588, 589, 590, 591, 592, 593, 594, 595, 596, 597, 598, 599, 600, 601, 602, 603, 604, 605, 606, 607, 608, 609, 610, 611, 612, 613, 614, 615, 616, 617, 618, 619, 620, 621, 622, 623, 624, 625, 626, 627, 628, 629, 630, 631, 632, 633, 634, 635, 636, 637, 638, 639, 640, 641, 642, 643, 644, 645, 646, 647, 648, 649, 650, 651, 652, 653, 654, 655, 656, 657, 658, 659, 660, 661, 662, 663, 664, 665, 666, 667, 668, 669, 670, 671, 672, 673, 674, 675, 676, 677, 678, 679, 680, 681, 682, 683, 684, 685, 686, 687, 688, 689, 690, 691, 692, 693, 694, 695, 696, 697, 698, 699, 700, 701, 702, 703, 704, 705, 706, 707, 708, 709, 710, 711, 712, 713, 714, 715, 716, 717, 718, 719, 720, 721, 722, 723, 724, 725, 726, 727, 728, 729, 730, 731, 732, 733, 734, 735, 736, 737, 738, 739, 740, 741, 742, 743, 744, 745, 746, 747, 748, 749, 750, 751, 752, 753, 754, 755, 756, 757, 758, 759, 760, 761, 762, 763, 764, 765, 766, 767, 768, 769, 770, 771, 772, 773, 774, 775, 776, 777, 778, 779, 780, 781, 782, 783, 784, 785, 786, 787, 788, 789, 790, 791, 792, 793, 794, 795, 796, 797, 798, 799, 800, 801, 802, 803, 804, 805, 806, 807, 808, 809, 810, 811, 812, 813, 814, 815, 816, 817, 818, 819, 820, 821, 822, 823, 824, 825, 826, 827, 828, 829, 830, 831, 832, 833, 834, 835, 836, 837, 838, 839, 840, 841, 842, 843, 844, 845, 846, 847, 848, 849, 850, 851, 852, 853, 854, 855, 856, 857, 858, 859, 860, 861, 862, 863, 864, 865, 866, 867, 868, 869, 870, 871, 872, 873, 874, 875, 876, 877, 878, 879, 880, 881, 882, 883, 884, 885, 886, 887, 888, 889, 890, 891, 892, 893, 894, 895, 896, 897, 898, 899, 900, 901, 902, 903, 904, 905, 906, 907, 908, 909, 910, 911, 912, 913, 914],
      "AcquisitionTime": ["220027.332500", "220027.792500", "220028.252500", "220028.712500", "220029.172500", "220029.632500", "220030.092500", "220030.552500", "220031.012500", "220031.472500", "220031.932500", "220032.392500", "220032.852500", "220033.312500", "220033.772500", "220034.232500", "220034.692500", "220035.152500", "220035.612500", "220036.072500", "220036.532500", "220036.992500", "220037.452500", "220037.912500", "220038.372500", "220038.832500", "220039.292500", "220039.752500", "220040.212500", "220040.672500", "220041.132500", "220041.592500", "220042.052500", "220042.512500", "220042.972500", "220043.432500", "220043.892500", "220044.352500", "220044.812500", "220045.272500", "220045.732500", "220046.192500", "220046.652500", "220047.112500", "220047.572500", "220048.032500", "220048.492500", "220048.952500", "220049.412500", "220049.872500", "220050.332500", "220050.792500", "220051.252500", "220051.712500", "220052.172500", "220052.632500", "220053.092500", "220053.552500", "220054.012500", "220054.472500", "220054.932500", "220055.392500", "220055.852500", "220056.312500", "220056.772500", "220057.232500", "220057.692500", "220058.152500", "220058.612500", "220059.072500", "220059.532500", "220059.992500", "220100.452500", "220100.912500", "220101.372500", "220101.832500", "220102.292500", "220102.752500", "220103.212500", "220103.672500", "220104.132500", "220104.592500", "220105.052500", "220105.512500", "220105.972500", "220106.432500", "220106.892500", "220107.352500", "220107.812500", "220108.272500", "220108.732500", "220109.192500", "220109.652500", "220110.112500", "220110.572500", "220111.032500", "220111.492500", "220111.952500", "220112.412500", "220112.872500", "220113.332500", "220113.792500", "220114.252500", "220114.712500", "220115.172500", "220115.632500", "220116.092500", "220116.552500", "220117.012500", "220117.472500", "220117.932500", "220118.392500", "220118.852500", "220119.312500", "220119.772500", "220120.232500", "220120.692500", "220121.152500", "220121.612500", "220122.072500", "220122.532500", "220122.992500", "220123.452500", "220123.912500", "220124.372500", "220124.832500", "220125.292500", "220125.752500", "220126.212500", "220126.672500", "220127.132500", "220127.592500", "220128.052500", "220128.512500", "220128.972500", "220129.432500", "220129.892500", "220130.352500", "220130.812500", "220131.272500", "220131.732500", "220132.192500", "220132.652500", "220133.112500", "220133.572500", "220134.032500", "220134.492500", "220134.952500", "220135.412500", "220135.872500", "220136.332500", "220136.792500", "220137.252500", "220137.712500", "220138.172500", "220138.632500", "220139.092500", "220139.552500", "220140.012500", "220140.472500", "220140.932500", "220141.392500", "220141.852500", "220142.312500", "220142.772500", "220143.232500", "220143.692500", "220144.152500", "220144.612500", "220145.072500", "220145.532500", "220145.992500", "220146.452500", "220146.912500", "220147.372500", "220147.832500", "220148.292500", "220148.752500", "220149.212500", "220149.672500", "220150.132500", "220150.592500", "220151.052500", "220151.512500", "220151.972500", "220152.432500", "220152.892500", "220153.352500", "220153.812500", "220154.272500", "220154.732500", "220155.192500", "220155.652500", "220156.112500", "220156.572500", "220157.032500", "220157.492500", "220157.952500", "220158.412500", "220158.872500", "220159.332500", "220159.792500", "220200.252500", "220200.712500", "220201.172500", "220201.632500", "220202.092500", "220202.552500", "220203.012500", "220203.472500", "220203.932500", "220204.392500", "220204.852500", "220205.312500", "220205.772500", "220206.232500", "220206.692500", "220207.152500", "220207.612500", "220208.072500", "220208.532500", "220208.992500", "220209.452500", "220209.912500", "220210.372500", "220210.832500", "220211.292500", "220211.752500", "220212.212500", "220212.672500", "220213.132500", "220213.592500", "220214.052500", "220214.512500", "220214.972500", "220215.432500", "220215.892500", "220216.352500", "220216.812500", "220217.272500", "220217.732500", "220218.192500", "220218.652500", "220219.112500", "220219.572500", "220220.032500", "220220.492500", "220220.952500", "220221.412500", "220221.872500", "220222.332500", "220222.792500", "220223.252500", "220223.712500", "220224.172500", "220224.632500", "220225.092500", "220225.552500", "220226.012500", "220226.472500", "220226.932500", "220227.392500", "220227.852500", "220228.312500", "220228.772500", "220229.232500", "220229.692500", "220230.152500", "220230.612500", "220231.072500", "220231.532500", "220231.992500", "220232.452500", "220232.912500", "220233.372500", "220233.832500", "220234.292500", "220234.752500", "220235.212500", "220235.672500", "220236.132500", "220236.592500", "220237.052500", "220237.512500", "220237.972500", "220238.432500", "220238.892500", "220239.352500", "220239.812500", "220240.272500", "220240.732500", "220241.192500", "220241.652500", "220242.112500", "220242.572500", "220243.032500", "220243.492500", "220243.952500", "220244.412500", "220244.872500", "220245.332500", "220245.792500", "220246.252500", "220246.712500", "220247.172500", "220247.632500", "220248.092500", "220248.552500", "220249.012500", "220249.472500", "220249.932500", "220250.392500", "220250.852500", "220251.312500", "220251.772500", "220252.232500", "220252.692500", "220253.152500", "220253.612500", "220254.072500", "220254.532500", "220254.992500", "220255.452500", "220255.912500", "220256.372500", "220256.832500", "220257.292500", "220257.752500", "220258.212500", "220258.672500", "220259.132500", "220259.592500", "220300.052500", "220300.512500", "220300.972500", "220301.432500", "220301.892500", "220302.352500", "220302.812500", "220303.272500", "220303.732500", "220304.192500", "220304.652500", "220305.112500", "220305.572500", "220306.032500", "220306.492500", "220306.952500", "220307.412500", "220307.872500", "220308.332500", "220308.792500", "220309.252500", "220309.712500", "220310.172500", "220310.632500", "220311.092500", "220311.552500", "220312.012500", "220312.472500", "220312.932500", "220313.392500", "220313.852500", "220314.312500", "220314.772500", "220315.232500", "220315.692500", "220316.152500", "220316.612500", "220317.072500", "220317.532500", "220317.992500", "220318.452500", "220318.912500", "220319.372500", "220319.832500", "220320.292500", "220320.752500", "220321.212500", "220321.672500", "220322.132500", "220322.592500", "220323.052500", "220323.512500", "220323.972500", "220324.432500", "220324.892500", "220325.352500", "220325.812500", "220326.272500", "220326.732500", "220327.192500", "220327.652500", "220328.112500", "220328.572500", "220329.032500", "220329.492500", "220329.952500", "220330.412500", "220330.872500", "220331.332500", "220331.792500", "220332.252500", "220332.712500", "220333.172500", "220333.632500", "220334.092500", "220334.552500", "220335.012500", "220335.472500", "220335.932500", "220336.392500", "220336.852500", "220337.312500", "220337.772500", "220338.232500", "220338.692500", "220339.152500", "220339.612500", "220340.072500", "220340.532500", "220340.992500", "220341.452500", "220341.912500", "220342.372500", "220342.832500", "220343.292500", "220343.752500", "220344.212500", "220344.672500", "220345.132500", "220345.592500", "220346.052500", "220346.512500", "220346.972500", "220347.432500", "220347.892500", "220348.352500", "220348.812500", "220349.272500", "220349.732500", "220350.192500", "220350.652500", "220351.112500", "220351.572500", "220352.032500", "220352.492500", "220352.952500", "220353.412500", "220353.872500", "220354.332500", "220354.792500", "220355.252500", "220355.712500", "220356.172500", "220356.632500", "220357.092500", "220357.552500", "220358.012500", "220358.472500", "220358.932500", "220359.392500", "220359.852500", "220400.312500", "220400.772500", "220401.232500", "220401.692500", "220402.152500", "220402.612500", "220403.072500", "220403.532500", "220403.992500", "220404.452500", "220404.912500", "220405.372500", "220405.832500", "220406.292500", "220406.752500", "220407.212500", "220407.672500", "220408.132500", "220408.592500", "220409.052500", "220409.512500", "220409.972500", "220410.432500", "220410.892500", "220411.352500", "220411.812500", "220412.272500", "220412.732500", "220413.192500", "220413.652500", "220414.112500", "220414.572500", "220415.032500", "220415.492500", "220415.952500", "220416.412500", "220416.872500", "220417.332500", "220417.792500", "220418.252500", "220418.712500", "220419.172500", "220419.632500", "220420.092500", "220420.552500", "220421.012500", "220421.472500", "220421.932500", "220422.392500", "220422.852500", "220423.312500", "220423.772500", "220424.232500", "220424.692500", "220425.152500", "220425.612500", "220426.072500", "220426.532500", "220426.992500", "220427.452500", "220427.912500", "220428.372500", "220428.832500", "220429.292500", "220429.752500", "220430.212500", "220430.672500", "220431.132500", "220431.592500", "220432.052500", "220432.512500", "220432.972500", "220433.432500", "220433.892500", "220434.352500", "220434.812500", "220435.272500", "220435.732500", "220436.192500", "220436.652500", "220437.112500", "220437.572500", "220438.032500", "220438.492500", "220438.952500", "220439.412500", "220439.872500", "220440.332500", "220440.792500", "220441.252500", "220441.712500", "220442.172500", "220442.632500", "220443.092500", "220443.552500", "220444.012500", "220444.472500", "220444.932500", "220445.392500", "220445.852500", "220446.312500", "220446.772500", "220447.232500", "220447.692500", "220448.152500", "220448.612500", "220449.072500", "220449.532500", "220449.992500", "220450.452500", "220450.912500", "220451.372500", "220451.832500", "220452.292500", "220452.752500", "220453.212500", "220453.672500", "220454.132500", "220454.592500", "220455.052500", "220455.512500", "220455.972500", "220456.432500", "220456.892500", "220457.352500", "220457.812500", "220458.272500", "220458.732500", "220459.192500", "220459.652500", "220500.112500", "220500.572500", "220501.032500", "220501.492500", "220501.952500", "220502.412500", "220502.872500", "220503.332500", "220503.792500", "220504.252500", "220504.712500", "220505.172500", "220505.632500", "220506.092500", "220506.552500", "220507.012500", "220507.472500", "220507.932500", "220508.392500", "220508.852500", "220509.312500", "220509.772500", "220510.232500", "220510.692500", "220511.152500", "220511.612500", "220512.072500", "220512.532500", "220512.992500", "220513.452500", "220513.912500", "220514.372500", "220514.832500", "220515.292500", "220515.752500", "220516.212500", "220516.672500", "220517.132500", "220517.592500", "220518.052500", "220518.512500", "220518.972500", "220519.432500", "220519.892500", "220520.352500", "220520.812500", "220521.272500", "220521.732500", "220522.192500", "220522.652500", "220523.112500", "220523.572500", "220524.032500", "220524.492500", "220524.952500", "220525.412500", "220525.872500", "220526.332500", "220526.792500", "220527.252500", "220527.712500", "220528.172500", "220528.632500", "220529.092500", "220529.552500", "220530.012500", "220530.472500", "220530.932500", "220531.392500", "220531.852500", "220532.312500", "220532.772500", "220533.232500", "220533.692500", "220534.152500", "220534.612500", "220535.072500", "220535.532500", "220535.992500", "220536.452500", "220536.912500", "220537.372500", "220537.832500", "220538.292500", "220538.752500", "220539.212500", "220539.672500", "220540.132500", "220540.592500", "220541.052500", "220541.512500", "220541.972500", "220542.432500", "220542.892500", "220543.352500", "220543.812500", "220544.272500", "220544.732500", "220545.192500", "220545.652500", "220546.112500", "220546.572500", "220547.032500", "220547.492500", "220547.952500", "220548.412500", "220548.872500", "220549.332500", "220549.792500", "220550.252500", "220550.712500", "220551.172500", "220551.632500", "220552.092500", "220552.552500", "220553.012500", "220553.472500", "220553.932500", "220554.392500", "220554.852500", "220555.312500", "220555.772500", "220556.232500", "220556.692500", "220557.152500", "220557.612500", "220558.072500", "220558.532500", "220558.992500", "220559.452500", "220559.912500", "220600.372500", "220600.832500", "220601.292500", "220601.752500", "220602.212500", "220602.672500", "220603.132500", "220603.592500", "220604.052500", "220604.512500", "220604.972500", "220605.432500", "220605.892500", "220606.352500", "220606.812500", "220607.272500", "220607.732500", "220608.192500", "220608.652500", "220609.112500", "220609.572500", "220610.032500", "220610.492500", "220610.952500", "220611.412500", "220611.872500", "220612.332500", "220612.792500", "220613.252500", "220613.712500", "220614.172500", "220614.632500", "220615.092500", "220615.552500", "220616.012500", "220616.472500", "220616.932500", "220617.392500", "220617.852500", "220618.312500", "220618.772500", "220619.232500", "220619.692500", "220620.152500", "220620.612500", "220621.072500", "220621.532500", "220621.992500", "220622.452500", "220622.912500", "220623.372500", "220623.832500", "220624.292500", "220624.752500", "220625.212500", "220625.672500", "220626.132500", "220626.592500", "220627.052500", "220627.512500", "220627.972500", "220628.432500", "220628.892500", "220629.352500", "220629.812500", "220630.272500", "220630.732500", "220631.192500", "220631.652500", "220632.112500", "220632.572500", "220633.032500", "220633.492500", "220633.952500", "220634.412500", "220634.872500", "220635.332500", "220635.792500", "220636.252500", "220636.712500", "220637.172500", "220637.632500", "220638.092500", "220638.552500", "220639.012500", "220639.472500", "220639.932500", "220640.392500", "220640.852500", "220641.312500", "220641.772500", "220642.232500", "220642.692500", "220643.152500", "220643.612500", "220644.072500", "220644.532500", "220644.992500", "220645.452500", "220645.912500", "220646.372500", "220646.832500", "220647.292500", "220647.752500", "220648.212500", "220648.672500", "220649.132500", "220649.592500", "220650.052500", "220650.512500", "220650.972500", "220651.432500", "220651.892500", "220652.352500", "220652.812500", "220653.272500", "220653.732500", "220654.192500", "220654.652500", "220655.112500", "220655.572500", "220656.032500", "220656.492500", "220656.952500", "220657.412500", "220657.872500", "220658.332500", "220658.792500", "220659.252500", "220659.712500", "220700.172500", "220700.632500", "220701.092500", "220701.552500", "220702.012500", "220702.472500", "220702.932500", "220703.392500", "220703.852500", "220704.312500", "220704.772500", "220705.232500", "220705.692500", "220706.152500", "220706.612500", "220707.072500", "220707.532500", "220707.992500", "220708.452500", "220708.912500", "220709.372500", "220709.832500", "220710.292500", "220710.752500", "220711.212500", "220711.672500", "220712.132500", "220712.592500", "220713.052500", "220713.512500", "220713.972500", "220714.432500", "220714.892500", "220715.352500", "220715.812500", "220716.272500", "220716.732500", "220717.192500", "220717.652500", "220718.112500", "220718.572500", "220719.032500", "220719.492500", "220719.952500", "220720.412500", "220720.872500", "220721.332500", "220721.792500", "220722.252500", "220722.712500", "220723.172500", "220723.632500", "220724.092500", "220724.552500", "220725.012500", "220725.472500", "220725.932500", "220726.392500", "220726.852500", "220727.312500"],
