{
  "AcquisitionMatrixPE": 82,
  "AcquisitionNumber": 1,
  "AcquisitionTime": "20:02:10.102500",
  "BandwidthPerPixelPhaseEncode": 24.888,
  "BaseResolution": 82,
  "BodyPartExamined": "BRAIN",
  "ConsistencyInfo": "N4_VE11E_LATEST_20181129",
  "ConversionSoftware": "dcm2niix",
  "ConversionSoftwareVersion": "v1.0.20201102",
  "DerivedVendorReportedEchoSpacing": 0.00049,
  "DeviceSerialNumber": "66112",
  "DwellTime": 2e-06,
  "EchoTime": 0.0272,
  "EchoTrainLength": 82,
  "EffectiveEchoSpacing": 0.00049,
  "FlipAngle": 44,
  "ImageComments": "Unaliased MB8/PE3",
  "ImageOrientationPatientDICOM": [0.998512, 0.0477707, 0.0263089, -0.0491847, 0.997217, 0.0560195],
  "ImageType": [
    "ORIGINAL",
    "PRIMARY",
    "M",
    "MB",
    "ND",
    "NORM",
    "MOSAIC"
],
  "ImagingFrequency": 123.259,
  "InPlanePhaseEncodingDirectionDICOM": "COL",
  "InstitutionAddress": "Maynard 3,Hanover,NH,US,03755",
  "InstitutionName": "Dartmouth College - PBS",
  "InstitutionalDepartmentName": "Department",
  "MRAcquisitionType": "2D",
  "MagneticFieldStrength": 3,
  "Manufacturer": "Siemens",
  "ManufacturersModelName": "Prisma",
  "Modality": "MR",
  "MultibandAccelerationFactor": 8,
  "PartialFourier": 1,
  "PatientPosition": "HFS",
  "PercentPhaseFOV": 100,
  "PercentSampling": 100,
  "PhaseEncodingDirection": "j-",
  "PhaseEncodingSteps": 82,
  "PhaseResolution": 1,
  "PixelBandwidth": 3050,
  "ProcedureStepDescription": "Wager_Wager^1076_spacetop",
  "ProtocolName": "func_run-01_task-alignvideo_acq-ap-mb8",
  "PulseSequenceDetails": "%CustomerSeq%\\cmrr_mbep2d_bold",
  "ReceiveCoilActiveElements": "HEA;HEP",
  "ReceiveCoilName": "Head_32",
  "ReconMatrixPE": 82,
  "RepetitionTime": 0.46,
  "SAR": 0.105362,
  "ScanOptions": "FS",
  "ScanningSequence": "EP",
  "SequenceName": "epfid2d1_82",
  "SequenceVariant": "SK\\SS",
  "SeriesDescription": "func_run-01_task-alignvideo_acq-ap-mb8",
  "SeriesNumber": 30,
  "ShimSetting": [4217, -7810, -7215, 5, -126, -166, -51, 125],
  "SliceThickness": 2.7,
  "SliceTiming": [0, 0.25, 0.0625, 0.315, 0.125, 0.3775, 0.1875, 0, 0.25, 0.0625, 0.315, 0.125, 0.3775, 0.1875, 0, 0.25, 0.0625, 0.315, 0.125, 0.3775, 0.1875, 0, 0.25, 0.0625, 0.315, 0.125, 0.3775, 0.1875, 0, 0.25, 0.0625, 0.315, 0.125, 0.3775, 0.1875, 0, 0.25, 0.0625, 0.315, 0.125, 0.3775, 0.1875, 0, 0.25, 0.0625, 0.315, 0.125, 0.3775, 0.1875, 0, 0.25, 0.0625, 0.315, 0.125, 0.3775, 0.1875],
  "SoftwareVersions": "syngo MR E11",
  "SpacingBetweenSlices": 2.7,
  "StationName": "AWP66112",
  "TaskName": "alignvideo",
  "TotalReadoutTime": 0.03969,
  "TxRefAmp": 289.95,
  "WipMemBlock": "7a5ef524-c8eb-481b-9613-9304890d46d9||Sequence: R016 ve11e/master r/434b28f1; Aug  7 2019 18:53:46 by eja",
  "dcmmeta_affine": [
    [-2.678934097290039, -0.13195906579494476, 0.06361088901758194, 120.06111145019531],
    [-0.12816517055034637, 2.675461530685425, 0.15452148020267487, -81.6273422241211],
    [0.07058481127023697, -0.15029634535312653, 2.694823980331421, -70.61946105957031],
    [0.0, 0.0, 0.0, 1.0]
],
  "dcmmeta_reorient_transform": [
    [0.0, -1.0, 0.0, 81.0],
    [1.0, 0.0, 0.0, 0.0],
    [0.0, 0.0, 1.0, 0.0],
    [0.0, 0.0, 0.0, 1.0]
],
  "dcmmeta_shape": [82, 82, 56, 1073],
  "dcmmeta_slice_dim": 2,
  "dcmmeta_version": 0.6,
  "global": {
    "const": {
      "AccessionNumber": "A004818",
      "AcquisitionMatrix": [82, 0, 0, 82],
      "AngioFlag": "N",
      "BitsAllocated": 16,
      "BitsStored": 16,
      "BodyPartExamined": "BRAIN",
      "Columns": 656,
      "EchoNumbers": 1,
      "EchoTime": 27.2,
      "EchoTrainLength": 82,
      "FlipAngle": 44.0,
      "HighBit": 15,
      "ImageOrientationPatient": [0.99851179623221, 0.04777065426225, 0.02630888398396, -0.049184739429, 0.99721746457074, 0.05601954803819],
      "ImagePositionPatient": [-840.35428109164, -939.72591331477, -146.18635711188],
      "ImageType": [
        "ORIGINAL",
        "PRIMARY",
        "M",
        "MB",
        "ND",
        "NORM",
        "MOSAIC"
],
      "ImagedNucleus": "1H",
      "ImagingFrequency": 123.259023,
      "InPlanePhaseEncodingDirection": "COL",
      "MRAcquisitionType": "2D",
      "MagneticFieldStrength": 3.0,
      "Manufacturer": "SIEMENS",
      "ManufacturerModelName": "Prisma",
      "Modality": "MR",
      "NumberOfAverages": 1.0,
      "NumberOfPhaseEncodingSteps": 82,
      "PercentPhaseFieldOfView": 100.0,
      "PercentSampling": 100.0,
      "PerformedProcedureStepStartTime": "180928.663000",
      "PhotometricInterpretation": "MONOCHROME2",
      "PixelBandwidth": 3050.0,
      "PixelRepresentation": 0,
      "PixelSpacing": [2.6829268932343, 2.6829268932343],
      "ProtocolName": "func_run-01_task-alignvideo_acq-ap-mb8",
      "RepetitionTime": 460.0,
      "Rows": 656,
      "SAR": 0.10536158938989,
      "SamplesPerPixel": 1,
      "ScanOptions": "FS",
      "ScanningSequence": "EP",
      "SequenceName": "epfid2d1_82",
      "SequenceVariant": [
        "SK",
        "SS"
],
      "SeriesDescription": "func_run-01_task-alignvideo_acq-ap-mb8",
      "SeriesNumber": 30,
      "SeriesTime": "200222.853000",
      "SliceLocation": -72.327036912162,
      "SliceThickness": 2.7000000476837,
      "SmallestImagePixelValue": 0,
      "SoftwareVersions": "syngo MR E11",
      "SpacingBetweenSlices": 2.7000000105489,
      "SpecificCharacterSet": "ISO_IR 100",
      "StudyID": "1",
      "StudyTime": "180928.555000",
      "TransmitCoilName": "Body",
      "VariableFlipAngleFlag": "N",
      "WindowCenterWidthExplanation": "Algo1"
    },
    "slices": {}
  },
  "time": {
    "samples": {
      "AcquisitionNumber": [1, 2, 3, 4, 5, 6, 7, 8, 9, 10, 11, 12, 13, 14, 15, 16, 17, 18, 19, 20, 21, 22, 23, 24, 25, 26, 27, 28, 29, 30, 31, 32, 33, 34, 35, 36, 37, 38, 39, 40, 41, 42, 43, 44, 45, 46, 47, 48, 49, 50, 51, 52, 53, 54, 55, 56, 57, 58, 59, 60, 61, 62, 63, 64, 65, 66, 67, 68, 69, 70, 71, 72, 73, 74, 75, 76, 77, 78, 79, 80, 81, 82, 83, 84, 85, 86, 87, 88, 89, 90, 91, 92, 93, 94, 95, 96, 97, 98, 99, 100, 101, 102, 103, 104, 105, 106, 107, 108, 109, 110, 111, 112, 113, 114, 115, 116, 117, 118, 119, 120, 121, 122, 123, 124, 125, 126, 127, 128, 129, 130, 131, 132, 133, 134, 135, 136, 137, 138, 139, 140, 141, 142, 143, 144, 145, 146, 147, 148, 149, 150, 151, 152, 153, 154, 155, 156, 157, 158, 159, 160, 161, 162, 163, 164, 165, 166, 167, 168, 169, 170, 171, 172, 173, 174, 175, 176, 177, 178, 179, 180, 181, 182, 183, 184, 185, 186, 187, 188, 189, 190, 191, 192, 193, 194, 195, 196, 197, 198, 199, 200, 201, 202, 203, 204, 205, 206, 207, 208, 209, 210, 211, 212, 213, 214, 215, 216, 217, 218, 219, 220, 221, 222, 223, 224, 225, 226, 227, 228, 229, 230, 231, 232, 233, 234, 235, 236, 237, 238, 239, 240, 241, 242, 243, 244, 245, 246, 247, 248, 249, 250, 251, 252, 253, 254, 255, 256, 257, 258, 259, 260, 261, 262, 263, 264, 265, 266, 267, 268, 269, 270, 271, 272, 273, 274, 275, 276, 277, 278, 279, 280, 281, 282, 283, 284, 285, 286, 287, 288, 289, 290, 291, 292, 293, 294, 295, 296, 297, 298, 299, 300, 301, 302, 303, 304, 305, 306, 307, 308, 309, 310, 311, 312, 313, 314, 315, 316, 317, 318, 319, 320, 321, 322, 323, 324, 325, 326, 327, 328, 329, 330, 331, 332, 333, 334, 335, 336, 337, 338, 339, 340, 341, 342, 343, 344, 345, 346, 347, 348, 349, 350, 351, 352, 353, 354, 355, 356, 357, 358, 359, 360, 361, 362, 363, 364, 365, 366, 367, 368, 369, 370, 371, 372, 373, 374, 375, 376, 377, 378, 379, 380, 381, 382, 383, 384, 385, 386, 387, 388, 389, 390, 391, 392, 393, 394, 395, 396, 397, 398, 399, 400, 401, 402, 403, 404, 405, 406, 407, 408, 409, 410, 411, 412, 413, 414, 415, 416, 417, 418, 419, 420, 421, 422, 423, 424, 425, 426, 427, 428, 429, 430, 431, 432, 433, 434, 435, 436, 437, 438, 439, 440, 441, 442, 443, 444, 445, 446, 447, 448, 449, 450, 451, 452, 453, 454, 455, 456, 457, 458, 459, 460, 461, 462, 463, 464, 465, 466, 467, 468, 469, 470, 471, 472, 473, 474, 475, 476, 477, 478, 479, 480, 481, 482, 483, 484, 485, 486, 487, 488, 489, 490, 491, 492, 493, 494, 495, 496, 497, 498, 499, 500, 501, 502, 503, 504, 505, 506, 507, 508, 509, 510, 511, 512, 513, 514, 515, 516, 517, 518, 519, 520, 521, 522, 523, 524, 525, 526, 527, 528, 529, 530, 531, 532, 533, 534, 535, 536, 537, 538, 539, 540, 541, 542, 543, 544, 545, 546, 547, 548, 549, 550, 551, 552, 553, 554, 555, 556, 557, 558, 559, 560, 561, 562, 563, 564, 565, 566, 567, 568, 569, 570, 571, 572, 573, 574, 575, 576, 577, 578, 579, 580, 581, 582, 583, 584, 585, 586, 587, 588, 589, 590, 591, 592, 593, 594, 595, 596, 597, 598, 599, 600, 601, 602, 603, 604, 605, 606, 607, 608, 609, 610, 611, 612, 613, 614, 615, 616, 617, 618, 619, 620, 621, 622, 623, 624, 625, 626, 627, 628, 629, 630, 631, 632, 633, 634, 635, 636, 637, 638, 639, 640, 641, 642, 643, 644, 645, 646, 647, 648, 649, 650, 651, 652, 653, 654, 655, 656, 657, 658, 659, 660, 661, 662, 663, 664, 665, 666, 667, 668, 669, 670, 671, 672, 673, 674, 675, 676, 677, 678, 679, 680, 681, 682, 683, 684, 685, 686, 687, 688, 689, 690, 691, 692, 693, 694, 695, 696, 697, 698, 699, 700, 701, 702, 703, 704, 705, 706, 707, 708, 709, 710, 711, 712, 713, 714, 715, 716, 717, 718, 719, 720, 721, 722, 723, 724, 725, 726, 727, 728, 729, 730, 731, 732, 733, 734, 735, 736, 737, 738, 739, 740, 741, 742, 743, 744, 745, 746, 747, 748, 749, 750, 751, 752, 753, 754, 755, 756, 757, 758, 759, 760, 761, 762, 763, 764, 765, 766, 767, 768, 769, 770, 771, 772, 773, 774, 775, 776, 777, 778, 779, 780, 781, 782, 783, 784, 785, 786, 787, 788, 789, 790, 791, 792, 793, 794, 795, 796, 797, 798, 799, 800, 801, 802, 803, 804, 805, 806, 807, 808, 809, 810, 811, 812, 813, 814, 815, 816, 817, 818, 819, 820, 821, 822, 823, 824, 825, 826, 827, 828, 829, 830, 831, 832, 833, 834, 835, 836, 837, 838, 839, 840, 841, 842, 843, 844, 845, 846, 847, 848, 849, 850, 851, 852, 853, 854, 855, 856, 857, 858, 859, 860, 861, 862, 863, 864, 865, 866, 867, 868, 869, 870, 871, 872, 873, 874, 875, 876, 877, 878, 879, 880, 881, 882, 883, 884, 885, 886, 887, 888, 889, 890, 891, 892, 893, 894, 895, 896, 897, 898, 899, 900, 901, 902, 903, 904, 905, 906, 907, 908, 909, 910, 911, 912, 913, 914, 915, 916, 917, 918, 919, 920, 921, 922, 923, 924, 925, 926, 927, 928, 929, 930, 931, 932, 933, 934, 935, 936, 937, 938, 939, 940, 941, 942, 943, 944, 945, 946, 947, 948, 949, 950, 951, 952, 953, 954, 955, 956, 957, 958, 959, 960, 961, 962, 963, 964, 965, 966, 967, 968, 969, 970, 971, 972, 973, 974, 975, 976, 977, 978, 979, 980, 981, 982, 983, 984, 985, 986, 987, 988, 989, 990, 991, 992, 993, 994, 995, 996, 997, 998, 999, 1000, 1001, 1002, 1003, 1004, 1005, 1006, 1007, 1008, 1009, 1010, 1011, 1012, 1013, 1014, 1015, 1016, 1017, 1018, 1019, 1020, 1021, 1022, 1023, 1024, 1025, 1026, 1027, 1028, 1029, 1030, 1031, 1032, 1033, 1034, 1035, 1036, 1037, 1038, 1039, 1040, 1041, 1042, 1043, 1044, 1045, 1046, 1047, 1048, 1049, 1050, 1051, 1052, 1053, 1054, 1055, 1056, 1057, 1058, 1059, 1060, 1061, 1062, 1063, 1064, 1065, 1066, 1067, 1068, 1069, 1070, 1071, 1072, 1073],
      "AcquisitionTime": ["200210.102500", "200210.562500", "200211.022500", "200211.482500", "200211.942500", "200212.402500", "200212.862500", "200213.322500", "200213.782500", "200214.242500", "200214.702500", "200215.162500", "200215.622500", "200216.082500", "200216.542500", "200217.002500", "200217.462500", "200217.922500", "200218.382500", "200218.842500", "200219.302500", "200219.762500", "200220.222500", "200220.682500", "200221.142500", "200221.602500", "200222.062500", "200222.522500", "200222.982500", "200223.442500", "200223.902500", "200224.362500", "200224.822500", "200225.282500", "200225.742500", "200226.202500", "200226.662500", "200227.122500", "200227.582500", "200228.042500", "200228.502500", "200228.962500", "200229.422500", "200229.882500", "200230.342500", "200230.802500", "200231.262500", "200231.722500", "200232.182500", "200232.642500", "200233.102500", "200233.562500", "200234.022500", "200234.482500", "200234.942500", "200235.402500", "200235.862500", "200236.322500", "200236.782500", "200237.242500", "200237.702500", "200238.162500", "200238.622500", "200239.082500", "200239.542500", "200240.002500", "200240.462500", "200240.922500", "200241.382500", "200241.842500", "200242.302500", "200242.762500", "200243.222500", "200243.682500", "200244.142500", "200244.602500", "200245.062500", "200245.522500", "200245.982500", "200246.442500", "200246.902500", "200247.362500", "200247.822500", "200248.282500", "200248.742500", "200249.202500", "200249.662500", "200250.122500", "200250.582500", "200251.042500", "200251.502500", "200251.962500", "200252.422500", "200252.882500", "200253.342500", "200253.802500", "200254.262500", "200254.722500", "200255.182500", "200255.642500", "200256.102500", "200256.562500", "200257.022500", "200257.482500", "200257.942500", "200258.402500", "200258.862500", "200259.322500", "200259.782500", "200300.242500", "200300.702500", "200301.162500", "200301.622500", "200302.082500", "200302.542500", "200303.002500", "200303.462500", "200303.922500", "200304.382500", "200304.842500", "200305.302500", "200305.762500", "200306.222500", "200306.682500", "200307.142500", "200307.602500", "200308.062500", "200308.522500", "200308.982500", "200309.442500", "200309.902500", "200310.362500", "200310.822500", "200311.282500", "200311.742500", "200312.202500", "200312.662500", "200313.122500", "200313.582500", "200314.042500", "200314.502500", "200314.962500", "200315.422500", "200315.882500", "200316.342500", "200316.802500", "200317.262500", "200317.722500", "200318.182500", "200318.642500", "200319.102500", "200319.562500", "200320.022500", "200320.482500", "200320.942500", "200321.402500", "200321.862500", "200322.322500", "200322.782500", "200323.242500", "200323.702500", "200324.162500", "200324.622500", "200325.082500", "200325.542500", "200326.002500", "200326.462500", "200326.922500", "200327.382500", "200327.842500", "200328.302500", "200328.762500", "200329.222500", "200329.682500", "200330.142500", "200330.602500", "200331.062500", "200331.522500", "200331.982500", "200332.442500", "200332.902500", "200333.362500", "200333.822500", "200334.282500", "200334.742500", "200335.202500", "200335.662500", "200336.122500", "200336.582500", "200337.042500", "200337.502500", "200337.962500", "200338.422500", "200338.882500", "200339.342500", "200339.802500", "200340.262500", "200340.722500", "200341.182500", "200341.642500", "200342.102500", "200342.562500", "200343.022500", "200343.482500", "200343.942500", "200344.402500", "200344.862500", "200345.322500", "200345.782500", "200346.242500", "200346.702500", "200347.162500", "200347.622500", "200348.082500", "200348.542500", "200349.002500", "200349.462500", "200349.922500", "200350.382500", "200350.842500", "200351.302500", "200351.762500", "200352.222500", "200352.682500", "200353.142500", "200353.602500", "200354.062500", "200354.522500", "200354.982500", "200355.442500", "200355.902500", "200356.362500", "200356.822500", "200357.282500", "200357.742500", "200358.202500", "200358.662500", "200359.122500", "200359.582500", "200400.042500", "200400.502500", "200400.962500", "200401.422500", "200401.882500", "200402.342500", "200402.802500", "200403.262500", "200403.722500", "200404.182500", "200404.642500", "200405.102500", "200405.562500", "200406.022500", "200406.482500", "200406.942500", "200407.402500", "200407.862500", "200408.322500", "200408.782500", "200409.242500", "200409.702500", "200410.162500", "200410.622500", "200411.082500", "200411.542500", "200412.002500", "200412.462500", "200412.922500", "200413.382500", "200413.842500", "200414.302500", "200414.762500", "200415.222500", "200415.682500", "200416.142500", "200416.602500", "200417.062500", "200417.522500", "200417.982500", "200418.442500", "200418.902500", "200419.362500", "200419.822500", "200420.282500", "200420.742500", "200421.202500", "200421.662500", "200422.122500", "200422.582500", "200423.042500", "200423.502500", "200423.962500", "200424.422500", "200424.882500", "200425.342500", "200425.802500", "200426.262500", "200426.722500", "200427.182500", "200427.642500", "200428.102500", "200428.562500", "200429.022500", "200429.482500", "200429.942500", "200430.402500", "200430.862500", "200431.322500", "200431.782500", "200432.242500", "200432.702500", "200433.162500", "200433.622500", "200434.082500", "200434.542500", "200435.002500", "200435.462500", "200435.922500", "200436.382500", "200436.842500", "200437.302500", "200437.762500", "200438.222500", "200438.682500", "200439.142500", "200439.602500", "200440.062500", "200440.522500", "200440.982500", "200441.442500", "200441.902500", "200442.362500", "200442.822500", "200443.282500", "200443.742500", "200444.202500", "200444.662500", "200445.122500", "200445.582500", "200446.042500", "200446.502500", "200446.962500", "200447.422500", "200447.882500", "200448.342500", "200448.802500", "200449.262500", "200449.722500", "200450.182500", "200450.642500", "200451.102500", "200451.562500", "200452.022500", "200452.482500", "200452.942500", "200453.402500", "200453.862500", "200454.322500", "200454.782500", "200455.242500", "200455.702500", "200456.162500", "200456.622500", "200457.082500", "200457.542500", "200458.002500", "200458.462500", "200458.922500", "200459.382500", "200459.842500", "200500.302500", "200500.762500", "200501.222500", "200501.682500", "200502.142500", "200502.602500", "200503.062500", "200503.522500", "200503.982500", "200504.442500", "200504.902500", "200505.362500", "200505.822500", "200506.282500", "200506.742500", "200507.202500", "200507.662500", "200508.122500", "200508.582500", "200509.042500", "200509.502500", "200509.962500", "200510.422500", "200510.882500", "200511.342500", "200511.802500", "200512.262500", "200512.722500", "200513.182500", "200513.642500", "200514.102500", "200514.562500", "200515.022500", "200515.482500", "200515.942500", "200516.402500", "200516.862500", "200517.322500", "200517.782500", "200518.242500", "200518.702500", "200519.162500", "200519.622500", "200520.082500", "200520.542500", "200521.002500", "200521.462500", "200521.922500", "200522.382500", "200522.842500", "200523.302500", "200523.762500", "200524.222500", "200524.682500", "200525.142500", "200525.602500", "200526.062500", "200526.522500", "200526.982500", "200527.442500", "200527.902500", "200528.362500", "200528.822500", "200529.282500", "200529.742500", "200530.202500", "200530.662500", "200531.122500", "200531.582500", "200532.042500", "200532.502500", "200532.962500", "200533.422500", "200533.882500", "200534.342500", "200534.802500", "200535.262500", "200535.722500", "200536.182500", "200536.642500", "200537.102500", "200537.562500", "200538.022500", "200538.482500", "200538.942500", "200539.402500", "200539.862500", "200540.322500", "200540.782500", "200541.242500", "200541.702500", "200542.162500", "200542.622500", "200543.082500", "200543.542500", "200544.002500", "200544.462500", "200544.922500", "200545.382500", "200545.842500", "200546.302500", "200546.762500", "200547.222500", "200547.682500", "200548.142500", "200548.602500", "200549.062500", "200549.522500", "200549.982500", "200550.442500", "200550.902500", "200551.362500", "200551.822500", "200552.282500", "200552.742500", "200553.202500", "200553.662500", "200554.122500", "200554.582500", "200555.042500", "200555.502500", "200555.962500", "200556.422500", "200556.882500", "200557.342500", "200557.802500", "200558.262500", "200558.722500", "200559.182500", "200559.642500", "200600.102500", "200600.562500", "200601.022500", "200601.482500", "200601.942500", "200602.402500", "200602.862500", "200603.322500", "200603.782500", "200604.242500", "200604.702500", "200605.162500", "200605.622500", "200606.082500", "200606.542500", "200607.002500", "200607.462500", "200607.922500", "200608.382500", "200608.842500", "200609.302500", "200609.762500", "200610.222500", "200610.682500", "200611.142500", "200611.602500", "200612.062500", "200612.522500", "200612.982500", "200613.442500", "200613.902500", "200614.362500", "200614.822500", "200615.282500", "200615.742500", "200616.202500", "200616.662500", "200617.122500", "200617.582500", "200618.042500", "200618.502500", "200618.962500", "200619.422500", "200619.882500", "200620.342500", "200620.802500", "200621.262500", "200621.722500", "200622.182500", "200622.642500", "200623.102500", "200623.562500", "200624.022500", "200624.482500", "200624.942500", "200625.402500", "200625.862500", "200626.322500", "200626.782500", "200627.242500", "200627.702500", "200628.162500", "200628.622500", "200629.082500", "200629.542500", "200630.002500", "200630.462500", "200630.922500", "200631.382500", "200631.842500", "200632.302500", "200632.762500", "200633.222500", "200633.682500", "200634.142500", "200634.602500", "200635.062500", "200635.522500", "200635.982500", "200636.442500", "200636.902500", "200637.362500", "200637.822500", "200638.282500", "200638.742500", "200639.202500", "200639.662500", "200640.122500", "200640.582500", "200641.042500", "200641.502500", "200641.962500", "200642.422500", "200642.882500", "200643.342500", "200643.802500", "200644.262500", "200644.722500", "200645.182500", "200645.642500", "200646.102500", "200646.562500", "200647.022500", "200647.482500", "200647.942500", "200648.402500", "200648.862500", "200649.322500", "200649.782500", "200650.242500", "200650.702500", "200651.162500", "200651.622500", "200652.082500", "200652.542500", "200653.002500", "200653.462500", "200653.922500", "200654.382500", "200654.842500", "200655.302500", "200655.762500", "200656.222500", "200656.682500", "200657.142500", "200657.602500", "200658.062500", "200658.522500", "200658.982500", "200659.442500", "200659.902500", "200700.362500", "200700.822500", "200701.282500", "200701.742500", "200702.202500", "200702.662500", "200703.122500", "200703.582500", "200704.042500", "200704.502500", "200704.962500", "200705.422500", "200705.882500", "200706.342500", "200706.802500", "200707.262500", "200707.722500", "200708.182500", "200708.642500", "200709.102500", "200709.562500", "200710.022500", "200710.482500", "200710.942500", "200711.402500", "200711.862500", "200712.322500", "200712.782500", "200713.242500", "200713.702500", "200714.162500", "200714.622500", "200715.082500", "200715.542500", "200716.002500", "200716.462500", "200716.922500", "200717.382500", "200717.842500", "200718.302500", "200718.762500", "200719.222500", "200719.682500", "200720.142500", "200720.602500", "200721.062500", "200721.522500", "200721.982500", "200722.442500", "200722.902500", "200723.362500", "200723.822500", "200724.282500", "200724.742500", "200725.202500", "200725.662500", "200726.122500", "200726.582500", "200727.042500", "200727.502500", "200727.962500", "200728.422500", "200728.882500", "200729.342500", "200729.802500", "200730.262500", "200730.722500", "200731.182500", "200731.642500", "200732.102500", "200732.562500", "200733.022500", "200733.482500", "200733.942500", "200734.402500", "200734.862500", "200735.322500", "200735.782500", "200736.242500", "200736.702500", "200737.162500", "200737.622500", "200738.082500", "200738.542500", "200739.002500", "200739.462500", "200739.922500", "200740.382500", "200740.842500", "200741.302500", "200741.762500", "200742.222500", "200742.682500", "200743.142500", "200743.602500", "200744.062500", "200744.522500", "200744.982500", "200745.442500", "200745.902500", "200746.362500", "200746.822500", "200747.282500", "200747.742500", "200748.202500", "200748.662500", "200749.122500", "200749.582500", "200750.042500", "200750.502500", "200750.962500", "200751.422500", "200751.882500", "200752.342500", "200752.802500", "200753.262500", "200753.722500", "200754.182500", "200754.642500", "200755.102500", "200755.562500", "200756.022500", "200756.482500", "200756.942500", "200757.402500", "200757.862500", "200758.322500", "200758.782500", "200759.242500", "200759.702500", "200800.162500", "200800.622500", "200801.082500", "200801.542500", "200802.002500", "200802.462500", "200802.922500", "200803.382500", "200803.842500", "200804.302500", "200804.762500", "200805.222500", "200805.682500", "200806.142500", "200806.602500", "200807.062500", "200807.522500", "200807.982500", "200808.442500", "200808.902500", "200809.362500", "200809.822500", "200810.282500", "200810.742500", "200811.202500", "200811.662500", "200812.122500", "200812.582500", "200813.042500", "200813.502500", "200813.962500", "200814.422500", "200814.882500", "200815.342500", "200815.802500", "200816.262500", "200816.722500", "200817.182500", "200817.642500", "200818.102500", "200818.562500", "200819.022500", "200819.482500", "200819.942500", "200820.402500", "200820.862500", "200821.322500", "200821.782500", "200822.242500", "200822.702500", "200823.162500", "200823.622500", "200824.082500", "200824.542500", "200825.002500", "200825.462500", "200825.922500", "200826.382500", "200826.842500", "200827.302500", "200827.762500", "200828.222500", "200828.682500", "200829.142500", "200829.602500", "200830.062500", "200830.522500", "200830.982500", "200831.442500", "200831.902500", "200832.362500", "200832.822500", "200833.282500", "200833.742500", "200834.202500", "200834.662500", "200835.122500", "200835.582500", "200836.042500", "200836.502500", "200836.962500", "200837.422500", "200837.882500", "200838.342500", "200838.802500", "200839.262500", "200839.722500", "200840.182500", "200840.642500", "200841.102500", "200841.562500", "200842.022500", "200842.482500", "200842.942500", "200843.402500", "200843.862500", "200844.322500", "200844.782500", "200845.242500", "200845.702500", "200846.162500", "200846.622500", "200847.082500", "200847.542500", "200848.002500", "200848.462500", "200848.922500", "200849.382500", "200849.842500", "200850.302500", "200850.762500", "200851.222500", "200851.682500", "200852.142500", "200852.602500", "200853.062500", "200853.522500", "200853.982500", "200854.442500", "200854.902500", "200855.362500", "200855.822500", "200856.282500", "200856.742500", "200857.202500", "200857.662500", "200858.122500", "200858.582500", "200859.042500", "200859.502500", "200859.962500", "200900.422500", "200900.882500", "200901.342500", "200901.802500", "200902.262500", "200902.722500", "200903.182500", "200903.642500", "200904.102500", "200904.562500", "200905.022500", "200905.482500", "200905.942500", "200906.402500", "200906.862500", "200907.322500", "200907.782500", "200908.242500", "200908.702500", "200909.162500", "200909.622500", "200910.082500", "200910.542500", "200911.002500", "200911.462500", "200911.922500", "200912.382500", "200912.842500", "200913.302500", "200913.762500", "200914.222500", "200914.682500", "200915.142500", "200915.602500", "200916.062500", "200916.522500", "200916.982500", "200917.442500", "200917.902500", "200918.362500", "200918.822500", "200919.282500", "200919.742500", "200920.202500", "200920.662500", "200921.122500", "200921.582500", "200922.042500", "200922.502500", "200922.962500", "200923.422500", "200923.882500", "200924.342500", "200924.802500", "200925.262500", "200925.722500", "200926.182500", "200926.642500", "200927.102500", "200927.562500", "200928.022500", "200928.482500", "200928.942500", "200929.402500", "200929.862500", "200930.322500", "200930.782500", "200931.242500", "200931.702500", "200932.162500", "200932.622500", "200933.082500", "200933.542500", "200934.002500", "200934.462500", "200934.922500", "200935.382500", "200935.842500", "200936.302500", "200936.762500", "200937.222500", "200937.682500", "200938.142500", "200938.602500", "200939.062500", "200939.522500", "200939.982500", "200940.442500", "200940.902500", "200941.362500", "200941.822500", "200942.282500", "200942.742500", "200943.202500", "200943.662500", "200944.122500", "200944.582500", "200945.042500", "200945.502500", "200945.962500", "200946.422500", "200946.882500", "200947.342500", "200947.802500", "200948.262500", "200948.722500", "200949.182500", "200949.642500", "200950.102500", "200950.562500", "200951.022500", "200951.482500", "200951.942500", "200952.402500", "200952.862500", "200953.322500", "200953.782500", "200954.242500", "200954.702500", "200955.162500", "200955.622500", "200956.082500", "200956.542500", "200957.002500", "200957.462500", "200957.922500", "200958.382500", "200958.842500", "200959.302500", "200959.762500", "201000.222500", "201000.682500", "201001.142500", "201001.602500", "201002.062500", "201002.522500", "201002.982500", "201003.442500", "201003.902500", "201004.362500", "201004.822500", "201005.282500", "201005.742500", "201006.202500", "201006.662500", "201007.122500", "201007.582500", "201008.042500", "201008.502500", "201008.962500", "201009.422500", "201009.882500", "201010.342500", "201010.802500", "201011.262500", "201011.722500", "201012.182500", "201012.642500", "201013.102500", "201013.562500", "201014.022500", "201014.482500", "201014.942500", "201015.402500", "201015.862500", "201016.322500", "201016.782500", "201017.242500", "201017.702500", "201018.162500", "201018.622500", "201019.082500", "201019.542500", "201020.002500", "201020.462500", "201020.922500", "201021.382500", "201021.842500", "201022.302500", "201022.762500", "201023.222500"],
