{
  "AcquisitionMatrixPE": 82,
  "AcquisitionNumber": 1,
  "AcquisitionTime": "13:47:24.270000",
  "BandwidthPerPixelPhaseEncode": 24.888,
  "BaseResolution": 82,
  "BodyPartExamined": "BRAIN",
  "ConsistencyInfo": "N4_VE11C_LATEST_20160120",
  "ConversionSoftware": "dcm2niix",
  "ConversionSoftwareVersion": "v1.0.20201102",
  "DerivedVendorReportedEchoSpacing": 0.00049,
  "DeviceSerialNumber": "66112",
  "DwellTime": 2e-06,
  "EchoTime": 0.0272,
  "EchoTrainLength": 82,
  "EffectiveEchoSpacing": 0.00049,
  "FlipAngle": 44,
  "ImageComments": "Unaliased MB8/PE3",
  "ImageOrientationPatientDICOM": [0.999526, -0.0100957, -0.0290721, 0.0134335, 0.99304, 0.117009],
  "ImageType": [
    "ORIGINAL",
    "PRIMARY",
    "M",
    "MB",
    "ND",
    "NORM",
    "MOSAIC"
],
  "ImagingFrequency": 123.252,
  "InPlanePhaseEncodingDirectionDICOM": "COL",
  "InstitutionAddress": "Maynard 3,Hanover,NH,US,03755",
  "InstitutionName": "Dartmouth College - PBS",
  "InstitutionalDepartmentName": "Department",
  "MRAcquisitionType": "2D",
  "MagneticFieldStrength": 3,
  "Manufacturer": "Siemens",
  "ManufacturersModelName": "Prisma",
  "Modality": "MR",
  "MultibandAccelerationFactor": 8,
  "PartialFourier": 1,
  "PatientPosition": "HFS",
  "PercentPhaseFOV": 100,
  "PercentSampling": 100,
  "PhaseEncodingDirection": "j-",
  "PhaseEncodingSteps": 82,
  "PhaseResolution": 1,
  "PixelBandwidth": 3050,
  "ProcedureStepDescription": "Wager_Wager^1076_spacetop",
  "ProtocolName": "func_run-01_task-alignvideo_acq-ap-mb8",
  "PulseSequenceDetails": "%CustomerSeq%\\cmrr_mbep2d_bold",
  "ReceiveCoilActiveElements": "HEA;HEP",
  "ReceiveCoilName": "Head_32",
  "ReconMatrixPE": 82,
  "RepetitionTime": 0.46,
  "SAR": 0.103637,
  "ScanOptions": "FS",
  "ScanningSequence": "EP",
  "SequenceName": "epfid2d1_82",
  "SequenceVariant": "SK\\SS",
  "SeriesDescription": "func_run-01_task-alignvideo_acq-ap-mb8",
  "SeriesNumber": 30,
  "ShimSetting": [4156, -7757, -7277, 567, -12, -39, 45, 83],
  "SliceThickness": 2.7,
  "SliceTiming": [0, 0.25, 0.0625, 0.3125, 0.125, 0.3775, 0.1875, 0, 0.25, 0.0625, 0.3125, 0.125, 0.3775, 0.1875, 0, 0.25, 0.0625, 0.3125, 0.125, 0.3775, 0.1875, 0, 0.25, 0.0625, 0.3125, 0.125, 0.3775, 0.1875, 0, 0.25, 0.0625, 0.3125, 0.125, 0.3775, 0.1875, 0, 0.25, 0.0625, 0.3125, 0.125, 0.3775, 0.1875, 0, 0.25, 0.0625, 0.3125, 0.125, 0.3775, 0.1875, 0, 0.25, 0.0625, 0.3125, 0.125, 0.3775, 0.1875],
  "SoftwareVersions": "syngo MR E11",
  "SpacingBetweenSlices": 2.7,
  "StationName": "AWP66112",
  "TaskName": "alignvideo",
  "TotalReadoutTime": 0.03969,
  "TxRefAmp": 242.849,
  "WipMemBlock": "b9e85557-a7ea-4862-8926-3f119cdfeed3||Sequence: R016 ve11c/master r/e634e98; Dec 19 2017 11:00:25 by eja",
  "dcmmeta_affine": [
    [-2.6816561222076416, 0.03604097291827202, -0.07475881278514862, 114.80985260009766],
    [0.02708595059812069, 2.6642537117004395, 0.3168281614780426, -101.72257995605469],
    [-0.07799824327230453, -0.3139256536960602, 2.6803042888641357, -48.0401496887207],
    [0.0, 0.0, 0.0, 1.0]
],
  "dcmmeta_reorient_transform": [
    [0.0, -1.0, 0.0, 81.0],
    [1.0, 0.0, 0.0, 0.0],
    [0.0, 0.0, 1.0, 0.0],
    [0.0, 0.0, 0.0, 1.0]
],
  "dcmmeta_shape": [82, 82, 56, 1073],
  "dcmmeta_slice_dim": 2,
  "dcmmeta_version": 0.6,
  "global": {
    "const": {
      "AccessionNumber": "A003445",
      "AcquisitionMatrix": [82, 0, 0, 82],
      "AngioFlag": "N",
      "BitsAllocated": 16,
      "BitsStored": 16,
      "BodyPartExamined": "BRAIN",
      "Columns": 656,
      "EchoNumbers": 1,
      "EchoTime": 27.2,
      "EchoTrainLength": 82,
      "FlipAngle": 44.0,
      "HighBit": 15,
      "ImageOrientationPatient": [0.9995263338565, -0.0100956723746, -0.0290720712488, 0.01343345379816, 0.9930400379806, 0.1170086547506],
      "ImagePositionPatient": [-897.70822373287, -870.9491598142, -141.17930030705],
      "ImageType": [
        "ORIGINAL",
        "PRIMARY",
        "M",
        "MB",
        "ND",
        "NORM",
        "MOSAIC"
],
      "ImagedNucleus": "1H",
      "ImagingFrequency": 123.252174,
      "InPlanePhaseEncodingDirection": "COL",
      "MRAcquisitionType": "2D",
      "MagneticFieldStrength": 3.0,
      "Manufacturer": "SIEMENS",
      "ManufacturerModelName": "Prisma",
      "Modality": "MR",
      "NumberOfAverages": 1.0,
      "NumberOfPhaseEncodingSteps": 82,
      "PercentPhaseFieldOfView": 100.0,
      "PercentSampling": 100.0,
      "PerformedProcedureStepStartTime": "115319.472000",
      "PhotometricInterpretation": "MONOCHROME2",
      "PixelBandwidth": 3050.0,
      "PixelRepresentation": 0,
      "PixelSpacing": [2.6829268932343, 2.6829268932343],
      "ProtocolName": "func_run-01_task-alignvideo_acq-ap-mb8",
      "RepetitionTime": 460.0,
      "Rows": 656,
      "SAR": 0.10363735294945,
      "SamplesPerPixel": 1,
      "ScanOptions": "FS",
      "ScanningSequence": "EP",
      "SequenceName": "epfid2d1_82",
      "SequenceVariant": [
        "SK",
        "SS"
],
      "SeriesDescription": "func_run-01_task-alignvideo_acq-ap-mb8",
      "SeriesNumber": 30,
      "SeriesTime": "134751.711000",
      "SliceLocation": -62.805129079214,
      "SliceThickness": 2.7000000476837,
      "SmallestImagePixelValue": 0,
      "SoftwareVersions": "syngo MR E11",
      "SpacingBetweenSlices": 2.6999999516351,
      "SpecificCharacterSet": "ISO_IR 100",
      "StudyID": "1",
      "StudyTime": "115319.404000",
      "TransmitCoilName": "Body",
      "VariableFlipAngleFlag": "N",
      "WindowCenterWidthExplanation": "Algo1",
      "dBdt": 0.0},
    "slices": {}
  },
  "time": {
    "samples": {
      "AcquisitionNumber": [1, 2, 3, 4, 5, 6, 7, 8, 9, 10, 11, 12, 13, 14, 15, 16, 17, 18, 19, 20, 21, 22, 23, 24, 25, 26, 27, 28, 29, 30, 31, 32, 33, 34, 35, 36, 37, 38, 39, 40, 41, 42, 43, 44, 45, 46, 47, 48, 49, 50, 51, 52, 53, 54, 55, 56, 57, 58, 59, 60, 61, 62, 63, 64, 65, 66, 67, 68, 69, 70, 71, 72, 73, 74, 75, 76, 77, 78, 79, 80, 81, 82, 83, 84, 85, 86, 87, 88, 89, 90, 91, 92, 93, 94, 95, 96, 97, 98, 99, 100, 101, 102, 103, 104, 105, 106, 107, 108, 109, 110, 111, 112, 113, 114, 115, 116, 117, 118, 119, 120, 121, 122, 123, 124, 125, 126, 127, 128, 129, 130, 131, 132, 133, 134, 135, 136, 137, 138, 139, 140, 141, 142, 143, 144, 145, 146, 147, 148, 149, 150, 151, 152, 153, 154, 155, 156, 157, 158, 159, 160, 161, 162, 163, 164, 165, 166, 167, 168, 169, 170, 171, 172, 173, 174, 175, 176, 177, 178, 179, 180, 181, 182, 183, 184, 185, 186, 187, 188, 189, 190, 191, 192, 193, 194, 195, 196, 197, 198, 199, 200, 201, 202, 203, 204, 205, 206, 207, 208, 209, 210, 211, 212, 213, 214, 215, 216, 217, 218, 219, 220, 221, 222, 223, 224, 225, 226, 227, 228, 229, 230, 231, 232, 233, 234, 235, 236, 237, 238, 239, 240, 241, 242, 243, 244, 245, 246, 247, 248, 249, 250, 251, 252, 253, 254, 255, 256, 257, 258, 259, 260, 261, 262, 263, 264, 265, 266, 267, 268, 269, 270, 271, 272, 273, 274, 275, 276, 277, 278, 279, 280, 281, 282, 283, 284, 285, 286, 287, 288, 289, 290, 291, 292, 293, 294, 295, 296, 297, 298, 299, 300, 301, 302, 303, 304, 305, 306, 307, 308, 309, 310, 311, 312, 313, 314, 315, 316, 317, 318, 319, 320, 321, 322, 323, 324, 325, 326, 327, 328, 329, 330, 331, 332, 333, 334, 335, 336, 337, 338, 339, 340, 341, 342, 343, 344, 345, 346, 347, 348, 349, 350, 351, 352, 353, 354, 355, 356, 357, 358, 359, 360, 361, 362, 363, 364, 365, 366, 367, 368, 369, 370, 371, 372, 373, 374, 375, 376, 377, 378, 379, 380, 381, 382, 383, 384, 385, 386, 387, 388, 389, 390, 391, 392, 393, 394, 395, 396, 397, 398, 399, 400, 401, 402, 403, 404, 405, 406, 407, 408, 409, 410, 411, 412, 413, 414, 415, 416, 417, 418, 419, 420, 421, 422, 423, 424, 425, 426, 427, 428, 429, 430, 431, 432, 433, 434, 435, 436, 437, 438, 439, 440, 441, 442, 443, 444, 445, 446, 447, 448, 449, 450, 451, 452, 453, 454, 455, 456, 457, 458, 459, 460, 461, 462, 463, 464, 465, 466, 467, 468, 469, 470, 471, 472, 473, 474, 475, 476, 477, 478, 479, 480, 481, 482, 483, 484, 485, 486, 487, 488, 489, 490, 491, 492, 493, 494, 495, 496, 497, 498, 499, 500, 501, 502, 503, 504, 505, 506, 507, 508, 509, 510, 511, 512, 513, 514, 515, 516, 517, 518, 519, 520, 521, 522, 523, 524, 525, 526, 527, 528, 529, 530, 531, 532, 533, 534, 535, 536, 537, 538, 539, 540, 541, 542, 543, 544, 545, 546, 547, 548, 549, 550, 551, 552, 553, 554, 555, 556, 557, 558, 559, 560, 561, 562, 563, 564, 565, 566, 567, 568, 569, 570, 571, 572, 573, 574, 575, 576, 577, 578, 579, 580, 581, 582, 583, 584, 585, 586, 587, 588, 589, 590, 591, 592, 593, 594, 595, 596, 597, 598, 599, 600, 601, 602, 603, 604, 605, 606, 607, 608, 609, 610, 611, 612, 613, 614, 615, 616, 617, 618, 619, 620, 621, 622, 623, 624, 625, 626, 627, 628, 629, 630, 631, 632, 633, 634, 635, 636, 637, 638, 639, 640, 641, 642, 643, 644, 645, 646, 647, 648, 649, 650, 651, 652, 653, 654, 655, 656, 657, 658, 659, 660, 661, 662, 663, 664, 665, 666, 667, 668, 669, 670, 671, 672, 673, 674, 675, 676, 677, 678, 679, 680, 681, 682, 683, 684, 685, 686, 687, 688, 689, 690, 691, 692, 693, 694, 695, 696, 697, 698, 699, 700, 701, 702, 703, 704, 705, 706, 707, 708, 709, 710, 711, 712, 713, 714, 715, 716, 717, 718, 719, 720, 721, 722, 723, 724, 725, 726, 727, 728, 729, 730, 731, 732, 733, 734, 735, 736, 737, 738, 739, 740, 741, 742, 743, 744, 745, 746, 747, 748, 749, 750, 751, 752, 753, 754, 755, 756, 757, 758, 759, 760, 761, 762, 763, 764, 765, 766, 767, 768, 769, 770, 771, 772, 773, 774, 775, 776, 777, 778, 779, 780, 781, 782, 783, 784, 785, 786, 787, 788, 789, 790, 791, 792, 793, 794, 795, 796, 797, 798, 799, 800, 801, 802, 803, 804, 805, 806, 807, 808, 809, 810, 811, 812, 813, 814, 815, 816, 817, 818, 819, 820, 821, 822, 823, 824, 825, 826, 827, 828, 829, 830, 831, 832, 833, 834, 835, 836, 837, 838, 839, 840, 841, 842, 843, 844, 845, 846, 847, 848, 849, 850, 851, 852, 853, 854, 855, 856, 857, 858, 859, 860, 861, 862, 863, 864, 865, 866, 867, 868, 869, 870, 871, 872, 873, 874, 875, 876, 877, 878, 879, 880, 881, 882, 883, 884, 885, 886, 887, 888, 889, 890, 891, 892, 893, 894, 895, 896, 897, 898, 899, 900, 901, 902, 903, 904, 905, 906, 907, 908, 909, 910, 911, 912, 913, 914, 915, 916, 917, 918, 919, 920, 921, 922, 923, 924, 925, 926, 927, 928, 929, 930, 931, 932, 933, 934, 935, 936, 937, 938, 939, 940, 941, 942, 943, 944, 945, 946, 947, 948, 949, 950, 951, 952, 953, 954, 955, 956, 957, 958, 959, 960, 961, 962, 963, 964, 965, 966, 967, 968, 969, 970, 971, 972, 973, 974, 975, 976, 977, 978, 979, 980, 981, 982, 983, 984, 985, 986, 987, 988, 989, 990, 991, 992, 993, 994, 995, 996, 997, 998, 999, 1000, 1001, 1002, 1003, 1004, 1005, 1006, 1007, 1008, 1009, 1010, 1011, 1012, 1013, 1014, 1015, 1016, 1017, 1018, 1019, 1020, 1021, 1022, 1023, 1024, 1025, 1026, 1027, 1028, 1029, 1030, 1031, 1032, 1033, 1034, 1035, 1036, 1037, 1038, 1039, 1040, 1041, 1042, 1043, 1044, 1045, 1046, 1047, 1048, 1049, 1050, 1051, 1052, 1053, 1054, 1055, 1056, 1057, 1058, 1059, 1060, 1061, 1062, 1063, 1064, 1065, 1066, 1067, 1068, 1069, 1070, 1071, 1072, 1073],
      "AcquisitionTime": ["134724.270000", "134724.730000", "134725.190000", "134725.650000", "134726.110000", "134726.570000", "134727.030000", "134727.490000", "134727.950000", "134728.410000", "134728.870000", "134729.330000", "134729.790000", "134730.250000", "134730.710000", "134731.170000", "134731.630000", "134732.090000", "134732.550000", "134733.010000", "134733.470000", "134733.930000", "134734.390000", "134734.850000", "134735.310000", "134735.770000", "134736.230000", "134736.690000", "134737.150000", "134737.610000", "134738.070000", "134738.530000", "134738.990000", "134739.450000", "134739.910000", "134740.370000", "134740.830000", "134741.290000", "134741.750000", "134742.210000", "134742.670000", "134743.130000", "134743.590000", "134744.050000", "134744.510000", "134744.970000", "134745.430000", "134745.890000", "134746.350000", "134746.810000", "134747.270000", "134747.730000", "134748.190000", "134748.650000", "134749.110000", "134749.570000", "134750.030000", "134750.490000", "134750.950000", "134751.410000", "134751.870000", "134752.330000", "134752.790000", "134753.250000", "134753.710000", "134754.170000", "134754.630000", "134755.090000", "134755.550000", "134756.010000", "134756.470000", "134756.930000", "134757.390000", "134757.850000", "134758.310000", "134758.770000", "134759.230000", "134759.690000", "134800.150000", "134800.610000", "134801.070000", "134801.530000", "134801.990000", "134802.450000", "134802.910000", "134803.370000", "134803.830000", "134804.290000", "134804.750000", "134805.210000", "134805.670000", "134806.130000", "134806.590000", "134807.050000", "134807.510000", "134807.970000", "134808.430000", "134808.890000", "134809.350000", "134809.810000", "134810.270000", "134810.730000", "134811.190000", "134811.650000", "134812.110000", "134812.570000", "134813.030000", "134813.490000", "134813.950000", "134814.410000", "134814.870000", "134815.330000", "134815.790000", "134816.250000", "134816.710000", "134817.170000", "134817.630000", "134818.090000", "134818.550000", "134819.010000", "134819.470000", "134819.930000", "134820.390000", "134820.850000", "134821.310000", "134821.770000", "134822.230000", "134822.690000", "134823.150000", "134823.610000", "134824.070000", "134824.530000", "134824.990000", "134825.450000", "134825.910000", "134826.370000", "134826.830000", "134827.290000", "134827.750000", "134828.210000", "134828.670000", "134829.130000", "134829.590000", "134830.050000", "134830.510000", "134830.970000", "134831.430000", "134831.890000", "134832.350000", "134832.810000", "134833.270000", "134833.730000", "134834.190000", "134834.650000", "134835.110000", "134835.570000", "134836.030000", "134836.490000", "134836.950000", "134837.410000", "134837.870000", "134838.330000", "134838.790000", "134839.250000", "134839.710000", "134840.170000", "134840.630000", "134841.090000", "134841.550000", "134842.010000", "134842.470000", "134842.930000", "134843.390000", "134843.850000", "134844.310000", "134844.770000", "134845.230000", "134845.690000", "134846.150000", "134846.610000", "134847.070000", "134847.530000", "134847.990000", "134848.450000", "134848.910000", "134849.370000", "134849.830000", "134850.290000", "134850.750000", "134851.210000", "134851.670000", "134852.130000", "134852.590000", "134853.050000", "134853.510000", "134853.970000", "134854.430000", "134854.890000", "134855.350000", "134855.810000", "134856.270000", "134856.730000", "134857.190000", "134857.650000", "134858.110000", "134858.570000", "134859.030000", "134859.490000", "134859.950000", "134900.410000", "134900.870000", "134901.330000", "134901.790000", "134902.250000", "134902.710000", "134903.170000", "134903.630000", "134904.090000", "134904.550000", "134905.010000", "134905.470000", "134905.930000", "134906.390000", "134906.850000", "134907.310000", "134907.770000", "134908.230000", "134908.690000", "134909.150000", "134909.610000", "134910.070000", "134910.530000", "134910.990000", "134911.450000", "134911.910000", "134912.370000", "134912.830000", "134913.290000", "134913.750000", "134914.210000", "134914.670000", "134915.130000", "134915.590000", "134916.050000", "134916.510000", "134916.970000", "134917.430000", "134917.890000", "134918.350000", "134918.810000", "134919.270000", "134919.730000", "134920.190000", "134920.650000", "134921.110000", "134921.570000", "134922.030000", "134922.490000", "134922.950000", "134923.410000", "134923.870000", "134924.330000", "134924.790000", "134925.250000", "134925.710000", "134926.170000", "134926.630000", "134927.090000", "134927.550000", "134928.010000", "134928.470000", "134928.930000", "134929.390000", "134929.850000", "134930.310000", "134930.770000", "134931.230000", "134931.690000", "134932.150000", "134932.610000", "134933.070000", "134933.530000", "134933.990000", "134934.450000", "134934.910000", "134935.370000", "134935.830000", "134936.290000", "134936.750000", "134937.210000", "134937.670000", "134938.130000", "134938.590000", "134939.050000", "134939.510000", "134939.970000", "134940.430000", "134940.890000", "134941.350000", "134941.810000", "134942.270000", "134942.730000", "134943.190000", "134943.650000", "134944.110000", "134944.570000", "134945.030000", "134945.490000", "134945.950000", "134946.410000", "134946.870000", "134947.330000", "134947.790000", "134948.250000", "134948.710000", "134949.170000", "134949.630000", "134950.090000", "134950.550000", "134951.010000", "134951.470000", "134951.930000", "134952.390000", "134952.850000", "134953.310000", "134953.770000", "134954.230000", "134954.690000", "134955.150000", "134955.610000", "134956.070000", "134956.530000", "134956.990000", "134957.450000", "134957.910000", "134958.370000", "134958.830000", "134959.290000", "134959.750000", "135000.210000", "135000.670000", "135001.130000", "135001.590000", "135002.050000", "135002.510000", "135002.970000", "135003.430000", "135003.890000", "135004.350000", "135004.810000", "135005.270000", "135005.730000", "135006.190000", "135006.650000", "135007.110000", "135007.570000", "135008.030000", "135008.490000", "135008.950000", "135009.410000", "135009.870000", "135010.330000", "135010.790000", "135011.250000", "135011.710000", "135012.170000", "135012.630000", "135013.090000", "135013.550000", "135014.010000", "135014.470000", "135014.930000", "135015.390000", "135015.850000", "135016.310000", "135016.770000", "135017.230000", "135017.690000", "135018.150000", "135018.610000", "135019.070000", "135019.530000", "135019.990000", "135020.450000", "135020.910000", "135021.370000", "135021.830000", "135022.290000", "135022.750000", "135023.210000", "135023.670000", "135024.130000", "135024.590000", "135025.050000", "135025.510000", "135025.970000", "135026.430000", "135026.890000", "135027.350000", "135027.810000", "135028.270000", "135028.730000", "135029.190000", "135029.650000", "135030.110000", "135030.570000", "135031.030000", "135031.490000", "135031.950000", "135032.410000", "135032.870000", "135033.330000", "135033.790000", "135034.250000", "135034.710000", "135035.170000", "135035.630000", "135036.090000", "135036.550000", "135037.010000", "135037.470000", "135037.930000", "135038.390000", "135038.850000", "135039.310000", "135039.770000", "135040.230000", "135040.690000", "135041.150000", "135041.610000", "135042.070000", "135042.530000", "135042.990000", "135043.450000", "135043.910000", "135044.370000", "135044.830000", "135045.290000", "135045.750000", "135046.210000", "135046.670000", "135047.130000", "135047.590000", "135048.050000", "135048.510000", "135048.970000", "135049.430000", "135049.890000", "135050.350000", "135050.810000", "135051.270000", "135051.730000", "135052.190000", "135052.650000", "135053.110000", "135053.570000", "135054.030000", "135054.490000", "135054.950000", "135055.410000", "135055.870000", "135056.330000", "135056.790000", "135057.250000", "135057.710000", "135058.170000", "135058.630000", "135059.090000", "135059.550000", "135100.010000", "135100.470000", "135100.930000", "135101.390000", "135101.850000", "135102.310000", "135102.770000", "135103.230000", "135103.690000", "135104.150000", "135104.610000", "135105.070000", "135105.530000", "135105.990000", "135106.450000", "135106.910000", "135107.370000", "135107.830000", "135108.290000", "135108.750000", "135109.210000", "135109.670000", "135110.130000", "135110.590000", "135111.050000", "135111.510000", "135111.970000", "135112.430000", "135112.890000", "135113.350000", "135113.810000", "135114.270000", "135114.730000", "135115.190000", "135115.650000", "135116.110000", "135116.570000", "135117.030000", "135117.490000", "135117.950000", "135118.410000", "135118.870000", "135119.330000", "135119.790000", "135120.250000", "135120.710000", "135121.170000", "135121.630000", "135122.090000", "135122.550000", "135123.010000", "135123.470000", "135123.930000", "135124.390000", "135124.850000", "135125.310000", "135125.770000", "135126.230000", "135126.690000", "135127.150000", "135127.610000", "135128.070000", "135128.530000", "135128.990000", "135129.450000", "135129.910000", "135130.370000", "135130.830000", "135131.290000", "135131.750000", "135132.210000", "135132.670000", "135133.130000", "135133.590000", "135134.050000", "135134.510000", "135134.970000", "135135.430000", "135135.890000", "135136.350000", "135136.810000", "135137.270000", "135137.730000", "135138.190000", "135138.650000", "135139.110000", "135139.570000", "135140.030000", "135140.490000", "135140.950000", "135141.410000", "135141.870000", "135142.330000", "135142.790000", "135143.250000", "135143.710000", "135144.170000", "135144.630000", "135145.090000", "135145.550000", "135146.010000", "135146.470000", "135146.930000", "135147.390000", "135147.850000", "135148.310000", "135148.770000", "135149.230000", "135149.690000", "135150.150000", "135150.610000", "135151.070000", "135151.530000", "135151.990000", "135152.450000", "135152.910000", "135153.370000", "135153.830000", "135154.290000", "135154.750000", "135155.210000", "135155.670000", "135156.130000", "135156.590000", "135157.050000", "135157.510000", "135157.970000", "135158.430000", "135158.890000", "135159.350000", "135159.810000", "135200.270000", "135200.730000", "135201.190000", "135201.650000", "135202.110000", "135202.570000", "135203.030000", "135203.490000", "135203.950000", "135204.410000", "135204.870000", "135205.330000", "135205.790000", "135206.250000", "135206.710000", "135207.170000", "135207.630000", "135208.090000", "135208.550000", "135209.010000", "135209.470000", "135209.930000", "135210.390000", "135210.850000", "135211.310000", "135211.770000", "135212.230000", "135212.690000", "135213.150000", "135213.610000", "135214.070000", "135214.530000", "135214.990000", "135215.450000", "135215.910000", "135216.370000", "135216.830000", "135217.290000", "135217.750000", "135218.210000", "135218.670000", "135219.130000", "135219.590000", "135220.050000", "135220.510000", "135220.970000", "135221.430000", "135221.890000", "135222.350000", "135222.810000", "135223.270000", "135223.730000", "135224.190000", "135224.650000", "135225.110000", "135225.570000", "135226.030000", "135226.490000", "135226.950000", "135227.410000", "135227.870000", "135228.330000", "135228.790000", "135229.250000", "135229.710000", "135230.170000", "135230.630000", "135231.090000", "135231.550000", "135232.010000", "135232.470000", "135232.930000", "135233.390000", "135233.850000", "135234.310000", "135234.770000", "135235.230000", "135235.690000", "135236.150000", "135236.610000", "135237.070000", "135237.530000", "135237.990000", "135238.450000", "135238.910000", "135239.370000", "135239.830000", "135240.290000", "135240.750000", "135241.210000", "135241.670000", "135242.130000", "135242.590000", "135243.050000", "135243.510000", "135243.970000", "135244.430000", "135244.890000", "135245.350000", "135245.810000", "135246.270000", "135246.730000", "135247.190000", "135247.650000", "135248.110000", "135248.570000", "135249.030000", "135249.490000", "135249.950000", "135250.410000", "135250.870000", "135251.330000", "135251.790000", "135252.250000", "135252.710000", "135253.170000", "135253.630000", "135254.090000", "135254.550000", "135255.010000", "135255.470000", "135255.930000", "135256.390000", "135256.850000", "135257.310000", "135257.770000", "135258.230000", "135258.690000", "135259.150000", "135259.610000", "135300.070000", "135300.530000", "135300.990000", "135301.450000", "135301.910000", "135302.370000", "135302.830000", "135303.290000", "135303.750000", "135304.210000", "135304.670000", "135305.130000", "135305.590000", "135306.050000", "135306.510000", "135306.970000", "135307.430000", "135307.890000", "135308.350000", "135308.810000", "135309.270000", "135309.730000", "135310.190000", "135310.650000", "135311.110000", "135311.570000", "135312.030000", "135312.490000", "135312.950000", "135313.410000", "135313.870000", "135314.330000", "135314.790000", "135315.250000", "135315.710000", "135316.170000", "135316.630000", "135317.090000", "135317.550000", "135318.010000", "135318.470000", "135318.930000", "135319.390000", "135319.850000", "135320.310000", "135320.770000", "135321.230000", "135321.690000", "135322.150000", "135322.610000", "135323.070000", "135323.530000", "135323.990000", "135324.450000", "135324.910000", "135325.370000", "135325.830000", "135326.290000", "135326.750000", "135327.210000", "135327.670000", "135328.130000", "135328.590000", "135329.050000", "135329.510000", "135329.970000", "135330.430000", "135330.890000", "135331.350000", "135331.810000", "135332.270000", "135332.730000", "135333.190000", "135333.650000", "135334.110000", "135334.570000", "135335.030000", "135335.490000", "135335.950000", "135336.410000", "135336.870000", "135337.330000", "135337.790000", "135338.250000", "135338.710000", "135339.170000", "135339.630000", "135340.090000", "135340.550000", "135341.010000", "135341.470000", "135341.930000", "135342.390000", "135342.850000", "135343.310000", "135343.770000", "135344.230000", "135344.690000", "135345.150000", "135345.610000", "135346.070000", "135346.530000", "135346.990000", "135347.450000", "135347.910000", "135348.370000", "135348.830000", "135349.290000", "135349.750000", "135350.210000", "135350.670000", "135351.130000", "135351.590000", "135352.050000", "135352.510000", "135352.970000", "135353.430000", "135353.890000", "135354.350000", "135354.810000", "135355.270000", "135355.730000", "135356.190000", "135356.650000", "135357.110000", "135357.570000", "135358.030000", "135358.490000", "135358.950000", "135359.410000", "135359.870000", "135400.330000", "135400.790000", "135401.250000", "135401.710000", "135402.170000", "135402.630000", "135403.090000", "135403.550000", "135404.010000", "135404.470000", "135404.930000", "135405.390000", "135405.850000", "135406.310000", "135406.770000", "135407.230000", "135407.690000", "135408.150000", "135408.610000", "135409.070000", "135409.530000", "135409.990000", "135410.450000", "135410.910000", "135411.370000", "135411.830000", "135412.290000", "135412.750000", "135413.210000", "135413.670000", "135414.130000", "135414.590000", "135415.050000", "135415.510000", "135415.970000", "135416.430000", "135416.890000", "135417.350000", "135417.810000", "135418.270000", "135418.730000", "135419.190000", "135419.650000", "135420.110000", "135420.570000", "135421.030000", "135421.490000", "135421.950000", "135422.410000", "135422.870000", "135423.330000", "135423.790000", "135424.250000", "135424.710000", "135425.170000", "135425.630000", "135426.090000", "135426.550000", "135427.010000", "135427.470000", "135427.930000", "135428.390000", "135428.850000", "135429.310000", "135429.770000", "135430.230000", "135430.690000", "135431.150000", "135431.610000", "135432.070000", "135432.530000", "135432.990000", "135433.450000", "135433.910000", "135434.370000", "135434.830000", "135435.290000", "135435.750000", "135436.210000", "135436.670000", "135437.130000", "135437.590000", "135438.050000", "135438.510000", "135438.970000", "135439.430000", "135439.890000", "135440.350000", "135440.810000", "135441.270000", "135441.730000", "135442.190000", "135442.650000", "135443.110000", "135443.570000", "135444.030000", "135444.490000", "135444.950000", "135445.410000", "135445.870000", "135446.330000", "135446.790000", "135447.250000", "135447.710000", "135448.170000", "135448.630000", "135449.090000", "135449.550000", "135450.010000", "135450.470000", "135450.930000", "135451.390000", "135451.850000", "135452.310000", "135452.770000", "135453.230000", "135453.690000", "135454.150000", "135454.610000", "135455.070000", "135455.530000", "135455.990000", "135456.450000", "135456.910000", "135457.370000", "135457.830000", "135458.290000", "135458.750000", "135459.210000", "135459.670000", "135500.130000", "135500.590000", "135501.050000", "135501.510000", "135501.970000", "135502.430000", "135502.890000", "135503.350000", "135503.810000", "135504.270000", "135504.730000", "135505.190000", "135505.650000", "135506.110000", "135506.570000", "135507.030000", "135507.490000", "135507.950000", "135508.410000", "135508.870000", "135509.330000", "135509.790000", "135510.250000", "135510.710000", "135511.170000", "135511.630000", "135512.090000", "135512.550000", "135513.010000", "135513.470000", "135513.930000", "135514.390000", "135514.850000", "135515.310000", "135515.770000", "135516.230000", "135516.690000", "135517.150000", "135517.610000", "135518.070000", "135518.530000", "135518.990000", "135519.450000", "135519.910000", "135520.370000", "135520.830000", "135521.290000", "135521.750000", "135522.210000", "135522.670000", "135523.130000", "135523.590000", "135524.050000", "135524.510000", "135524.970000", "135525.430000", "135525.890000", "135526.350000", "135526.810000", "135527.270000", "135527.730000", "135528.190000", "135528.650000", "135529.110000", "135529.570000", "135530.030000", "135530.490000", "135530.950000", "135531.410000", "135531.870000", "135532.330000", "135532.790000", "135533.250000", "135533.710000", "135534.170000", "135534.630000", "135535.090000", "135535.550000", "135536.010000", "135536.470000", "135536.930000", "135537.390000"],
