{
  "AcquisitionMatrixPE": 82,
  "AcquisitionNumber": 1,
  "AcquisitionTime": "13:04:38.507500",
  "BandwidthPerPixelPhaseEncode": 24.888,
  "BaseResolution": 82,
  "BodyPartExamined": "BRAIN",
  "ConsistencyInfo": "N4_VE11C_LATEST_20160120",
  "ConversionSoftware": "dcm2niix",
  "ConversionSoftwareVersion": "v1.0.20201102",
  "DerivedVendorReportedEchoSpacing": 0.00049,
  "DeviceSerialNumber": "66112",
  "DwellTime": 2e-06,
  "EchoTime": 0.0272,
  "EchoTrainLength": 82,
  "EffectiveEchoSpacing": 0.00049,
  "FlipAngle": 44,
  "ImageComments": "Unaliased MB8/PE3",
  "ImageOrientationPatientDICOM": [0.999621, -0.0060338, 0.0268665, 0.00226813, 0.990424, 0.138044],
  "ImageType": [
    "ORIGINAL",
    "PRIMARY",
    "M",
    "MB",
    "ND",
    "NORM",
    "MOSAIC"
],
  "ImagingFrequency": 123.252,
  "InPlanePhaseEncodingDirectionDICOM": "COL",
  "InstitutionAddress": "Maynard 3,Hanover,NH,US,03755",
  "InstitutionName": "Dartmouth College - PBS",
  "InstitutionalDepartmentName": "Department",
  "MRAcquisitionType": "2D",
  "MagneticFieldStrength": 3,
  "Manufacturer": "Siemens",
  "ManufacturersModelName": "Prisma",
  "Modality": "MR",
  "MultibandAccelerationFactor": 8,
  "PartialFourier": 1,
  "PatientPosition": "HFS",
  "PercentPhaseFOV": 100,
  "PercentSampling": 100,
  "PhaseEncodingDirection": "j-",
  "PhaseEncodingSteps": 82,
  "PhaseResolution": 1,
  "PixelBandwidth": 3050,
  "ProcedureStepDescription": "Wager_Wager^1076_spacetop",
  "ProtocolName": "func_run-02_task-social_acq-ap-mb8",
  "PulseSequenceDetails": "%CustomerSeq%\\cmrr_mbep2d_bold",
  "ReceiveCoilActiveElements": "HEA;HEP",
  "ReceiveCoilName": "Head_32",
  "ReconMatrixPE": 82,
  "RepetitionTime": 0.46,
  "SAR": 0.103517,
  "ScanOptions": "FS",
  "ScanningSequence": "EP",
  "SequenceName": "epfid2d1_82",
  "SequenceVariant": "SK\\SS",
  "SeriesDescription": "func_run-02_task-social_acq-ap-mb8",
  "SeriesNumber": 14,
  "ShimSetting": [4157, -7755, -7277, 568, -7, -32, 47, 83],
  "SliceThickness": 2.7,
  "SliceTiming": [0, 0.25, 0.0625, 0.315, 0.125, 0.3775, 0.1875, 0, 0.25, 0.0625, 0.315, 0.125, 0.3775, 0.1875, 0, 0.25, 0.0625, 0.315, 0.125, 0.3775, 0.1875, 0, 0.25, 0.0625, 0.315, 0.125, 0.3775, 0.1875, 0, 0.25, 0.0625, 0.315, 0.125, 0.3775, 0.1875, 0, 0.25, 0.0625, 0.315, 0.125, 0.3775, 0.1875, 0, 0.25, 0.0625, 0.315, 0.125, 0.3775, 0.1875, 0, 0.25, 0.0625, 0.315, 0.125, 0.3775, 0.1875],
  "SoftwareVersions": "syngo MR E11",
  "SpacingBetweenSlices": 2.7,
  "StationName": "AWP66112",
  "TaskName": "social",
  "TotalReadoutTime": 0.03969,
  "TxRefAmp": 242.849,
  "WipMemBlock": "aba23882-fc13-4907-964d-c310f05287fe||Sequence: R016 ve11c/master r/e634e98; Dec 19 2017 11:00:25 by eja",
  "dcmmeta_affine": [
    [-2.6819095611572266, 0.006085225380957127, 0.074093759059906, 114.19893646240234],
    [0.016188250854611397, 2.657233953475952, 0.37241220474243164, -101.742919921875],
    [0.0720808282494545, -0.37036120891571045, 2.673166513442993, -50.72848892211914],
    [0.0, 0.0, 0.0, 1.0]
],
  "dcmmeta_reorient_transform": [
    [0.0, -1.0, 0.0, 81.0],
    [1.0, 0.0, 0.0, 0.0],
    [0.0, 0.0, 1.0, 0.0],
    [0.0, 0.0, 0.0, 1.0]
],
  "dcmmeta_shape": [82, 82, 56, 872],
  "dcmmeta_slice_dim": 2,
  "dcmmeta_version": 0.6,
  "global": {
    "const": {
      "AccessionNumber": "A003445",
      "AcquisitionMatrix": [82, 0, 0, 82],
      "AngioFlag": "N",
      "BitsAllocated": 16,
      "BitsStored": 16,
      "BodyPartExamined": "BRAIN",
      "Columns": 656,
      "EchoNumbers": 1,
      "EchoTime": 27.2,
      "EchoTrainLength": 82,
      "FlipAngle": 44.0,
      "HighBit": 15,
      "ImageOrientationPatient": [0.99962082056202, -0.0060338023281, 0.02686649080866, 0.00226812940663, 0.99042353845692, 0.13804372517239],
      "ImagePositionPatient": [-886.1463501278, -871.47314107273, -207.70861711947],
      "ImageType": [
        "ORIGINAL",
        "PRIMARY",
        "M",
        "MB",
        "ND",
        "NORM",
        "MOSAIC"
],
      "ImagedNucleus": "1H",
      "ImagingFrequency": 123.252165,
      "InPlanePhaseEncodingDirection": "COL",
      "MRAcquisitionType": "2D",
      "MagneticFieldStrength": 3.0,
      "Manufacturer": "SIEMENS",
      "ManufacturerModelName": "Prisma",
      "Modality": "MR",
      "NumberOfAverages": 1.0,
      "NumberOfPhaseEncodingSteps": 82,
      "PercentPhaseFieldOfView": 100.0,
      "PercentSampling": 100.0,
      "PerformedProcedureStepStartTime": "115319.472000",
      "PhotometricInterpretation": "MONOCHROME2",
      "PixelBandwidth": 3050.0,
      "PixelRepresentation": 0,
      "PixelSpacing": [2.6829268932343, 2.6829268932343],
      "ProtocolName": "func_run-02_task-social_acq-ap-mb8",
      "RepetitionTime": 460.0,
      "Rows": 656,
      "SAR": 0.10351663413589,
      "SamplesPerPixel": 1,
      "ScanOptions": "FS",
      "ScanningSequence": "EP",
      "SequenceName": "epfid2d1_82",
      "SequenceVariant": [
        "SK",
        "SS"
],
      "SeriesDescription": "func_run-02_task-social_acq-ap-mb8",
      "SeriesNumber": 14,
      "SeriesTime": "130451.717000",
      "SliceLocation": -61.123916837754,
      "SliceThickness": 2.7000000476837,
      "SmallestImagePixelValue": 0,
      "SoftwareVersions": "syngo MR E11",
      "SpacingBetweenSlices": 2.6999999235449,
      "SpecificCharacterSet": "ISO_IR 100",
      "StudyID": "1",
      "StudyTime": "115319.404000",
      "TransmitCoilName": "Body",
      "VariableFlipAngleFlag": "N",
      "WindowCenterWidthExplanation": "Algo1",
      "dBdt": 0.0},
    "slices": {}
  },
  "time": {
    "samples": {
      "AcquisitionNumber": [1, 2, 3, 4, 5, 6, 7, 8, 9, 10, 11, 12, 13, 14, 15, 16, 17, 18, 19, 20, 21, 22, 23, 24, 25, 26, 27, 28, 29, 30, 31, 32, 33, 34, 35, 36, 37, 38, 39, 40, 41, 42, 43, 44, 45, 46, 47, 48, 49, 50, 51, 52, 53, 54, 55, 56, 57, 58, 59, 60, 61, 62, 63, 64, 65, 66, 67, 68, 69, 70, 71, 72, 73, 74, 75, 76, 77, 78, 79, 80, 81, 82, 83, 84, 85, 86, 87, 88, 89, 90, 91, 92, 93, 94, 95, 96, 97, 98, 99, 100, 101, 102, 103, 104, 105, 106, 107, 108, 109, 110, 111, 112, 113, 114, 115, 116, 117, 118, 119, 120, 121, 122, 123, 124, 125, 126, 127, 128, 129, 130, 131, 132, 133, 134, 135, 136, 137, 138, 139, 140, 141, 142, 143, 144, 145, 146, 147, 148, 149, 150, 151, 152, 153, 154, 155, 156, 157, 158, 159, 160, 161, 162, 163, 164, 165, 166, 167, 168, 169, 170, 171, 172, 173, 174, 175, 176, 177, 178, 179, 180, 181, 182, 183, 184, 185, 186, 187, 188, 189, 190, 191, 192, 193, 194, 195, 196, 197, 198, 199, 200, 201, 202, 203, 204, 205, 206, 207, 208, 209, 210, 211, 212, 213, 214, 215, 216, 217, 218, 219, 220, 221, 222, 223, 224, 225, 226, 227, 228, 229, 230, 231, 232, 233, 234, 235, 236, 237, 238, 239, 240, 241, 242, 243, 244, 245, 246, 247, 248, 249, 250, 251, 252, 253, 254, 255, 256, 257, 258, 259, 260, 261, 262, 263, 264, 265, 266, 267, 268, 269, 270, 271, 272, 273, 274, 275, 276, 277, 278, 279, 280, 281, 282, 283, 284, 285, 286, 287, 288, 289, 290, 291, 292, 293, 294, 295, 296, 297, 298, 299, 300, 301, 302, 303, 304, 305, 306, 307, 308, 309, 310, 311, 312, 313, 314, 315, 316, 317, 318, 319, 320, 321, 322, 323, 324, 325, 326, 327, 328, 329, 330, 331, 332, 333, 334, 335, 336, 337, 338, 339, 340, 341, 342, 343, 344, 345, 346, 347, 348, 349, 350, 351, 352, 353, 354, 355, 356, 357, 358, 359, 360, 361, 362, 363, 364, 365, 366, 367, 368, 369, 370, 371, 372, 373, 374, 375, 376, 377, 378, 379, 380, 381, 382, 383, 384, 385, 386, 387, 388, 389, 390, 391, 392, 393, 394, 395, 396, 397, 398, 399, 400, 401, 402, 403, 404, 405, 406, 407, 408, 409, 410, 411, 412, 413, 414, 415, 416, 417, 418, 419, 420, 421, 422, 423, 424, 425, 426, 427, 428, 429, 430, 431, 432, 433, 434, 435, 436, 437, 438, 439, 440, 441, 442, 443, 444, 445, 446, 447, 448, 449, 450, 451, 452, 453, 454, 455, 456, 457, 458, 459, 460, 461, 462, 463, 464, 465, 466, 467, 468, 469, 470, 471, 472, 473, 474, 475, 476, 477, 478, 479, 480, 481, 482, 483, 484, 485, 486, 487, 488, 489, 490, 491, 492, 493, 494, 495, 496, 497, 498, 499, 500, 501, 502, 503, 504, 505, 506, 507, 508, 509, 510, 511, 512, 513, 514, 515, 516, 517, 518, 519, 520, 521, 522, 523, 524, 525, 526, 527, 528, 529, 530, 531, 532, 533, 534, 535, 536, 537, 538, 539, 540, 541, 542, 543, 544, 545, 546, 547, 548, 549, 550, 551, 552, 553, 554, 555, 556, 557, 558, 559, 560, 561, 562, 563, 564, 565, 566, 567, 568, 569, 570, 571, 572, 573, 574, 575, 576, 577, 578, 579, 580, 581, 582, 583, 584, 585, 586, 587, 588, 589, 590, 591, 592, 593, 594, 595, 596, 597, 598, 599, 600, 601, 602, 603, 604, 605, 606, 607, 608, 609, 610, 611, 612, 613, 614, 615, 616, 617, 618, 619, 620, 621, 622, 623, 624, 625, 626, 627, 628, 629, 630, 631, 632, 633, 634, 635, 636, 637, 638, 639, 640, 641, 642, 643, 644, 645, 646, 647, 648, 649, 650, 651, 652, 653, 654, 655, 656, 657, 658, 659, 660, 661, 662, 663, 664, 665, 666, 667, 668, 669, 670, 671, 672, 673, 674, 675, 676, 677, 678, 679, 680, 681, 682, 683, 684, 685, 686, 687, 688, 689, 690, 691, 692, 693, 694, 695, 696, 697, 698, 699, 700, 701, 702, 703, 704, 705, 706, 707, 708, 709, 710, 711, 712, 713, 714, 715, 716, 717, 718, 719, 720, 721, 722, 723, 724, 725, 726, 727, 728, 729, 730, 731, 732, 733, 734, 735, 736, 737, 738, 739, 740, 741, 742, 743, 744, 745, 746, 747, 748, 749, 750, 751, 752, 753, 754, 755, 756, 757, 758, 759, 760, 761, 762, 763, 764, 765, 766, 767, 768, 769, 770, 771, 772, 773, 774, 775, 776, 777, 778, 779, 780, 781, 782, 783, 784, 785, 786, 787, 788, 789, 790, 791, 792, 793, 794, 795, 796, 797, 798, 799, 800, 801, 802, 803, 804, 805, 806, 807, 808, 809, 810, 811, 812, 813, 814, 815, 816, 817, 818, 819, 820, 821, 822, 823, 824, 825, 826, 827, 828, 829, 830, 831, 832, 833, 834, 835, 836, 837, 838, 839, 840, 841, 842, 843, 844, 845, 846, 847, 848, 849, 850, 851, 852, 853, 854, 855, 856, 857, 858, 859, 860, 861, 862, 863, 864, 865, 866, 867, 868, 869, 870, 871, 872],
      "AcquisitionTime": ["130438.507500", "130438.967500", "130439.427500", "130439.887500", "130440.347500", "130440.807500", "130441.267500", "130441.727500", "130442.187500", "130442.647500", "130443.107500", "130443.567500", "130444.027500", "130444.487500", "130444.947500", "130445.407500", "130445.867500", "130446.327500", "130446.787500", "130447.247500", "130447.707500", "130448.167500", "130448.627500", "130449.087500", "130449.547500", "130450.007500", "130450.467500", "130450.927500", "130451.387500", "130451.847500", "130452.307500", "130452.767500", "130453.227500", "130453.687500", "130454.147500", "130454.607500", "130455.067500", "130455.527500", "130455.987500", "130456.447500", "130456.907500", "130457.367500", "130457.827500", "130458.287500", "130458.747500", "130459.207500", "130459.667500", "130500.127500", "130500.587500", "130501.047500", "130501.507500", "130501.967500", "130502.427500", "130502.887500", "130503.347500", "130503.807500", "130504.267500", "130504.727500", "130505.187500", "130505.647500", "130506.107500", "130506.567500", "130507.027500", "130507.487500", "130507.947500", "130508.407500", "130508.867500", "130509.327500", "130509.787500", "130510.247500", "130510.707500", "130511.167500", "130511.627500", "130512.087500", "130512.547500", "130513.007500", "130513.467500", "130513.927500", "130514.387500", "130514.847500", "130515.307500", "130515.767500", "130516.227500", "130516.687500", "130517.147500", "130517.607500", "130518.067500", "130518.527500", "130518.987500", "130519.447500", "130519.907500", "130520.367500", "130520.827500", "130521.287500", "130521.747500", "130522.207500", "130522.667500", "130523.127500", "130523.587500", "130524.047500", "130524.507500", "130524.967500", "130525.427500", "130525.887500", "130526.347500", "130526.807500", "130527.267500", "130527.727500", "130528.187500", "130528.647500", "130529.107500", "130529.567500", "130530.027500", "130530.487500", "130530.947500", "130531.407500", "130531.867500", "130532.327500", "130532.787500", "130533.247500", "130533.707500", "130534.167500", "130534.627500", "130535.087500", "130535.547500", "130536.007500", "130536.467500", "130536.927500", "130537.387500", "130537.847500", "130538.307500", "130538.767500", "130539.227500", "130539.687500", "130540.147500", "130540.607500", "130541.067500", "130541.527500", "130541.987500", "130542.447500", "130542.907500", "130543.367500", "130543.827500", "130544.287500", "130544.747500", "130545.207500", "130545.667500", "130546.127500", "130546.587500", "130547.047500", "130547.507500", "130547.967500", "130548.427500", "130548.887500", "130549.347500", "130549.807500", "130550.267500", "130550.727500", "130551.187500", "130551.647500", "130552.107500", "130552.567500", "130553.027500", "130553.487500", "130553.947500", "130554.407500", "130554.867500", "130555.327500", "130555.787500", "130556.247500", "130556.707500", "130557.167500", "130557.627500", "130558.087500", "130558.547500", "130559.007500", "130559.467500", "130559.927500", "130600.387500", "130600.847500", "130601.307500", "130601.767500", "130602.227500", "130602.687500", "130603.147500", "130603.607500", "130604.067500", "130604.527500", "130604.987500", "130605.447500", "130605.907500", "130606.367500", "130606.827500", "130607.287500", "130607.747500", "130608.207500", "130608.667500", "130609.127500", "130609.587500", "130610.047500", "130610.507500", "130610.967500", "130611.427500", "130611.887500", "130612.347500", "130612.807500", "130613.267500", "130613.727500", "130614.187500", "130614.647500", "130615.107500", "130615.567500", "130616.027500", "130616.487500", "130616.947500", "130617.407500", "130617.867500", "130618.327500", "130618.787500", "130619.247500", "130619.707500", "130620.167500", "130620.627500", "130621.087500", "130621.547500", "130622.007500", "130622.467500", "130622.927500", "130623.387500", "130623.847500", "130624.307500", "130624.767500", "130625.227500", "130625.687500", "130626.147500", "130626.607500", "130627.067500", "130627.527500", "130627.987500", "130628.447500", "130628.907500", "130629.367500", "130629.827500", "130630.287500", "130630.747500", "130631.207500", "130631.667500", "130632.127500", "130632.587500", "130633.047500", "130633.507500", "130633.967500", "130634.427500", "130634.887500", "130635.347500", "130635.807500", "130636.267500", "130636.727500", "130637.187500", "130637.647500", "130638.107500", "130638.567500", "130639.027500", "130639.487500", "130639.947500", "130640.407500", "130640.867500", "130641.327500", "130641.787500", "130642.247500", "130642.707500", "130643.167500", "130643.627500", "130644.087500", "130644.547500", "130645.007500", "130645.467500", "130645.927500", "130646.387500", "130646.847500", "130647.307500", "130647.767500", "130648.227500", "130648.687500", "130649.147500", "130649.607500", "130650.067500", "130650.527500", "130650.987500", "130651.447500", "130651.907500", "130652.367500", "130652.827500", "130653.287500", "130653.747500", "130654.207500", "130654.667500", "130655.127500", "130655.587500", "130656.047500", "130656.507500", "130656.967500", "130657.427500", "130657.887500", "130658.347500", "130658.807500", "130659.267500", "130659.727500", "130700.187500", "130700.647500", "130701.107500", "130701.567500", "130702.027500", "130702.487500", "130702.947500", "130703.407500", "130703.867500", "130704.327500", "130704.787500", "130705.247500", "130705.707500", "130706.167500", "130706.627500", "130707.087500", "130707.547500", "130708.007500", "130708.467500", "130708.927500", "130709.387500", "130709.847500", "130710.307500", "130710.767500", "130711.227500", "130711.687500", "130712.147500", "130712.607500", "130713.067500", "130713.527500", "130713.987500", "130714.447500", "130714.907500", "130715.367500", "130715.827500", "130716.287500", "130716.747500", "130717.207500", "130717.667500", "130718.127500", "130718.587500", "130719.047500", "130719.507500", "130719.967500", "130720.427500", "130720.887500", "130721.347500", "130721.807500", "130722.267500", "130722.727500", "130723.187500", "130723.647500", "130724.107500", "130724.567500", "130725.027500", "130725.487500", "130725.947500", "130726.407500", "130726.867500", "130727.327500", "130727.787500", "130728.247500", "130728.707500", "130729.167500", "130729.627500", "130730.087500", "130730.547500", "130731.007500", "130731.467500", "130731.927500", "130732.387500", "130732.847500", "130733.307500", "130733.767500", "130734.227500", "130734.687500", "130735.147500", "130735.607500", "130736.067500", "130736.527500", "130736.987500", "130737.447500", "130737.907500", "130738.367500", "130738.827500", "130739.287500", "130739.747500", "130740.207500", "130740.667500", "130741.127500", "130741.587500", "130742.047500", "130742.507500", "130742.967500", "130743.427500", "130743.887500", "130744.347500", "130744.807500", "130745.267500", "130745.727500", "130746.187500", "130746.647500", "130747.107500", "130747.567500", "130748.027500", "130748.487500", "130748.947500", "130749.407500", "130749.867500", "130750.327500", "130750.787500", "130751.247500", "130751.707500", "130752.167500", "130752.627500", "130753.087500", "130753.547500", "130754.007500", "130754.467500", "130754.927500", "130755.387500", "130755.847500", "130756.307500", "130756.767500", "130757.227500", "130757.687500", "130758.147500", "130758.607500", "130759.067500", "130759.527500", "130759.987500", "130800.447500", "130800.907500", "130801.367500", "130801.827500", "130802.287500", "130802.747500", "130803.207500", "130803.667500", "130804.127500", "130804.587500", "130805.047500", "130805.507500", "130805.967500", "130806.427500", "130806.887500", "130807.347500", "130807.807500", "130808.267500", "130808.727500", "130809.187500", "130809.647500", "130810.107500", "130810.567500", "130811.027500", "130811.487500", "130811.947500", "130812.407500", "130812.867500", "130813.327500", "130813.787500", "130814.247500", "130814.707500", "130815.167500", "130815.627500", "130816.087500", "130816.547500", "130817.007500", "130817.467500", "130817.927500", "130818.387500", "130818.847500", "130819.307500", "130819.767500", "130820.227500", "130820.687500", "130821.147500", "130821.607500", "130822.067500", "130822.527500", "130822.987500", "130823.447500", "130823.907500", "130824.367500", "130824.827500", "130825.287500", "130825.747500", "130826.207500", "130826.667500", "130827.127500", "130827.587500", "130828.047500", "130828.507500", "130828.967500", "130829.427500", "130829.887500", "130830.347500", "130830.807500", "130831.267500", "130831.727500", "130832.187500", "130832.647500", "130833.107500", "130833.567500", "130834.027500", "130834.487500", "130834.947500", "130835.407500", "130835.867500", "130836.327500", "130836.787500", "130837.247500", "130837.707500", "130838.167500", "130838.627500", "130839.087500", "130839.547500", "130840.007500", "130840.467500", "130840.927500", "130841.387500", "130841.847500", "130842.307500", "130842.767500", "130843.227500", "130843.687500", "130844.147500", "130844.607500", "130845.067500", "130845.527500", "130845.987500", "130846.447500", "130846.907500", "130847.367500", "130847.827500", "130848.287500", "130848.747500", "130849.207500", "130849.667500", "130850.127500", "130850.587500", "130851.047500", "130851.507500", "130851.967500", "130852.427500", "130852.887500", "130853.347500", "130853.807500", "130854.267500", "130854.727500", "130855.187500", "130855.647500", "130856.107500", "130856.567500", "130857.027500", "130857.487500", "130857.947500", "130858.407500", "130858.867500", "130859.327500", "130859.787500", "130900.247500", "130900.707500", "130901.167500", "130901.627500", "130902.087500", "130902.547500", "130903.007500", "130903.467500", "130903.927500", "130904.387500", "130904.847500", "130905.307500", "130905.767500", "130906.227500", "130906.687500", "130907.147500", "130907.607500", "130908.067500", "130908.527500", "130908.987500", "130909.447500", "130909.907500", "130910.367500", "130910.827500", "130911.287500", "130911.747500", "130912.207500", "130912.667500", "130913.127500", "130913.587500", "130914.047500", "130914.507500", "130914.967500", "130915.427500", "130915.887500", "130916.347500", "130916.807500", "130917.267500", "130917.727500", "130918.187500", "130918.647500", "130919.107500", "130919.567500", "130920.027500", "130920.487500", "130920.947500", "130921.407500", "130921.867500", "130922.327500", "130922.787500", "130923.247500", "130923.707500", "130924.167500", "130924.627500", "130925.087500", "130925.547500", "130926.007500", "130926.467500", "130926.927500", "130927.387500", "130927.847500", "130928.307500", "130928.767500", "130929.227500", "130929.687500", "130930.147500", "130930.607500", "130931.067500", "130931.527500", "130931.987500", "130932.447500", "130932.907500", "130933.367500", "130933.827500", "130934.287500", "130934.747500", "130935.207500", "130935.667500", "130936.127500", "130936.587500", "130937.047500", "130937.507500", "130937.967500", "130938.427500", "130938.887500", "130939.347500", "130939.807500", "130940.267500", "130940.727500", "130941.187500", "130941.647500", "130942.107500", "130942.567500", "130943.027500", "130943.487500", "130943.947500", "130944.407500", "130944.867500", "130945.327500", "130945.787500", "130946.247500", "130946.707500", "130947.167500", "130947.627500", "130948.087500", "130948.547500", "130949.007500", "130949.467500", "130949.927500", "130950.387500", "130950.847500", "130951.307500", "130951.767500", "130952.227500", "130952.687500", "130953.147500", "130953.607500", "130954.067500", "130954.527500", "130954.987500", "130955.447500", "130955.907500", "130956.367500", "130956.827500", "130957.287500", "130957.747500", "130958.207500", "130958.667500", "130959.127500", "130959.587500", "131000.047500", "131000.507500", "131000.967500", "131001.427500", "131001.887500", "131002.347500", "131002.807500", "131003.267500", "131003.727500", "131004.187500", "131004.647500", "131005.107500", "131005.567500", "131006.027500", "131006.487500", "131006.947500", "131007.407500", "131007.867500", "131008.327500", "131008.787500", "131009.247500", "131009.707500", "131010.167500", "131010.627500", "131011.087500", "131011.547500", "131012.007500", "131012.467500", "131012.927500", "131013.387500", "131013.847500", "131014.307500", "131014.767500", "131015.227500", "131015.687500", "131016.147500", "131016.607500", "131017.067500", "131017.527500", "131017.987500", "131018.447500", "131018.907500", "131019.367500", "131019.827500", "131020.287500", "131020.747500", "131021.207500", "131021.667500", "131022.127500", "131022.587500", "131023.047500", "131023.507500", "131023.967500", "131024.427500", "131024.887500", "131025.347500", "131025.807500", "131026.267500", "131026.727500", "131027.187500", "131027.647500", "131028.107500", "131028.567500", "131029.027500", "131029.487500", "131029.947500", "131030.407500", "131030.867500", "131031.327500", "131031.787500", "131032.247500", "131032.707500", "131033.167500", "131033.627500", "131034.087500", "131034.547500", "131035.007500", "131035.467500", "131035.927500", "131036.387500", "131036.847500", "131037.307500", "131037.767500", "131038.227500", "131038.687500", "131039.147500", "131039.607500", "131040.067500", "131040.527500", "131040.987500", "131041.447500", "131041.907500", "131042.367500", "131042.827500", "131043.287500", "131043.747500", "131044.207500", "131044.667500", "131045.127500", "131045.587500", "131046.047500", "131046.507500", "131046.967500", "131047.427500", "131047.887500", "131048.347500", "131048.807500", "131049.267500", "131049.727500", "131050.187500", "131050.647500", "131051.107500", "131051.567500", "131052.027500", "131052.487500", "131052.947500", "131053.407500", "131053.867500", "131054.327500", "131054.787500", "131055.247500", "131055.707500", "131056.167500", "131056.627500", "131057.087500", "131057.547500", "131058.007500", "131058.467500", "131058.927500", "131059.387500", "131059.847500", "131100.307500", "131100.767500", "131101.227500", "131101.687500", "131102.147500", "131102.607500", "131103.067500", "131103.527500", "131103.987500", "131104.447500", "131104.907500", "131105.367500", "131105.827500", "131106.287500", "131106.747500", "131107.207500", "131107.667500", "131108.127500", "131108.587500", "131109.047500", "131109.507500", "131109.967500", "131110.427500", "131110.887500", "131111.347500", "131111.807500", "131112.267500", "131112.727500", "131113.187500", "131113.647500", "131114.107500", "131114.567500", "131115.027500", "131115.487500", "131115.947500", "131116.407500", "131116.867500", "131117.327500", "131117.787500", "131118.247500", "131118.707500", "131119.167500"],
