{
  "AcquisitionMatrixPE": 82,
  "AcquisitionNumber": 1,
  "AcquisitionTime": "13:25:39.567500",
  "BandwidthPerPixelPhaseEncode": 24.888,
  "BaseResolution": 82,
  "BodyPartExamined": "BRAIN",
  "ConsistencyInfo": "N4_VE11C_LATEST_20160120",
  "ConversionSoftware": "dcm2niix",
  "ConversionSoftwareVersion": "v1.0.20201102",
  "DerivedVendorReportedEchoSpacing": 0.00049,
  "DeviceSerialNumber": "66112",
  "DwellTime": 2e-06,
  "EchoTime": 0.0272,
  "EchoTrainLength": 82,
  "EffectiveEchoSpacing": 0.00049,
  "FlipAngle": 44,
  "ImageComments": "Unaliased MB8/PE3",
  "ImageOrientationPatientDICOM": [0.999621, -0.0060338, 0.0268665, 0.00226813, 0.990424, 0.138044],
  "ImageType": [
    "ORIGINAL",
    "PRIMARY",
    "M",
    "MB",
    "ND",
    "NORM",
    "MOSAIC"
],
  "ImagingFrequency": 123.252,
  "InPlanePhaseEncodingDirectionDICOM": "COL",
  "InstitutionAddress": "Maynard 3,Hanover,NH,US,03755",
  "InstitutionName": "Dartmouth College - PBS",
  "InstitutionalDepartmentName": "Department",
  "MRAcquisitionType": "2D",
  "MagneticFieldStrength": 3,
  "Manufacturer": "Siemens",
  "ManufacturersModelName": "Prisma",
  "Modality": "MR",
  "MultibandAccelerationFactor": 8,
  "PartialFourier": 1,
  "PatientPosition": "HFS",
  "PercentPhaseFOV": 100,
  "PercentSampling": 100,
  "PhaseEncodingDirection": "j-",
  "PhaseEncodingSteps": 82,
  "PhaseResolution": 1,
  "PixelBandwidth": 3050,
  "ProcedureStepDescription": "Wager_Wager^1076_spacetop",
  "ProtocolName": "func_run-05_task-social_acq-ap-mb8",
  "PulseSequenceDetails": "%CustomerSeq%\\cmrr_mbep2d_bold",
  "ReceiveCoilActiveElements": "HEA;HEP",
  "ReceiveCoilName": "Head_32",
  "ReconMatrixPE": 82,
  "RepetitionTime": 0.46,
  "SAR": 0.103517,
  "ScanOptions": "FS",
  "ScanningSequence": "EP",
  "SequenceName": "epfid2d1_82",
  "SequenceVariant": "SK\\SS",
  "SeriesDescription": "func_run-05_task-social_acq-ap-mb8",
  "SeriesNumber": 20,
  "ShimSetting": [4157, -7755, -7277, 568, -7, -32, 47, 83],
  "SliceThickness": 2.7,
  "SliceTiming": [0, 0.25, 0.0625, 0.3125, 0.125, 0.375, 0.1875, 0, 0.25, 0.0625, 0.3125, 0.125, 0.375, 0.1875, 0, 0.25, 0.0625, 0.3125, 0.125, 0.375, 0.1875, 0, 0.25, 0.0625, 0.3125, 0.125, 0.375, 0.1875, 0, 0.25, 0.0625, 0.3125, 0.125, 0.375, 0.1875, 0, 0.25, 0.0625, 0.3125, 0.125, 0.375, 0.1875, 0, 0.25, 0.0625, 0.3125, 0.125, 0.375, 0.1875, 0, 0.25, 0.0625, 0.3125, 0.125, 0.375, 0.1875],
  "SoftwareVersions": "syngo MR E11",
  "SpacingBetweenSlices": 2.7,
  "StationName": "AWP66112",
  "TaskName": "social",
  "TotalReadoutTime": 0.03969,
  "TxRefAmp": 242.849,
  "WipMemBlock": "a7484703-2e87-4ca5-8580-62974de54b5f||Sequence: R016 ve11c/master r/e634e98; Dec 19 2017 11:00:25 by eja",
  "dcmmeta_affine": [
    [-2.6819095611572266, 0.006085225380957127, 0.074093759059906, 114.19893646240234],
    [0.016188250854611397, 2.657233953475952, 0.37241220474243164, -101.742919921875],
    [0.0720808282494545, -0.37036120891571045, 2.673166513442993, -50.72848892211914],
    [0.0, 0.0, 0.0, 1.0]
],
  "dcmmeta_reorient_transform": [
    [0.0, -1.0, 0.0, 81.0],
    [1.0, 0.0, 0.0, 0.0],
    [0.0, 0.0, 1.0, 0.0],
    [0.0, 0.0, 0.0, 1.0]
],
  "dcmmeta_shape": [82, 82, 56, 872],
  "dcmmeta_slice_dim": 2,
  "dcmmeta_version": 0.6,
  "global": {
    "const": {
      "AccessionNumber": "A003445",
      "AcquisitionMatrix": [82, 0, 0, 82],
      "AngioFlag": "N",
      "BitsAllocated": 16,
      "BitsStored": 16,
      "BodyPartExamined": "BRAIN",
      "Columns": 656,
      "EchoNumbers": 1,
      "EchoTime": 27.2,
      "EchoTrainLength": 82,
      "FlipAngle": 44.0,
      "HighBit": 15,
      "ImageOrientationPatient": [0.99962082056202, -0.0060338023281, 0.02686649080866, 0.00226812940663, 0.99042353845692, 0.13804372517239],
      "ImagePositionPatient": [-886.1463501278, -871.47314107273, -207.70861711947],
      "ImageType": [
        "ORIGINAL",
        "PRIMARY",
        "M",
        "MB",
        "ND",
        "NORM",
        "MOSAIC"
],
      "ImagedNucleus": "1H",
      "ImagingFrequency": 123.252177,
      "InPlanePhaseEncodingDirection": "COL",
      "MRAcquisitionType": "2D",
      "MagneticFieldStrength": 3.0,
      "Manufacturer": "SIEMENS",
      "ManufacturerModelName": "Prisma",
      "Modality": "MR",
      "NumberOfAverages": 1.0,
      "NumberOfPhaseEncodingSteps": 82,
      "PercentPhaseFieldOfView": 100.0,
      "PercentSampling": 100.0,
      "PerformedProcedureStepStartTime": "115319.472000",
      "PhotometricInterpretation": "MONOCHROME2",
      "PixelBandwidth": 3050.0,
      "PixelRepresentation": 0,
      "PixelSpacing": [2.6829268932343, 2.6829268932343],
      "ProtocolName": "func_run-05_task-social_acq-ap-mb8",
      "RepetitionTime": 460.0,
      "Rows": 656,
      "SAR": 0.10351663413589,
      "SamplesPerPixel": 1,
      "ScanOptions": "FS",
      "ScanningSequence": "EP",
      "SequenceName": "epfid2d1_82",
      "SequenceVariant": [
        "SK",
        "SS"
],
      "SeriesDescription": "func_run-05_task-social_acq-ap-mb8",
      "SeriesNumber": 20,
      "SeriesTime": "132551.724000",
      "SliceLocation": -61.123916837754,
      "SliceThickness": 2.7000000476837,
      "SmallestImagePixelValue": 0,
      "SoftwareVersions": "syngo MR E11",
      "SpacingBetweenSlices": 2.6999999235449,
      "SpecificCharacterSet": "ISO_IR 100",
      "StudyID": "1",
      "StudyTime": "115319.404000",
      "TransmitCoilName": "Body",
      "VariableFlipAngleFlag": "N",
      "WindowCenterWidthExplanation": "Algo1",
      "dBdt": 0.0},
    "slices": {}
  },
  "time": {
    "samples": {
      "AcquisitionNumber": [1, 2, 3, 4, 5, 6, 7, 8, 9, 10, 11, 12, 13, 14, 15, 16, 17, 18, 19, 20, 21, 22, 23, 24, 25, 26, 27, 28, 29, 30, 31, 32, 33, 34, 35, 36, 37, 38, 39, 40, 41, 42, 43, 44, 45, 46, 47, 48, 49, 50, 51, 52, 53, 54, 55, 56, 57, 58, 59, 60, 61, 62, 63, 64, 65, 66, 67, 68, 69, 70, 71, 72, 73, 74, 75, 76, 77, 78, 79, 80, 81, 82, 83, 84, 85, 86, 87, 88, 89, 90, 91, 92, 93, 94, 95, 96, 97, 98, 99, 100, 101, 102, 103, 104, 105, 106, 107, 108, 109, 110, 111, 112, 113, 114, 115, 116, 117, 118, 119, 120, 121, 122, 123, 124, 125, 126, 127, 128, 129, 130, 131, 132, 133, 134, 135, 136, 137, 138, 139, 140, 141, 142, 143, 144, 145, 146, 147, 148, 149, 150, 151, 152, 153, 154, 155, 156, 157, 158, 159, 160, 161, 162, 163, 164, 165, 166, 167, 168, 169, 170, 171, 172, 173, 174, 175, 176, 177, 178, 179, 180, 181, 182, 183, 184, 185, 186, 187, 188, 189, 190, 191, 192, 193, 194, 195, 196, 197, 198, 199, 200, 201, 202, 203, 204, 205, 206, 207, 208, 209, 210, 211, 212, 213, 214, 215, 216, 217, 218, 219, 220, 221, 222, 223, 224, 225, 226, 227, 228, 229, 230, 231, 232, 233, 234, 235, 236, 237, 238, 239, 240, 241, 242, 243, 244, 245, 246, 247, 248, 249, 250, 251, 252, 253, 254, 255, 256, 257, 258, 259, 260, 261, 262, 263, 264, 265, 266, 267, 268, 269, 270, 271, 272, 273, 274, 275, 276, 277, 278, 279, 280, 281, 282, 283, 284, 285, 286, 287, 288, 289, 290, 291, 292, 293, 294, 295, 296, 297, 298, 299, 300, 301, 302, 303, 304, 305, 306, 307, 308, 309, 310, 311, 312, 313, 314, 315, 316, 317, 318, 319, 320, 321, 322, 323, 324, 325, 326, 327, 328, 329, 330, 331, 332, 333, 334, 335, 336, 337, 338, 339, 340, 341, 342, 343, 344, 345, 346, 347, 348, 349, 350, 351, 352, 353, 354, 355, 356, 357, 358, 359, 360, 361, 362, 363, 364, 365, 366, 367, 368, 369, 370, 371, 372, 373, 374, 375, 376, 377, 378, 379, 380, 381, 382, 383, 384, 385, 386, 387, 388, 389, 390, 391, 392, 393, 394, 395, 396, 397, 398, 399, 400, 401, 402, 403, 404, 405, 406, 407, 408, 409, 410, 411, 412, 413, 414, 415, 416, 417, 418, 419, 420, 421, 422, 423, 424, 425, 426, 427, 428, 429, 430, 431, 432, 433, 434, 435, 436, 437, 438, 439, 440, 441, 442, 443, 444, 445, 446, 447, 448, 449, 450, 451, 452, 453, 454, 455, 456, 457, 458, 459, 460, 461, 462, 463, 464, 465, 466, 467, 468, 469, 470, 471, 472, 473, 474, 475, 476, 477, 478, 479, 480, 481, 482, 483, 484, 485, 486, 487, 488, 489, 490, 491, 492, 493, 494, 495, 496, 497, 498, 499, 500, 501, 502, 503, 504, 505, 506, 507, 508, 509, 510, 511, 512, 513, 514, 515, 516, 517, 518, 519, 520, 521, 522, 523, 524, 525, 526, 527, 528, 529, 530, 531, 532, 533, 534, 535, 536, 537, 538, 539, 540, 541, 542, 543, 544, 545, 546, 547, 548, 549, 550, 551, 552, 553, 554, 555, 556, 557, 558, 559, 560, 561, 562, 563, 564, 565, 566, 567, 568, 569, 570, 571, 572, 573, 574, 575, 576, 577, 578, 579, 580, 581, 582, 583, 584, 585, 586, 587, 588, 589, 590, 591, 592, 593, 594, 595, 596, 597, 598, 599, 600, 601, 602, 603, 604, 605, 606, 607, 608, 609, 610, 611, 612, 613, 614, 615, 616, 617, 618, 619, 620, 621, 622, 623, 624, 625, 626, 627, 628, 629, 630, 631, 632, 633, 634, 635, 636, 637, 638, 639, 640, 641, 642, 643, 644, 645, 646, 647, 648, 649, 650, 651, 652, 653, 654, 655, 656, 657, 658, 659, 660, 661, 662, 663, 664, 665, 666, 667, 668, 669, 670, 671, 672, 673, 674, 675, 676, 677, 678, 679, 680, 681, 682, 683, 684, 685, 686, 687, 688, 689, 690, 691, 692, 693, 694, 695, 696, 697, 698, 699, 700, 701, 702, 703, 704, 705, 706, 707, 708, 709, 710, 711, 712, 713, 714, 715, 716, 717, 718, 719, 720, 721, 722, 723, 724, 725, 726, 727, 728, 729, 730, 731, 732, 733, 734, 735, 736, 737, 738, 739, 740, 741, 742, 743, 744, 745, 746, 747, 748, 749, 750, 751, 752, 753, 754, 755, 756, 757, 758, 759, 760, 761, 762, 763, 764, 765, 766, 767, 768, 769, 770, 771, 772, 773, 774, 775, 776, 777, 778, 779, 780, 781, 782, 783, 784, 785, 786, 787, 788, 789, 790, 791, 792, 793, 794, 795, 796, 797, 798, 799, 800, 801, 802, 803, 804, 805, 806, 807, 808, 809, 810, 811, 812, 813, 814, 815, 816, 817, 818, 819, 820, 821, 822, 823, 824, 825, 826, 827, 828, 829, 830, 831, 832, 833, 834, 835, 836, 837, 838, 839, 840, 841, 842, 843, 844, 845, 846, 847, 848, 849, 850, 851, 852, 853, 854, 855, 856, 857, 858, 859, 860, 861, 862, 863, 864, 865, 866, 867, 868, 869, 870, 871, 872],
      "AcquisitionTime": ["132539.567500", "132540.027500", "132540.487500", "132540.947500", "132541.407500", "132541.867500", "132542.327500", "132542.787500", "132543.247500", "132543.707500", "132544.167500", "132544.627500", "132545.087500", "132545.547500", "132546.007500", "132546.467500", "132546.927500", "132547.387500", "132547.847500", "132548.307500", "132548.767500", "132549.227500", "132549.687500", "132550.147500", "132550.607500", "132551.067500", "132551.527500", "132551.987500", "132552.447500", "132552.907500", "132553.367500", "132553.827500", "132554.287500", "132554.747500", "132555.207500", "132555.667500", "132556.127500", "132556.587500", "132557.047500", "132557.507500", "132557.967500", "132558.427500", "132558.887500", "132559.347500", "132559.807500", "132600.267500", "132600.727500", "132601.187500", "132601.647500", "132602.107500", "132602.567500", "132603.027500", "132603.487500", "132603.947500", "132604.407500", "132604.867500", "132605.327500", "132605.787500", "132606.247500", "132606.707500", "132607.167500", "132607.627500", "132608.087500", "132608.547500", "132609.007500", "132609.467500", "132609.927500", "132610.387500", "132610.847500", "132611.307500", "132611.767500", "132612.227500", "132612.687500", "132613.147500", "132613.607500", "132614.067500", "132614.527500", "132614.987500", "132615.447500", "132615.907500", "132616.367500", "132616.827500", "132617.287500", "132617.747500", "132618.207500", "132618.667500", "132619.127500", "132619.587500", "132620.047500", "132620.507500", "132620.967500", "132621.427500", "132621.887500", "132622.347500", "132622.807500", "132623.267500", "132623.727500", "132624.187500", "132624.647500", "132625.107500", "132625.567500", "132626.027500", "132626.487500", "132626.947500", "132627.407500", "132627.867500", "132628.327500", "132628.787500", "132629.247500", "132629.707500", "132630.167500", "132630.627500", "132631.087500", "132631.547500", "132632.007500", "132632.467500", "132632.927500", "132633.387500", "132633.847500", "132634.307500", "132634.767500", "132635.227500", "132635.687500", "132636.147500", "132636.607500", "132637.067500", "132637.527500", "132637.987500", "132638.447500", "132638.907500", "132639.367500", "132639.827500", "132640.287500", "132640.747500", "132641.207500", "132641.667500", "132642.127500", "132642.587500", "132643.047500", "132643.507500", "132643.967500", "132644.427500", "132644.887500", "132645.347500", "132645.807500", "132646.267500", "132646.727500", "132647.187500", "132647.647500", "132648.107500", "132648.567500", "132649.027500", "132649.487500", "132649.947500", "132650.407500", "132650.867500", "132651.327500", "132651.787500", "132652.247500", "132652.707500", "132653.167500", "132653.627500", "132654.087500", "132654.547500", "132655.007500", "132655.467500", "132655.927500", "132656.387500", "132656.847500", "132657.307500", "132657.767500", "132658.227500", "132658.687500", "132659.147500", "132659.607500", "132700.067500", "132700.527500", "132700.987500", "132701.447500", "132701.907500", "132702.367500", "132702.827500", "132703.287500", "132703.747500", "132704.207500", "132704.667500", "132705.127500", "132705.587500", "132706.047500", "132706.507500", "132706.967500", "132707.427500", "132707.887500", "132708.347500", "132708.807500", "132709.267500", "132709.727500", "132710.187500", "132710.647500", "132711.107500", "132711.567500", "132712.027500", "132712.487500", "132712.947500", "132713.407500", "132713.867500", "132714.327500", "132714.787500", "132715.247500", "132715.707500", "132716.167500", "132716.627500", "132717.087500", "132717.547500", "132718.007500", "132718.467500", "132718.927500", "132719.387500", "132719.847500", "132720.307500", "132720.767500", "132721.227500", "132721.687500", "132722.147500", "132722.607500", "132723.067500", "132723.527500", "132723.987500", "132724.447500", "132724.907500", "132725.367500", "132725.827500", "132726.287500", "132726.747500", "132727.207500", "132727.667500", "132728.127500", "132728.587500", "132729.047500", "132729.507500", "132729.967500", "132730.427500", "132730.887500", "132731.347500", "132731.807500", "132732.267500", "132732.727500", "132733.187500", "132733.647500", "132734.107500", "132734.567500", "132735.027500", "132735.487500", "132735.947500", "132736.407500", "132736.867500", "132737.327500", "132737.787500", "132738.247500", "132738.707500", "132739.167500", "132739.627500", "132740.087500", "132740.547500", "132741.007500", "132741.467500", "132741.927500", "132742.387500", "132742.847500", "132743.307500", "132743.767500", "132744.227500", "132744.687500", "132745.147500", "132745.607500", "132746.067500", "132746.527500", "132746.987500", "132747.447500", "132747.907500", "132748.367500", "132748.827500", "132749.287500", "132749.747500", "132750.207500", "132750.667500", "132751.127500", "132751.587500", "132752.047500", "132752.507500", "132752.967500", "132753.427500", "132753.887500", "132754.347500", "132754.807500", "132755.267500", "132755.727500", "132756.187500", "132756.647500", "132757.107500", "132757.567500", "132758.027500", "132758.487500", "132758.947500", "132759.407500", "132759.867500", "132800.327500", "132800.787500", "132801.247500", "132801.707500", "132802.167500", "132802.627500", "132803.087500", "132803.547500", "132804.007500", "132804.467500", "132804.927500", "132805.387500", "132805.847500", "132806.307500", "132806.767500", "132807.227500", "132807.687500", "132808.147500", "132808.607500", "132809.067500", "132809.527500", "132809.987500", "132810.447500", "132810.907500", "132811.367500", "132811.827500", "132812.287500", "132812.747500", "132813.207500", "132813.667500", "132814.127500", "132814.587500", "132815.047500", "132815.507500", "132815.967500", "132816.427500", "132816.887500", "132817.347500", "132817.807500", "132818.267500", "132818.727500", "132819.187500", "132819.647500", "132820.107500", "132820.567500", "132821.027500", "132821.487500", "132821.947500", "132822.407500", "132822.867500", "132823.327500", "132823.787500", "132824.247500", "132824.707500", "132825.167500", "132825.627500", "132826.087500", "132826.547500", "132827.007500", "132827.467500", "132827.927500", "132828.387500", "132828.847500", "132829.307500", "132829.767500", "132830.227500", "132830.687500", "132831.147500", "132831.607500", "132832.067500", "132832.527500", "132832.987500", "132833.447500", "132833.907500", "132834.367500", "132834.827500", "132835.287500", "132835.747500", "132836.207500", "132836.667500", "132837.127500", "132837.587500", "132838.047500", "132838.507500", "132838.967500", "132839.427500", "132839.887500", "132840.347500", "132840.807500", "132841.267500", "132841.727500", "132842.187500", "132842.647500", "132843.107500", "132843.567500", "132844.027500", "132844.487500", "132844.947500", "132845.407500", "132845.867500", "132846.327500", "132846.787500", "132847.247500", "132847.707500", "132848.167500", "132848.627500", "132849.087500", "132849.547500", "132850.007500", "132850.467500", "132850.927500", "132851.387500", "132851.847500", "132852.307500", "132852.767500", "132853.227500", "132853.687500", "132854.147500", "132854.607500", "132855.067500", "132855.527500", "132855.987500", "132856.447500", "132856.907500", "132857.367500", "132857.827500", "132858.287500", "132858.747500", "132859.207500", "132859.667500", "132900.127500", "132900.587500", "132901.047500", "132901.507500", "132901.967500", "132902.427500", "132902.887500", "132903.347500", "132903.807500", "132904.267500", "132904.727500", "132905.187500", "132905.647500", "132906.107500", "132906.567500", "132907.027500", "132907.487500", "132907.947500", "132908.407500", "132908.867500", "132909.327500", "132909.787500", "132910.247500", "132910.707500", "132911.167500", "132911.627500", "132912.087500", "132912.547500", "132913.007500", "132913.467500", "132913.927500", "132914.387500", "132914.847500", "132915.307500", "132915.767500", "132916.227500", "132916.687500", "132917.147500", "132917.607500", "132918.067500", "132918.527500", "132918.987500", "132919.447500", "132919.907500", "132920.367500", "132920.827500", "132921.287500", "132921.747500", "132922.207500", "132922.667500", "132923.127500", "132923.587500", "132924.047500", "132924.507500", "132924.967500", "132925.427500", "132925.887500", "132926.347500", "132926.807500", "132927.267500", "132927.727500", "132928.187500", "132928.647500", "132929.107500", "132929.567500", "132930.027500", "132930.487500", "132930.947500", "132931.407500", "132931.867500", "132932.327500", "132932.787500", "132933.247500", "132933.707500", "132934.167500", "132934.627500", "132935.087500", "132935.547500", "132936.007500", "132936.467500", "132936.927500", "132937.387500", "132937.847500", "132938.307500", "132938.767500", "132939.227500", "132939.687500", "132940.147500", "132940.607500", "132941.067500", "132941.527500", "132941.987500", "132942.447500", "132942.907500", "132943.367500", "132943.827500", "132944.287500", "132944.747500", "132945.207500", "132945.667500", "132946.127500", "132946.587500", "132947.047500", "132947.507500", "132947.967500", "132948.427500", "132948.887500", "132949.347500", "132949.807500", "132950.267500", "132950.727500", "132951.187500", "132951.647500", "132952.107500", "132952.567500", "132953.027500", "132953.487500", "132953.947500", "132954.407500", "132954.867500", "132955.327500", "132955.787500", "132956.247500", "132956.707500", "132957.167500", "132957.627500", "132958.087500", "132958.547500", "132959.007500", "132959.467500", "132959.927500", "133000.387500", "133000.847500", "133001.307500", "133001.767500", "133002.227500", "133002.687500", "133003.147500", "133003.607500", "133004.067500", "133004.527500", "133004.987500", "133005.447500", "133005.907500", "133006.367500", "133006.827500", "133007.287500", "133007.747500", "133008.207500", "133008.667500", "133009.127500", "133009.587500", "133010.047500", "133010.507500", "133010.967500", "133011.427500", "133011.887500", "133012.347500", "133012.807500", "133013.267500", "133013.727500", "133014.187500", "133014.647500", "133015.107500", "133015.567500", "133016.027500", "133016.487500", "133016.947500", "133017.407500", "133017.867500", "133018.327500", "133018.787500", "133019.247500", "133019.707500", "133020.167500", "133020.627500", "133021.087500", "133021.547500", "133022.007500", "133022.467500", "133022.927500", "133023.387500", "133023.847500", "133024.307500", "133024.767500", "133025.227500", "133025.687500", "133026.147500", "133026.607500", "133027.067500", "133027.527500", "133027.987500", "133028.447500", "133028.907500", "133029.367500", "133029.827500", "133030.287500", "133030.747500", "133031.207500", "133031.667500", "133032.127500", "133032.587500", "133033.047500", "133033.507500", "133033.967500", "133034.427500", "133034.887500", "133035.347500", "133035.807500", "133036.267500", "133036.727500", "133037.187500", "133037.647500", "133038.107500", "133038.567500", "133039.027500", "133039.487500", "133039.947500", "133040.407500", "133040.867500", "133041.327500", "133041.787500", "133042.247500", "133042.707500", "133043.167500", "133043.627500", "133044.087500", "133044.547500", "133045.007500", "133045.467500", "133045.927500", "133046.387500", "133046.847500", "133047.307500", "133047.767500", "133048.227500", "133048.687500", "133049.147500", "133049.607500", "133050.067500", "133050.527500", "133050.987500", "133051.447500", "133051.907500", "133052.367500", "133052.827500", "133053.287500", "133053.747500", "133054.207500", "133054.667500", "133055.127500", "133055.587500", "133056.047500", "133056.507500", "133056.967500", "133057.427500", "133057.887500", "133058.347500", "133058.807500", "133059.267500", "133059.727500", "133100.187500", "133100.647500", "133101.107500", "133101.567500", "133102.027500", "133102.487500", "133102.947500", "133103.407500", "133103.867500", "133104.327500", "133104.787500", "133105.247500", "133105.707500", "133106.167500", "133106.627500", "133107.087500", "133107.547500", "133108.007500", "133108.467500", "133108.927500", "133109.387500", "133109.847500", "133110.307500", "133110.767500", "133111.227500", "133111.687500", "133112.147500", "133112.607500", "133113.067500", "133113.527500", "133113.987500", "133114.447500", "133114.907500", "133115.367500", "133115.827500", "133116.287500", "133116.747500", "133117.207500", "133117.667500", "133118.127500", "133118.587500", "133119.047500", "133119.507500", "133119.967500", "133120.427500", "133120.887500", "133121.347500", "133121.807500", "133122.267500", "133122.727500", "133123.187500", "133123.647500", "133124.107500", "133124.567500", "133125.027500", "133125.487500", "133125.947500", "133126.407500", "133126.867500", "133127.327500", "133127.787500", "133128.247500", "133128.707500", "133129.167500", "133129.627500", "133130.087500", "133130.547500", "133131.007500", "133131.467500", "133131.927500", "133132.387500", "133132.847500", "133133.307500", "133133.767500", "133134.227500", "133134.687500", "133135.147500", "133135.607500", "133136.067500", "133136.527500", "133136.987500", "133137.447500", "133137.907500", "133138.367500", "133138.827500", "133139.287500", "133139.747500", "133140.207500", "133140.667500", "133141.127500", "133141.587500", "133142.047500", "133142.507500", "133142.967500", "133143.427500", "133143.887500", "133144.347500", "133144.807500", "133145.267500", "133145.727500", "133146.187500", "133146.647500", "133147.107500", "133147.567500", "133148.027500", "133148.487500", "133148.947500", "133149.407500", "133149.867500", "133150.327500", "133150.787500", "133151.247500", "133151.707500", "133152.167500", "133152.627500", "133153.087500", "133153.547500", "133154.007500", "133154.467500", "133154.927500", "133155.387500", "133155.847500", "133156.307500", "133156.767500", "133157.227500", "133157.687500", "133158.147500", "133158.607500", "133159.067500", "133159.527500", "133159.987500", "133200.447500", "133200.907500", "133201.367500", "133201.827500", "133202.287500", "133202.747500", "133203.207500", "133203.667500", "133204.127500", "133204.587500", "133205.047500", "133205.507500", "133205.967500", "133206.427500", "133206.887500", "133207.347500", "133207.807500", "133208.267500", "133208.727500", "133209.187500", "133209.647500", "133210.107500", "133210.567500", "133211.027500", "133211.487500", "133211.947500", "133212.407500", "133212.867500", "133213.327500", "133213.787500", "133214.247500", "133214.707500", "133215.167500", "133215.627500", "133216.087500", "133216.547500", "133217.007500", "133217.467500", "133217.927500", "133218.387500", "133218.847500", "133219.307500", "133219.767500", "133220.227500"],
