{
  "AcquisitionMatrixPE": 82,
  "AcquisitionNumber": 1,
  "AcquisitionTime": "12:57:31.355000",
  "BandwidthPerPixelPhaseEncode": 24.888,
  "BaseResolution": 82,
  "BodyPartExamined": "BRAIN",
  "ConsistencyInfo": "N4_VE11C_LATEST_20160120",
  "ConversionSoftware": "dcm2niix",
  "ConversionSoftwareVersion": "v1.0.20201102",
  "DerivedVendorReportedEchoSpacing": 0.00049,
  "DeviceSerialNumber": "66112",
  "DwellTime": 2e-06,
  "EchoTime": 0.0272,
  "EchoTrainLength": 82,
  "EffectiveEchoSpacing": 0.00049,
  "FlipAngle": 44,
  "ImageComments": "Unaliased MB8/PE3",
  "ImageOrientationPatientDICOM": [0.999621, -0.0060338, 0.0268665, 0.00226813, 0.990424, 0.138044],
  "ImageType": [
    "ORIGINAL",
    "PRIMARY",
    "M",
    "MB",
    "ND",
    "NORM",
    "MOSAIC"
],
  "ImagingFrequency": 123.252,
  "InPlanePhaseEncodingDirectionDICOM": "COL",
  "InstitutionAddress": "Maynard 3,Hanover,NH,US,03755",
  "InstitutionName": "Dartmouth College - PBS",
  "InstitutionalDepartmentName": "Department",
  "MRAcquisitionType": "2D",
  "MagneticFieldStrength": 3,
  "Manufacturer": "Siemens",
  "ManufacturersModelName": "Prisma",
  "Modality": "MR",
  "MultibandAccelerationFactor": 8,
  "PartialFourier": 1,
  "PatientPosition": "HFS",
  "PercentPhaseFOV": 100,
  "PercentSampling": 100,
  "PhaseEncodingDirection": "j-",
  "PhaseEncodingSteps": 82,
  "PhaseResolution": 1,
  "PixelBandwidth": 3050,
  "ProcedureStepDescription": "Wager_Wager^1076_spacetop",
  "ProtocolName": "func_run-01_task-social_acq-ap-mb8",
  "PulseSequenceDetails": "%CustomerSeq%\\cmrr_mbep2d_bold",
  "ReceiveCoilActiveElements": "HEA;HEP",
  "ReceiveCoilName": "Head_32",
  "ReconMatrixPE": 82,
  "RepetitionTime": 0.46,
  "SAR": 0.103517,
  "ScanOptions": "FS",
  "ScanningSequence": "EP",
  "SequenceName": "epfid2d1_82",
  "SequenceVariant": "SK\\SS",
  "SeriesDescription": "func_run-01_task-social_acq-ap-mb8",
  "SeriesNumber": 12,
  "ShimSetting": [4157, -7755, -7277, 568, -7, -32, 47, 83],
  "SliceThickness": 2.7,
  "SliceTiming": [0, 0.2525, 0.065, 0.315, 0.1275, 0.3775, 0.19, 0, 0.2525, 0.065, 0.315, 0.1275, 0.3775, 0.19, 0, 0.2525, 0.065, 0.315, 0.1275, 0.3775, 0.19, 0, 0.2525, 0.065, 0.315, 0.1275, 0.3775, 0.19, 0, 0.2525, 0.065, 0.315, 0.1275, 0.3775, 0.19, 0, 0.2525, 0.065, 0.315, 0.1275, 0.3775, 0.19, 0, 0.2525, 0.065, 0.315, 0.1275, 0.3775, 0.19, 0, 0.2525, 0.065, 0.315, 0.1275, 0.3775, 0.19],
  "SoftwareVersions": "syngo MR E11",
  "SpacingBetweenSlices": 2.7,
  "StationName": "AWP66112",
  "TaskName": "social",
  "TotalReadoutTime": 0.03969,
  "TxRefAmp": 242.849,
  "WipMemBlock": "daec1a72-bb76-4176-af31-8e6cff9f1fa1||Sequence: R016 ve11c/master r/e634e98; Dec 19 2017 11:00:25 by eja",
  "dcmmeta_affine": [
    [-2.6819095611572266, 0.006085225380957127, 0.074093759059906, 114.19893646240234],
    [0.016188250854611397, 2.657233953475952, 0.37241220474243164, -101.742919921875],
    [0.0720808282494545, -0.37036120891571045, 2.673166513442993, -50.72848892211914],
    [0.0, 0.0, 0.0, 1.0]
],
  "dcmmeta_reorient_transform": [
    [0.0, -1.0, 0.0, 81.0],
    [1.0, 0.0, 0.0, 0.0],
    [0.0, 0.0, 1.0, 0.0],
    [0.0, 0.0, 0.0, 1.0]
],
  "dcmmeta_shape": [82, 82, 56, 872],
  "dcmmeta_slice_dim": 2,
  "dcmmeta_version": 0.6,
  "global": {
    "const": {
      "AccessionNumber": "A003445",
      "AcquisitionMatrix": [82, 0, 0, 82],
      "AngioFlag": "N",
      "BitsAllocated": 16,
      "BitsStored": 16,
      "BodyPartExamined": "BRAIN",
      "Columns": 656,
      "EchoNumbers": 1,
      "EchoTime": 27.2,
      "EchoTrainLength": 82,
      "FlipAngle": 44.0,
      "HighBit": 15,
      "ImageOrientationPatient": [0.99962082056202, -0.0060338023281, 0.02686649080866, 0.00226812940663, 0.99042353845692, 0.13804372517239],
      "ImagePositionPatient": [-886.1463501278, -871.47314107273, -207.70861711947],
      "ImageType": [
        "ORIGINAL",
        "PRIMARY",
        "M",
        "MB",
        "ND",
        "NORM",
        "MOSAIC"
],
      "ImagedNucleus": "1H",
      "ImagingFrequency": 123.252158,
      "InPlanePhaseEncodingDirection": "COL",
      "MRAcquisitionType": "2D",
      "MagneticFieldStrength": 3.0,
      "Manufacturer": "SIEMENS",
      "ManufacturerModelName": "Prisma",
      "Modality": "MR",
      "NumberOfAverages": 1.0,
      "NumberOfPhaseEncodingSteps": 82,
      "PercentPhaseFieldOfView": 100.0,
      "PercentSampling": 100.0,
      "PerformedProcedureStepStartTime": "115319.472000",
      "PhotometricInterpretation": "MONOCHROME2",
      "PixelBandwidth": 3050.0,
      "PixelRepresentation": 0,
      "PixelSpacing": [2.6829268932343, 2.6829268932343],
      "ProtocolName": "func_run-01_task-social_acq-ap-mb8",
      "RepetitionTime": 460.0,
      "Rows": 656,
      "SAR": 0.10351663413589,
      "SamplesPerPixel": 1,
      "ScanOptions": "FS",
      "ScanningSequence": "EP",
      "SequenceName": "epfid2d1_82",
      "SequenceVariant": [
        "SK",
        "SS"
],
      "SeriesDescription": "func_run-01_task-social_acq-ap-mb8",
      "SeriesNumber": 12,
      "SeriesTime": "125751.637000",
      "SliceLocation": -61.123916837754,
      "SliceThickness": 2.7000000476837,
      "SmallestImagePixelValue": 0,
      "SoftwareVersions": "syngo MR E11",
      "SpacingBetweenSlices": 2.6999999235449,
      "SpecificCharacterSet": "ISO_IR 100",
      "StudyID": "1",
      "StudyTime": "115319.404000",
      "TransmitCoilName": "Body",
      "VariableFlipAngleFlag": "N",
      "WindowCenterWidthExplanation": "Algo1",
      "dBdt": 0.0},
    "slices": {}
  },
  "time": {
    "samples": {
      "AcquisitionNumber": [1, 2, 3, 4, 5, 6, 7, 8, 9, 10, 11, 12, 13, 14, 15, 16, 17, 18, 19, 20, 21, 22, 23, 24, 25, 26, 27, 28, 29, 30, 31, 32, 33, 34, 35, 36, 37, 38, 39, 40, 41, 42, 43, 44, 45, 46, 47, 48, 49, 50, 51, 52, 53, 54, 55, 56, 57, 58, 59, 60, 61, 62, 63, 64, 65, 66, 67, 68, 69, 70, 71, 72, 73, 74, 75, 76, 77, 78, 79, 80, 81, 82, 83, 84, 85, 86, 87, 88, 89, 90, 91, 92, 93, 94, 95, 96, 97, 98, 99, 100, 101, 102, 103, 104, 105, 106, 107, 108, 109, 110, 111, 112, 113, 114, 115, 116, 117, 118, 119, 120, 121, 122, 123, 124, 125, 126, 127, 128, 129, 130, 131, 132, 133, 134, 135, 136, 137, 138, 139, 140, 141, 142, 143, 144, 145, 146, 147, 148, 149, 150, 151, 152, 153, 154, 155, 156, 157, 158, 159, 160, 161, 162, 163, 164, 165, 166, 167, 168, 169, 170, 171, 172, 173, 174, 175, 176, 177, 178, 179, 180, 181, 182, 183, 184, 185, 186, 187, 188, 189, 190, 191, 192, 193, 194, 195, 196, 197, 198, 199, 200, 201, 202, 203, 204, 205, 206, 207, 208, 209, 210, 211, 212, 213, 214, 215, 216, 217, 218, 219, 220, 221, 222, 223, 224, 225, 226, 227, 228, 229, 230, 231, 232, 233, 234, 235, 236, 237, 238, 239, 240, 241, 242, 243, 244, 245, 246, 247, 248, 249, 250, 251, 252, 253, 254, 255, 256, 257, 258, 259, 260, 261, 262, 263, 264, 265, 266, 267, 268, 269, 270, 271, 272, 273, 274, 275, 276, 277, 278, 279, 280, 281, 282, 283, 284, 285, 286, 287, 288, 289, 290, 291, 292, 293, 294, 295, 296, 297, 298, 299, 300, 301, 302, 303, 304, 305, 306, 307, 308, 309, 310, 311, 312, 313, 314, 315, 316, 317, 318, 319, 320, 321, 322, 323, 324, 325, 326, 327, 328, 329, 330, 331, 332, 333, 334, 335, 336, 337, 338, 339, 340, 341, 342, 343, 344, 345, 346, 347, 348, 349, 350, 351, 352, 353, 354, 355, 356, 357, 358, 359, 360, 361, 362, 363, 364, 365, 366, 367, 368, 369, 370, 371, 372, 373, 374, 375, 376, 377, 378, 379, 380, 381, 382, 383, 384, 385, 386, 387, 388, 389, 390, 391, 392, 393, 394, 395, 396, 397, 398, 399, 400, 401, 402, 403, 404, 405, 406, 407, 408, 409, 410, 411, 412, 413, 414, 415, 416, 417, 418, 419, 420, 421, 422, 423, 424, 425, 426, 427, 428, 429, 430, 431, 432, 433, 434, 435, 436, 437, 438, 439, 440, 441, 442, 443, 444, 445, 446, 447, 448, 449, 450, 451, 452, 453, 454, 455, 456, 457, 458, 459, 460, 461, 462, 463, 464, 465, 466, 467, 468, 469, 470, 471, 472, 473, 474, 475, 476, 477, 478, 479, 480, 481, 482, 483, 484, 485, 486, 487, 488, 489, 490, 491, 492, 493, 494, 495, 496, 497, 498, 499, 500, 501, 502, 503, 504, 505, 506, 507, 508, 509, 510, 511, 512, 513, 514, 515, 516, 517, 518, 519, 520, 521, 522, 523, 524, 525, 526, 527, 528, 529, 530, 531, 532, 533, 534, 535, 536, 537, 538, 539, 540, 541, 542, 543, 544, 545, 546, 547, 548, 549, 550, 551, 552, 553, 554, 555, 556, 557, 558, 559, 560, 561, 562, 563, 564, 565, 566, 567, 568, 569, 570, 571, 572, 573, 574, 575, 576, 577, 578, 579, 580, 581, 582, 583, 584, 585, 586, 587, 588, 589, 590, 591, 592, 593, 594, 595, 596, 597, 598, 599, 600, 601, 602, 603, 604, 605, 606, 607, 608, 609, 610, 611, 612, 613, 614, 615, 616, 617, 618, 619, 620, 621, 622, 623, 624, 625, 626, 627, 628, 629, 630, 631, 632, 633, 634, 635, 636, 637, 638, 639, 640, 641, 642, 643, 644, 645, 646, 647, 648, 649, 650, 651, 652, 653, 654, 655, 656, 657, 658, 659, 660, 661, 662, 663, 664, 665, 666, 667, 668, 669, 670, 671, 672, 673, 674, 675, 676, 677, 678, 679, 680, 681, 682, 683, 684, 685, 686, 687, 688, 689, 690, 691, 692, 693, 694, 695, 696, 697, 698, 699, 700, 701, 702, 703, 704, 705, 706, 707, 708, 709, 710, 711, 712, 713, 714, 715, 716, 717, 718, 719, 720, 721, 722, 723, 724, 725, 726, 727, 728, 729, 730, 731, 732, 733, 734, 735, 736, 737, 738, 739, 740, 741, 742, 743, 744, 745, 746, 747, 748, 749, 750, 751, 752, 753, 754, 755, 756, 757, 758, 759, 760, 761, 762, 763, 764, 765, 766, 767, 768, 769, 770, 771, 772, 773, 774, 775, 776, 777, 778, 779, 780, 781, 782, 783, 784, 785, 786, 787, 788, 789, 790, 791, 792, 793, 794, 795, 796, 797, 798, 799, 800, 801, 802, 803, 804, 805, 806, 807, 808, 809, 810, 811, 812, 813, 814, 815, 816, 817, 818, 819, 820, 821, 822, 823, 824, 825, 826, 827, 828, 829, 830, 831, 832, 833, 834, 835, 836, 837, 838, 839, 840, 841, 842, 843, 844, 845, 846, 847, 848, 849, 850, 851, 852, 853, 854, 855, 856, 857, 858, 859, 860, 861, 862, 863, 864, 865, 866, 867, 868, 869, 870, 871, 872],
      "AcquisitionTime": ["125731.355000", "125731.815000", "125732.275000", "125732.735000", "125733.195000", "125733.655000", "125734.115000", "125734.575000", "125735.035000", "125735.495000", "125735.955000", "125736.415000", "125736.875000", "125737.335000", "125737.795000", "125738.255000", "125738.715000", "125739.175000", "125739.635000", "125740.095000", "125740.555000", "125741.015000", "125741.475000", "125741.935000", "125742.395000", "125742.855000", "125743.315000", "125743.775000", "125744.235000", "125744.695000", "125745.155000", "125745.615000", "125746.075000", "125746.535000", "125746.995000", "125747.455000", "125747.915000", "125748.375000", "125748.835000", "125749.295000", "125749.755000", "125750.215000", "125750.675000", "125751.135000", "125751.595000", "125752.055000", "125752.515000", "125752.975000", "125753.435000", "125753.895000", "125754.355000", "125754.815000", "125755.275000", "125755.735000", "125756.195000", "125756.655000", "125757.115000", "125757.575000", "125758.035000", "125758.495000", "125758.955000", "125759.415000", "125759.875000", "125800.335000", "125800.795000", "125801.255000", "125801.715000", "125802.175000", "125802.635000", "125803.095000", "125803.555000", "125804.015000", "125804.475000", "125804.935000", "125805.395000", "125805.855000", "125806.315000", "125806.775000", "125807.235000", "125807.695000", "125808.155000", "125808.615000", "125809.075000", "125809.535000", "125809.995000", "125810.455000", "125810.915000", "125811.375000", "125811.835000", "125812.295000", "125812.755000", "125813.215000", "125813.675000", "125814.135000", "125814.595000", "125815.055000", "125815.515000", "125815.975000", "125816.435000", "125816.895000", "125817.355000", "125817.815000", "125818.275000", "125818.735000", "125819.195000", "125819.655000", "125820.115000", "125820.575000", "125821.035000", "125821.495000", "125821.955000", "125822.415000", "125822.875000", "125823.335000", "125823.795000", "125824.255000", "125824.715000", "125825.175000", "125825.635000", "125826.095000", "125826.555000", "125827.015000", "125827.475000", "125827.935000", "125828.395000", "125828.855000", "125829.315000", "125829.775000", "125830.235000", "125830.695000", "125831.155000", "125831.615000", "125832.075000", "125832.535000", "125832.995000", "125833.455000", "125833.915000", "125834.375000", "125834.835000", "125835.295000", "125835.755000", "125836.215000", "125836.675000", "125837.135000", "125837.595000", "125838.055000", "125838.515000", "125838.975000", "125839.435000", "125839.895000", "125840.355000", "125840.815000", "125841.275000", "125841.735000", "125842.195000", "125842.655000", "125843.115000", "125843.575000", "125844.035000", "125844.495000", "125844.955000", "125845.415000", "125845.875000", "125846.335000", "125846.795000", "125847.255000", "125847.715000", "125848.175000", "125848.635000", "125849.095000", "125849.555000", "125850.015000", "125850.475000", "125850.935000", "125851.395000", "125851.855000", "125852.315000", "125852.775000", "125853.235000", "125853.695000", "125854.155000", "125854.615000", "125855.075000", "125855.535000", "125855.995000", "125856.455000", "125856.915000", "125857.375000", "125857.835000", "125858.295000", "125858.755000", "125859.215000", "125859.675000", "125900.135000", "125900.595000", "125901.055000", "125901.515000", "125901.975000", "125902.435000", "125902.895000", "125903.355000", "125903.815000", "125904.275000", "125904.735000", "125905.195000", "125905.655000", "125906.115000", "125906.575000", "125907.035000", "125907.495000", "125907.955000", "125908.415000", "125908.875000", "125909.335000", "125909.795000", "125910.255000", "125910.715000", "125911.175000", "125911.635000", "125912.095000", "125912.555000", "125913.015000", "125913.475000", "125913.935000", "125914.395000", "125914.855000", "125915.315000", "125915.775000", "125916.235000", "125916.695000", "125917.155000", "125917.615000", "125918.075000", "125918.535000", "125918.995000", "125919.455000", "125919.915000", "125920.375000", "125920.835000", "125921.295000", "125921.755000", "125922.215000", "125922.675000", "125923.135000", "125923.595000", "125924.055000", "125924.515000", "125924.975000", "125925.435000", "125925.895000", "125926.355000", "125926.815000", "125927.275000", "125927.735000", "125928.195000", "125928.655000", "125929.115000", "125929.575000", "125930.035000", "125930.495000", "125930.955000", "125931.415000", "125931.875000", "125932.335000", "125932.795000", "125933.255000", "125933.715000", "125934.175000", "125934.635000", "125935.095000", "125935.555000", "125936.015000", "125936.475000", "125936.935000", "125937.395000", "125937.855000", "125938.315000", "125938.775000", "125939.235000", "125939.695000", "125940.155000", "125940.615000", "125941.075000", "125941.535000", "125941.995000", "125942.455000", "125942.915000", "125943.375000", "125943.835000", "125944.295000", "125944.755000", "125945.215000", "125945.675000", "125946.135000", "125946.595000", "125947.055000", "125947.515000", "125947.975000", "125948.435000", "125948.895000", "125949.355000", "125949.815000", "125950.275000", "125950.735000", "125951.195000", "125951.655000", "125952.115000", "125952.575000", "125953.035000", "125953.495000", "125953.955000", "125954.415000", "125954.875000", "125955.335000", "125955.795000", "125956.255000", "125956.715000", "125957.175000", "125957.635000", "125958.095000", "125958.555000", "125959.015000", "125959.475000", "125959.935000", "130000.395000", "130000.855000", "130001.315000", "130001.775000", "130002.235000", "130002.695000", "130003.155000", "130003.615000", "130004.075000", "130004.535000", "130004.995000", "130005.455000", "130005.915000", "130006.375000", "130006.835000", "130007.295000", "130007.755000", "130008.215000", "130008.675000", "130009.135000", "130009.595000", "130010.055000", "130010.515000", "130010.975000", "130011.435000", "130011.895000", "130012.355000", "130012.815000", "130013.275000", "130013.735000", "130014.195000", "130014.655000", "130015.115000", "130015.575000", "130016.035000", "130016.495000", "130016.955000", "130017.415000", "130017.875000", "130018.335000", "130018.795000", "130019.255000", "130019.715000", "130020.175000", "130020.635000", "130021.095000", "130021.555000", "130022.015000", "130022.475000", "130022.935000", "130023.395000", "130023.855000", "130024.315000", "130024.775000", "130025.235000", "130025.695000", "130026.155000", "130026.615000", "130027.075000", "130027.535000", "130027.995000", "130028.455000", "130028.915000", "130029.375000", "130029.835000", "130030.295000", "130030.755000", "130031.215000", "130031.675000", "130032.135000", "130032.595000", "130033.055000", "130033.515000", "130033.975000", "130034.435000", "130034.895000", "130035.355000", "130035.815000", "130036.275000", "130036.735000", "130037.195000", "130037.655000", "130038.115000", "130038.575000", "130039.035000", "130039.495000", "130039.955000", "130040.415000", "130040.875000", "130041.335000", "130041.795000", "130042.255000", "130042.715000", "130043.175000", "130043.635000", "130044.095000", "130044.555000", "130045.015000", "130045.475000", "130045.935000", "130046.395000", "130046.855000", "130047.315000", "130047.775000", "130048.235000", "130048.695000", "130049.155000", "130049.615000", "130050.075000", "130050.535000", "130050.995000", "130051.455000", "130051.915000", "130052.375000", "130052.835000", "130053.295000", "130053.755000", "130054.215000", "130054.675000", "130055.135000", "130055.595000", "130056.055000", "130056.515000", "130056.975000", "130057.435000", "130057.895000", "130058.355000", "130058.815000", "130059.275000", "130059.735000", "130100.195000", "130100.655000", "130101.115000", "130101.575000", "130102.035000", "130102.495000", "130102.955000", "130103.415000", "130103.875000", "130104.335000", "130104.795000", "130105.255000", "130105.715000", "130106.175000", "130106.635000", "130107.095000", "130107.555000", "130108.015000", "130108.475000", "130108.935000", "130109.395000", "130109.855000", "130110.315000", "130110.775000", "130111.235000", "130111.695000", "130112.155000", "130112.615000", "130113.075000", "130113.535000", "130113.995000", "130114.455000", "130114.915000", "130115.375000", "130115.835000", "130116.295000", "130116.755000", "130117.215000", "130117.675000", "130118.135000", "130118.595000", "130119.055000", "130119.515000", "130119.975000", "130120.435000", "130120.895000", "130121.355000", "130121.815000", "130122.275000", "130122.735000", "130123.195000", "130123.655000", "130124.115000", "130124.575000", "130125.035000", "130125.495000", "130125.955000", "130126.415000", "130126.875000", "130127.335000", "130127.795000", "130128.255000", "130128.715000", "130129.175000", "130129.635000", "130130.095000", "130130.555000", "130131.015000", "130131.475000", "130131.935000", "130132.395000", "130132.855000", "130133.315000", "130133.775000", "130134.235000", "130134.695000", "130135.155000", "130135.615000", "130136.075000", "130136.535000", "130136.995000", "130137.455000", "130137.915000", "130138.375000", "130138.835000", "130139.295000", "130139.755000", "130140.215000", "130140.675000", "130141.135000", "130141.595000", "130142.055000", "130142.515000", "130142.975000", "130143.435000", "130143.895000", "130144.355000", "130144.815000", "130145.275000", "130145.735000", "130146.195000", "130146.655000", "130147.115000", "130147.575000", "130148.035000", "130148.495000", "130148.955000", "130149.415000", "130149.875000", "130150.335000", "130150.795000", "130151.255000", "130151.715000", "130152.175000", "130152.635000", "130153.095000", "130153.555000", "130154.015000", "130154.475000", "130154.935000", "130155.395000", "130155.855000", "130156.315000", "130156.775000", "130157.235000", "130157.695000", "130158.155000", "130158.615000", "130159.075000", "130159.535000", "130159.995000", "130200.455000", "130200.915000", "130201.375000", "130201.835000", "130202.295000", "130202.755000", "130203.215000", "130203.675000", "130204.135000", "130204.595000", "130205.055000", "130205.515000", "130205.975000", "130206.435000", "130206.895000", "130207.355000", "130207.815000", "130208.275000", "130208.735000", "130209.195000", "130209.655000", "130210.115000", "130210.575000", "130211.035000", "130211.495000", "130211.955000", "130212.415000", "130212.875000", "130213.335000", "130213.795000", "130214.255000", "130214.715000", "130215.175000", "130215.635000", "130216.095000", "130216.555000", "130217.015000", "130217.475000", "130217.935000", "130218.395000", "130218.855000", "130219.315000", "130219.775000", "130220.235000", "130220.695000", "130221.155000", "130221.615000", "130222.075000", "130222.535000", "130222.995000", "130223.455000", "130223.915000", "130224.375000", "130224.835000", "130225.295000", "130225.755000", "130226.215000", "130226.675000", "130227.135000", "130227.595000", "130228.055000", "130228.515000", "130228.975000", "130229.435000", "130229.895000", "130230.355000", "130230.815000", "130231.275000", "130231.735000", "130232.195000", "130232.655000", "130233.115000", "130233.575000", "130234.035000", "130234.495000", "130234.955000", "130235.415000", "130235.875000", "130236.335000", "130236.795000", "130237.255000", "130237.715000", "130238.175000", "130238.635000", "130239.095000", "130239.555000", "130240.015000", "130240.475000", "130240.935000", "130241.395000", "130241.855000", "130242.315000", "130242.775000", "130243.235000", "130243.695000", "130244.155000", "130244.615000", "130245.075000", "130245.535000", "130245.995000", "130246.455000", "130246.915000", "130247.375000", "130247.835000", "130248.295000", "130248.755000", "130249.215000", "130249.675000", "130250.135000", "130250.595000", "130251.055000", "130251.515000", "130251.975000", "130252.435000", "130252.895000", "130253.355000", "130253.815000", "130254.275000", "130254.735000", "130255.195000", "130255.655000", "130256.115000", "130256.575000", "130257.035000", "130257.495000", "130257.955000", "130258.415000", "130258.875000", "130259.335000", "130259.795000", "130300.255000", "130300.715000", "130301.175000", "130301.635000", "130302.095000", "130302.555000", "130303.015000", "130303.475000", "130303.935000", "130304.395000", "130304.855000", "130305.315000", "130305.775000", "130306.235000", "130306.695000", "130307.155000", "130307.615000", "130308.075000", "130308.535000", "130308.995000", "130309.455000", "130309.915000", "130310.375000", "130310.835000", "130311.295000", "130311.755000", "130312.215000", "130312.675000", "130313.135000", "130313.595000", "130314.055000", "130314.515000", "130314.975000", "130315.435000", "130315.895000", "130316.355000", "130316.815000", "130317.275000", "130317.735000", "130318.195000", "130318.655000", "130319.115000", "130319.575000", "130320.035000", "130320.495000", "130320.955000", "130321.415000", "130321.875000", "130322.335000", "130322.795000", "130323.255000", "130323.715000", "130324.175000", "130324.635000", "130325.095000", "130325.555000", "130326.015000", "130326.475000", "130326.935000", "130327.395000", "130327.855000", "130328.315000", "130328.775000", "130329.235000", "130329.695000", "130330.155000", "130330.615000", "130331.075000", "130331.535000", "130331.995000", "130332.455000", "130332.915000", "130333.375000", "130333.835000", "130334.295000", "130334.755000", "130335.215000", "130335.675000", "130336.135000", "130336.595000", "130337.055000", "130337.515000", "130337.975000", "130338.435000", "130338.895000", "130339.355000", "130339.815000", "130340.275000", "130340.735000", "130341.195000", "130341.655000", "130342.115000", "130342.575000", "130343.035000", "130343.495000", "130343.955000", "130344.415000", "130344.875000", "130345.335000", "130345.795000", "130346.255000", "130346.715000", "130347.175000", "130347.635000", "130348.095000", "130348.555000", "130349.015000", "130349.475000", "130349.935000", "130350.395000", "130350.855000", "130351.315000", "130351.775000", "130352.235000", "130352.695000", "130353.155000", "130353.615000", "130354.075000", "130354.535000", "130354.995000", "130355.455000", "130355.915000", "130356.375000", "130356.835000", "130357.295000", "130357.755000", "130358.215000", "130358.675000", "130359.135000", "130359.595000", "130400.055000", "130400.515000", "130400.975000", "130401.435000", "130401.895000", "130402.355000", "130402.815000", "130403.275000", "130403.735000", "130404.195000", "130404.655000", "130405.115000", "130405.575000", "130406.035000", "130406.495000", "130406.955000", "130407.415000", "130407.875000", "130408.335000", "130408.795000", "130409.255000", "130409.715000", "130410.175000", "130410.635000", "130411.095000", "130411.555000", "130412.015000"],
