{
  "AcquisitionMatrixPE": 82,
  "AcquisitionNumber": 1,
  "AcquisitionTime": "13:38:4.632500",
  "BandwidthPerPixelPhaseEncode": 24.888,
  "BaseResolution": 82,
  "BodyPartExamined": "BRAIN",
  "ConsistencyInfo": "N4_VE11C_LATEST_20160120",
  "ConversionSoftware": "dcm2niix",
  "ConversionSoftwareVersion": "v1.0.20201102",
  "DerivedVendorReportedEchoSpacing": 0.00049,
  "DeviceSerialNumber": "66112",
  "DwellTime": 2e-06,
  "EchoTime": 0.0272,
  "EchoTrainLength": 82,
  "EffectiveEchoSpacing": 0.00049,
  "FlipAngle": 44,
  "ImageComments": "Unaliased MB8/PE3",
  "ImageOrientationPatientDICOM": [0.999621, -0.0060338, 0.0268665, 0.00226813, 0.990424, 0.138044],
  "ImageType": [
    "ORIGINAL",
    "PRIMARY",
    "M",
    "MB",
    "ND",
    "NORM",
    "MOSAIC"
],
  "ImagingFrequency": 123.252,
  "InPlanePhaseEncodingDirectionDICOM": "COL",
  "InstitutionAddress": "Maynard 3,Hanover,NH,US,03755",
  "InstitutionName": "Dartmouth College - PBS",
  "InstitutionalDepartmentName": "Department",
  "MRAcquisitionType": "2D",
  "MagneticFieldStrength": 3,
  "Manufacturer": "Siemens",
  "ManufacturersModelName": "Prisma",
  "Modality": "MR",
  "MultibandAccelerationFactor": 8,
  "PartialFourier": 1,
  "PatientPosition": "HFS",
  "PercentPhaseFOV": 100,
  "PercentSampling": 100,
  "PhaseEncodingDirection": "j-",
  "PhaseEncodingSteps": 82,
  "PhaseResolution": 1,
  "PixelBandwidth": 3050,
  "ProcedureStepDescription": "Wager_Wager^1076_spacetop",
  "ProtocolName": "func_run-06_task-social_acq-ap-mb8",
  "PulseSequenceDetails": "%CustomerSeq%\\cmrr_mbep2d_bold",
  "ReceiveCoilActiveElements": "HEA;HEP",
  "ReceiveCoilName": "Head_32",
  "ReconMatrixPE": 82,
  "RepetitionTime": 0.46,
  "SAR": 0.103517,
  "ScanOptions": "FS",
  "ScanningSequence": "EP",
  "SequenceName": "epfid2d1_82",
  "SequenceVariant": "SK\\SS",
  "SeriesDescription": "func_run-06_task-social_acq-ap-mb8",
  "SeriesNumber": 22,
  "ShimSetting": [4157, -7755, -7277, 568, -7, -32, 47, 83],
  "SliceThickness": 2.7,
  "SliceTiming": [0, 0.2525, 0.0625, 0.315, 0.1275, 0.3775, 0.19, 0, 0.2525, 0.0625, 0.315, 0.1275, 0.3775, 0.19, 0, 0.2525, 0.0625, 0.315, 0.1275, 0.3775, 0.19, 0, 0.2525, 0.0625, 0.315, 0.1275, 0.3775, 0.19, 0, 0.2525, 0.0625, 0.315, 0.1275, 0.3775, 0.19, 0, 0.2525, 0.0625, 0.315, 0.1275, 0.3775, 0.19, 0, 0.2525, 0.0625, 0.315, 0.1275, 0.3775, 0.19, 0, 0.2525, 0.0625, 0.315, 0.1275, 0.3775, 0.19],
  "SoftwareVersions": "syngo MR E11",
  "SpacingBetweenSlices": 2.7,
  "StationName": "AWP66112",
  "TaskName": "social",
  "TotalReadoutTime": 0.03969,
  "TxRefAmp": 242.849,
  "WipMemBlock": "944fb377-fa1c-40a0-9fdf-96c310db4291||Sequence: R016 ve11c/master r/e634e98; Dec 19 2017 11:00:25 by eja",
  "dcmmeta_affine": [
    [-2.6819095611572266, 0.006085225380957127, 0.074093759059906, 114.19893646240234],
    [0.016188250854611397, 2.657233953475952, 0.37241220474243164, -101.742919921875],
    [0.0720808282494545, -0.37036120891571045, 2.673166513442993, -50.72848892211914],
    [0.0, 0.0, 0.0, 1.0]
],
  "dcmmeta_reorient_transform": [
    [0.0, -1.0, 0.0, 81.0],
    [1.0, 0.0, 0.0, 0.0],
    [0.0, 0.0, 1.0, 0.0],
    [0.0, 0.0, 0.0, 1.0]
],
  "dcmmeta_shape": [82, 82, 56, 872],
  "dcmmeta_slice_dim": 2,
  "dcmmeta_version": 0.6,
  "global": {
    "const": {
      "AccessionNumber": "A003445",
      "AcquisitionMatrix": [82, 0, 0, 82],
      "AngioFlag": "N",
      "BitsAllocated": 16,
      "BitsStored": 16,
      "BodyPartExamined": "BRAIN",
      "Columns": 656,
      "EchoNumbers": 1,
      "EchoTime": 27.2,
      "EchoTrainLength": 82,
      "FlipAngle": 44.0,
      "HighBit": 15,
      "ImageOrientationPatient": [0.99962082056202, -0.0060338023281, 0.02686649080866, 0.00226812940663, 0.99042353845692, 0.13804372517239],
      "ImagePositionPatient": [-886.1463501278, -871.47314107273, -207.70861711947],
      "ImageType": [
        "ORIGINAL",
        "PRIMARY",
        "M",
        "MB",
        "ND",
        "NORM",
        "MOSAIC"
],
      "ImagedNucleus": "1H",
      "ImagingFrequency": 123.252172,
      "InPlanePhaseEncodingDirection": "COL",
      "MRAcquisitionType": "2D",
      "MagneticFieldStrength": 3.0,
      "Manufacturer": "SIEMENS",
      "ManufacturerModelName": "Prisma",
      "Modality": "MR",
      "NumberOfAverages": 1.0,
      "NumberOfPhaseEncodingSteps": 82,
      "PercentPhaseFieldOfView": 100.0,
      "PercentSampling": 100.0,
      "PerformedProcedureStepStartTime": "115319.472000",
      "PhotometricInterpretation": "MONOCHROME2",
      "PixelBandwidth": 3050.0,
      "PixelRepresentation": 0,
      "PixelSpacing": [2.6829268932343, 2.6829268932343],
      "ProtocolName": "func_run-06_task-social_acq-ap-mb8",
      "RepetitionTime": 460.0,
      "Rows": 656,
      "SAR": 0.10351663413589,
      "SamplesPerPixel": 1,
      "ScanOptions": "FS",
      "ScanningSequence": "EP",
      "SequenceName": "epfid2d1_82",
      "SequenceVariant": [
        "SK",
        "SS"
],
      "SeriesDescription": "func_run-06_task-social_acq-ap-mb8",
      "SeriesNumber": 22,
      "SeriesTime": "133831.637000",
      "SliceLocation": -61.123916837754,
      "SliceThickness": 2.7000000476837,
      "SmallestImagePixelValue": 0,
      "SoftwareVersions": "syngo MR E11",
      "SpacingBetweenSlices": 2.6999999235449,
      "SpecificCharacterSet": "ISO_IR 100",
      "StudyID": "1",
      "StudyTime": "115319.404000",
      "TransmitCoilName": "Body",
      "VariableFlipAngleFlag": "N",
      "WindowCenterWidthExplanation": "Algo1",
      "dBdt": 0.0},
    "slices": {}
  },
  "time": {
    "samples": {
      "AcquisitionNumber": [1, 2, 3, 4, 5, 6, 7, 8, 9, 10, 11, 12, 13, 14, 15, 16, 17, 18, 19, 20, 21, 22, 23, 24, 25, 26, 27, 28, 29, 30, 31, 32, 33, 34, 35, 36, 37, 38, 39, 40, 41, 42, 43, 44, 45, 46, 47, 48, 49, 50, 51, 52, 53, 54, 55, 56, 57, 58, 59, 60, 61, 62, 63, 64, 65, 66, 67, 68, 69, 70, 71, 72, 73, 74, 75, 76, 77, 78, 79, 80, 81, 82, 83, 84, 85, 86, 87, 88, 89, 90, 91, 92, 93, 94, 95, 96, 97, 98, 99, 100, 101, 102, 103, 104, 105, 106, 107, 108, 109, 110, 111, 112, 113, 114, 115, 116, 117, 118, 119, 120, 121, 122, 123, 124, 125, 126, 127, 128, 129, 130, 131, 132, 133, 134, 135, 136, 137, 138, 139, 140, 141, 142, 143, 144, 145, 146, 147, 148, 149, 150, 151, 152, 153, 154, 155, 156, 157, 158, 159, 160, 161, 162, 163, 164, 165, 166, 167, 168, 169, 170, 171, 172, 173, 174, 175, 176, 177, 178, 179, 180, 181, 182, 183, 184, 185, 186, 187, 188, 189, 190, 191, 192, 193, 194, 195, 196, 197, 198, 199, 200, 201, 202, 203, 204, 205, 206, 207, 208, 209, 210, 211, 212, 213, 214, 215, 216, 217, 218, 219, 220, 221, 222, 223, 224, 225, 226, 227, 228, 229, 230, 231, 232, 233, 234, 235, 236, 237, 238, 239, 240, 241, 242, 243, 244, 245, 246, 247, 248, 249, 250, 251, 252, 253, 254, 255, 256, 257, 258, 259, 260, 261, 262, 263, 264, 265, 266, 267, 268, 269, 270, 271, 272, 273, 274, 275, 276, 277, 278, 279, 280, 281, 282, 283, 284, 285, 286, 287, 288, 289, 290, 291, 292, 293, 294, 295, 296, 297, 298, 299, 300, 301, 302, 303, 304, 305, 306, 307, 308, 309, 310, 311, 312, 313, 314, 315, 316, 317, 318, 319, 320, 321, 322, 323, 324, 325, 326, 327, 328, 329, 330, 331, 332, 333, 334, 335, 336, 337, 338, 339, 340, 341, 342, 343, 344, 345, 346, 347, 348, 349, 350, 351, 352, 353, 354, 355, 356, 357, 358, 359, 360, 361, 362, 363, 364, 365, 366, 367, 368, 369, 370, 371, 372, 373, 374, 375, 376, 377, 378, 379, 380, 381, 382, 383, 384, 385, 386, 387, 388, 389, 390, 391, 392, 393, 394, 395, 396, 397, 398, 399, 400, 401, 402, 403, 404, 405, 406, 407, 408, 409, 410, 411, 412, 413, 414, 415, 416, 417, 418, 419, 420, 421, 422, 423, 424, 425, 426, 427, 428, 429, 430, 431, 432, 433, 434, 435, 436, 437, 438, 439, 440, 441, 442, 443, 444, 445, 446, 447, 448, 449, 450, 451, 452, 453, 454, 455, 456, 457, 458, 459, 460, 461, 462, 463, 464, 465, 466, 467, 468, 469, 470, 471, 472, 473, 474, 475, 476, 477, 478, 479, 480, 481, 482, 483, 484, 485, 486, 487, 488, 489, 490, 491, 492, 493, 494, 495, 496, 497, 498, 499, 500, 501, 502, 503, 504, 505, 506, 507, 508, 509, 510, 511, 512, 513, 514, 515, 516, 517, 518, 519, 520, 521, 522, 523, 524, 525, 526, 527, 528, 529, 530, 531, 532, 533, 534, 535, 536, 537, 538, 539, 540, 541, 542, 543, 544, 545, 546, 547, 548, 549, 550, 551, 552, 553, 554, 555, 556, 557, 558, 559, 560, 561, 562, 563, 564, 565, 566, 567, 568, 569, 570, 571, 572, 573, 574, 575, 576, 577, 578, 579, 580, 581, 582, 583, 584, 585, 586, 587, 588, 589, 590, 591, 592, 593, 594, 595, 596, 597, 598, 599, 600, 601, 602, 603, 604, 605, 606, 607, 608, 609, 610, 611, 612, 613, 614, 615, 616, 617, 618, 619, 620, 621, 622, 623, 624, 625, 626, 627, 628, 629, 630, 631, 632, 633, 634, 635, 636, 637, 638, 639, 640, 641, 642, 643, 644, 645, 646, 647, 648, 649, 650, 651, 652, 653, 654, 655, 656, 657, 658, 659, 660, 661, 662, 663, 664, 665, 666, 667, 668, 669, 670, 671, 672, 673, 674, 675, 676, 677, 678, 679, 680, 681, 682, 683, 684, 685, 686, 687, 688, 689, 690, 691, 692, 693, 694, 695, 696, 697, 698, 699, 700, 701, 702, 703, 704, 705, 706, 707, 708, 709, 710, 711, 712, 713, 714, 715, 716, 717, 718, 719, 720, 721, 722, 723, 724, 725, 726, 727, 728, 729, 730, 731, 732, 733, 734, 735, 736, 737, 738, 739, 740, 741, 742, 743, 744, 745, 746, 747, 748, 749, 750, 751, 752, 753, 754, 755, 756, 757, 758, 759, 760, 761, 762, 763, 764, 765, 766, 767, 768, 769, 770, 771, 772, 773, 774, 775, 776, 777, 778, 779, 780, 781, 782, 783, 784, 785, 786, 787, 788, 789, 790, 791, 792, 793, 794, 795, 796, 797, 798, 799, 800, 801, 802, 803, 804, 805, 806, 807, 808, 809, 810, 811, 812, 813, 814, 815, 816, 817, 818, 819, 820, 821, 822, 823, 824, 825, 826, 827, 828, 829, 830, 831, 832, 833, 834, 835, 836, 837, 838, 839, 840, 841, 842, 843, 844, 845, 846, 847, 848, 849, 850, 851, 852, 853, 854, 855, 856, 857, 858, 859, 860, 861, 862, 863, 864, 865, 866, 867, 868, 869, 870, 871, 872],
      "AcquisitionTime": ["133804.632500", "133805.092500", "133805.552500", "133806.012500", "133806.472500", "133806.932500", "133807.392500", "133807.852500", "133808.312500", "133808.772500", "133809.232500", "133809.692500", "133810.152500", "133810.612500", "133811.072500", "133811.532500", "133811.992500", "133812.452500", "133812.912500", "133813.372500", "133813.832500", "133814.292500", "133814.752500", "133815.212500", "133815.672500", "133816.132500", "133816.592500", "133817.052500", "133817.512500", "133817.972500", "133818.432500", "133818.892500", "133819.352500", "133819.812500", "133820.272500", "133820.732500", "133821.192500", "133821.652500", "133822.112500", "133822.572500", "133823.032500", "133823.492500", "133823.952500", "133824.412500", "133824.872500", "133825.332500", "133825.792500", "133826.252500", "133826.712500", "133827.172500", "133827.632500", "133828.092500", "133828.552500", "133829.012500", "133829.472500", "133829.932500", "133830.392500", "133830.852500", "133831.312500", "133831.772500", "133832.232500", "133832.692500", "133833.152500", "133833.612500", "133834.072500", "133834.532500", "133834.992500", "133835.452500", "133835.912500", "133836.372500", "133836.832500", "133837.292500", "133837.752500", "133838.212500", "133838.672500", "133839.132500", "133839.592500", "133840.052500", "133840.512500", "133840.972500", "133841.432500", "133841.892500", "133842.352500", "133842.812500", "133843.272500", "133843.732500", "133844.192500", "133844.652500", "133845.112500", "133845.572500", "133846.032500", "133846.492500", "133846.952500", "133847.412500", "133847.872500", "133848.332500", "133848.792500", "133849.252500", "133849.712500", "133850.172500", "133850.632500", "133851.092500", "133851.552500", "133852.012500", "133852.472500", "133852.932500", "133853.392500", "133853.852500", "133854.312500", "133854.772500", "133855.232500", "133855.692500", "133856.152500", "133856.612500", "133857.072500", "133857.532500", "133857.992500", "133858.452500", "133858.912500", "133859.372500", "133859.832500", "133900.292500", "133900.752500", "133901.212500", "133901.672500", "133902.132500", "133902.592500", "133903.052500", "133903.512500", "133903.972500", "133904.432500", "133904.892500", "133905.352500", "133905.812500", "133906.272500", "133906.732500", "133907.192500", "133907.652500", "133908.112500", "133908.572500", "133909.032500", "133909.492500", "133909.952500", "133910.412500", "133910.872500", "133911.332500", "133911.792500", "133912.252500", "133912.712500", "133913.172500", "133913.632500", "133914.092500", "133914.552500", "133915.012500", "133915.472500", "133915.932500", "133916.392500", "133916.852500", "133917.312500", "133917.772500", "133918.232500", "133918.692500", "133919.152500", "133919.612500", "133920.072500", "133920.532500", "133920.992500", "133921.452500", "133921.912500", "133922.372500", "133922.832500", "133923.292500", "133923.752500", "133924.212500", "133924.672500", "133925.132500", "133925.592500", "133926.052500", "133926.512500", "133926.972500", "133927.432500", "133927.892500", "133928.352500", "133928.812500", "133929.272500", "133929.732500", "133930.192500", "133930.652500", "133931.112500", "133931.572500", "133932.032500", "133932.492500", "133932.952500", "133933.412500", "133933.872500", "133934.332500", "133934.792500", "133935.252500", "133935.712500", "133936.172500", "133936.632500", "133937.092500", "133937.552500", "133938.012500", "133938.472500", "133938.932500", "133939.392500", "133939.852500", "133940.312500", "133940.772500", "133941.232500", "133941.692500", "133942.152500", "133942.612500", "133943.072500", "133943.532500", "133943.992500", "133944.452500", "133944.912500", "133945.372500", "133945.832500", "133946.292500", "133946.752500", "133947.212500", "133947.672500", "133948.132500", "133948.592500", "133949.052500", "133949.512500", "133949.972500", "133950.432500", "133950.892500", "133951.352500", "133951.812500", "133952.272500", "133952.732500", "133953.192500", "133953.652500", "133954.112500", "133954.572500", "133955.032500", "133955.492500", "133955.952500", "133956.412500", "133956.872500", "133957.332500", "133957.792500", "133958.252500", "133958.712500", "133959.172500", "133959.632500", "134000.092500", "134000.552500", "134001.012500", "134001.472500", "134001.932500", "134002.392500", "134002.852500", "134003.312500", "134003.772500", "134004.232500", "134004.692500", "134005.152500", "134005.612500", "134006.072500", "134006.532500", "134006.992500", "134007.452500", "134007.912500", "134008.372500", "134008.832500", "134009.292500", "134009.752500", "134010.212500", "134010.672500", "134011.132500", "134011.592500", "134012.052500", "134012.512500", "134012.972500", "134013.432500", "134013.892500", "134014.352500", "134014.812500", "134015.272500", "134015.732500", "134016.192500", "134016.652500", "134017.112500", "134017.572500", "134018.032500", "134018.492500", "134018.952500", "134019.412500", "134019.872500", "134020.332500", "134020.792500", "134021.252500", "134021.712500", "134022.172500", "134022.632500", "134023.092500", "134023.552500", "134024.012500", "134024.472500", "134024.932500", "134025.392500", "134025.852500", "134026.312500", "134026.772500", "134027.232500", "134027.692500", "134028.152500", "134028.612500", "134029.072500", "134029.532500", "134029.992500", "134030.452500", "134030.912500", "134031.372500", "134031.832500", "134032.292500", "134032.752500", "134033.212500", "134033.672500", "134034.132500", "134034.592500", "134035.052500", "134035.512500", "134035.972500", "134036.432500", "134036.892500", "134037.352500", "134037.812500", "134038.272500", "134038.732500", "134039.192500", "134039.652500", "134040.112500", "134040.572500", "134041.032500", "134041.492500", "134041.952500", "134042.412500", "134042.872500", "134043.332500", "134043.792500", "134044.252500", "134044.712500", "134045.172500", "134045.632500", "134046.092500", "134046.552500", "134047.012500", "134047.472500", "134047.932500", "134048.392500", "134048.852500", "134049.312500", "134049.772500", "134050.232500", "134050.692500", "134051.152500", "134051.612500", "134052.072500", "134052.532500", "134052.992500", "134053.452500", "134053.912500", "134054.372500", "134054.832500", "134055.292500", "134055.752500", "134056.212500", "134056.672500", "134057.132500", "134057.592500", "134058.052500", "134058.512500", "134058.972500", "134059.432500", "134059.892500", "134100.352500", "134100.812500", "134101.272500", "134101.732500", "134102.192500", "134102.652500", "134103.112500", "134103.572500", "134104.032500", "134104.492500", "134104.952500", "134105.412500", "134105.872500", "134106.332500", "134106.792500", "134107.252500", "134107.712500", "134108.172500", "134108.632500", "134109.092500", "134109.552500", "134110.012500", "134110.472500", "134110.932500", "134111.392500", "134111.852500", "134112.312500", "134112.772500", "134113.232500", "134113.692500", "134114.152500", "134114.612500", "134115.072500", "134115.532500", "134115.992500", "134116.452500", "134116.912500", "134117.372500", "134117.832500", "134118.292500", "134118.752500", "134119.212500", "134119.672500", "134120.132500", "134120.592500", "134121.052500", "134121.512500", "134121.972500", "134122.432500", "134122.892500", "134123.352500", "134123.812500", "134124.272500", "134124.732500", "134125.192500", "134125.652500", "134126.112500", "134126.572500", "134127.032500", "134127.492500", "134127.952500", "134128.412500", "134128.872500", "134129.332500", "134129.792500", "134130.252500", "134130.712500", "134131.172500", "134131.632500", "134132.092500", "134132.552500", "134133.012500", "134133.472500", "134133.932500", "134134.392500", "134134.852500", "134135.312500", "134135.772500", "134136.232500", "134136.692500", "134137.152500", "134137.612500", "134138.072500", "134138.532500", "134138.992500", "134139.452500", "134139.912500", "134140.372500", "134140.832500", "134141.292500", "134141.752500", "134142.212500", "134142.672500", "134143.132500", "134143.592500", "134144.052500", "134144.512500", "134144.972500", "134145.432500", "134145.892500", "134146.352500", "134146.812500", "134147.272500", "134147.732500", "134148.192500", "134148.652500", "134149.112500", "134149.572500", "134150.032500", "134150.492500", "134150.952500", "134151.412500", "134151.872500", "134152.332500", "134152.792500", "134153.252500", "134153.712500", "134154.172500", "134154.632500", "134155.092500", "134155.552500", "134156.012500", "134156.472500", "134156.932500", "134157.392500", "134157.852500", "134158.312500", "134158.772500", "134159.232500", "134159.692500", "134200.152500", "134200.612500", "134201.072500", "134201.532500", "134201.992500", "134202.452500", "134202.912500", "134203.372500", "134203.832500", "134204.292500", "134204.752500", "134205.212500", "134205.672500", "134206.132500", "134206.592500", "134207.052500", "134207.512500", "134207.972500", "134208.432500", "134208.892500", "134209.352500", "134209.812500", "134210.272500", "134210.732500", "134211.192500", "134211.652500", "134212.112500", "134212.572500", "134213.032500", "134213.492500", "134213.952500", "134214.412500", "134214.872500", "134215.332500", "134215.792500", "134216.252500", "134216.712500", "134217.172500", "134217.632500", "134218.092500", "134218.552500", "134219.012500", "134219.472500", "134219.932500", "134220.392500", "134220.852500", "134221.312500", "134221.772500", "134222.232500", "134222.692500", "134223.152500", "134223.612500", "134224.072500", "134224.532500", "134224.992500", "134225.452500", "134225.912500", "134226.372500", "134226.832500", "134227.292500", "134227.752500", "134228.212500", "134228.672500", "134229.132500", "134229.592500", "134230.052500", "134230.512500", "134230.972500", "134231.432500", "134231.892500", "134232.352500", "134232.812500", "134233.272500", "134233.732500", "134234.192500", "134234.652500", "134235.112500", "134235.572500", "134236.032500", "134236.492500", "134236.952500", "134237.412500", "134237.872500", "134238.332500", "134238.792500", "134239.252500", "134239.712500", "134240.172500", "134240.632500", "134241.092500", "134241.552500", "134242.012500", "134242.472500", "134242.932500", "134243.392500", "134243.852500", "134244.312500", "134244.772500", "134245.232500", "134245.692500", "134246.152500", "134246.612500", "134247.072500", "134247.532500", "134247.992500", "134248.452500", "134248.912500", "134249.372500", "134249.832500", "134250.292500", "134250.752500", "134251.212500", "134251.672500", "134252.132500", "134252.592500", "134253.052500", "134253.512500", "134253.972500", "134254.432500", "134254.892500", "134255.352500", "134255.812500", "134256.272500", "134256.732500", "134257.192500", "134257.652500", "134258.112500", "134258.572500", "134259.032500", "134259.492500", "134259.952500", "134300.412500", "134300.872500", "134301.332500", "134301.792500", "134302.252500", "134302.712500", "134303.172500", "134303.632500", "134304.092500", "134304.552500", "134305.012500", "134305.472500", "134305.932500", "134306.392500", "134306.852500", "134307.312500", "134307.772500", "134308.232500", "134308.692500", "134309.152500", "134309.612500", "134310.072500", "134310.532500", "134310.992500", "134311.452500", "134311.912500", "134312.372500", "134312.832500", "134313.292500", "134313.752500", "134314.212500", "134314.672500", "134315.132500", "134315.592500", "134316.052500", "134316.512500", "134316.972500", "134317.432500", "134317.892500", "134318.352500", "134318.812500", "134319.272500", "134319.732500", "134320.192500", "134320.652500", "134321.112500", "134321.572500", "134322.032500", "134322.492500", "134322.952500", "134323.412500", "134323.872500", "134324.332500", "134324.792500", "134325.252500", "134325.712500", "134326.172500", "134326.632500", "134327.092500", "134327.552500", "134328.012500", "134328.472500", "134328.932500", "134329.392500", "134329.852500", "134330.312500", "134330.772500", "134331.232500", "134331.692500", "134332.152500", "134332.612500", "134333.072500", "134333.532500", "134333.992500", "134334.452500", "134334.912500", "134335.372500", "134335.832500", "134336.292500", "134336.752500", "134337.212500", "134337.672500", "134338.132500", "134338.592500", "134339.052500", "134339.512500", "134339.972500", "134340.432500", "134340.892500", "134341.352500", "134341.812500", "134342.272500", "134342.732500", "134343.192500", "134343.652500", "134344.112500", "134344.572500", "134345.032500", "134345.492500", "134345.952500", "134346.412500", "134346.872500", "134347.332500", "134347.792500", "134348.252500", "134348.712500", "134349.172500", "134349.632500", "134350.092500", "134350.552500", "134351.012500", "134351.472500", "134351.932500", "134352.392500", "134352.852500", "134353.312500", "134353.772500", "134354.232500", "134354.692500", "134355.152500", "134355.612500", "134356.072500", "134356.532500", "134356.992500", "134357.452500", "134357.912500", "134358.372500", "134358.832500", "134359.292500", "134359.752500", "134400.212500", "134400.672500", "134401.132500", "134401.592500", "134402.052500", "134402.512500", "134402.972500", "134403.432500", "134403.892500", "134404.352500", "134404.812500", "134405.272500", "134405.732500", "134406.192500", "134406.652500", "134407.112500", "134407.572500", "134408.032500", "134408.492500", "134408.952500", "134409.412500", "134409.872500", "134410.332500", "134410.792500", "134411.252500", "134411.712500", "134412.172500", "134412.632500", "134413.092500", "134413.552500", "134414.012500", "134414.472500", "134414.932500", "134415.392500", "134415.852500", "134416.312500", "134416.772500", "134417.232500", "134417.692500", "134418.152500", "134418.612500", "134419.072500", "134419.532500", "134419.992500", "134420.452500", "134420.912500", "134421.372500", "134421.832500", "134422.292500", "134422.752500", "134423.212500", "134423.672500", "134424.132500", "134424.592500", "134425.052500", "134425.512500", "134425.972500", "134426.432500", "134426.892500", "134427.352500", "134427.812500", "134428.272500", "134428.732500", "134429.192500", "134429.652500", "134430.112500", "134430.572500", "134431.032500", "134431.492500", "134431.952500", "134432.412500", "134432.872500", "134433.332500", "134433.792500", "134434.252500", "134434.712500", "134435.172500", "134435.632500", "134436.092500", "134436.552500", "134437.012500", "134437.472500", "134437.932500", "134438.392500", "134438.852500", "134439.312500", "134439.772500", "134440.232500", "134440.692500", "134441.152500", "134441.612500", "134442.072500", "134442.532500", "134442.992500", "134443.452500", "134443.912500", "134444.372500", "134444.832500", "134445.292500"],
