{
  "AcquisitionMatrixPE": 82,
  "AcquisitionNumber": 1,
  "AcquisitionTime": "16:41:39.485000",
  "BandwidthPerPixelPhaseEncode": 24.888,
  "BaseResolution": 82,
  "BodyPartExamined": "BRAIN",
  "ConsistencyInfo": "N4_VE11E_LATEST_20181129",
  "ConversionSoftware": "dcm2niix",
  "ConversionSoftwareVersion": "v1.0.20201102",
  "DerivedVendorReportedEchoSpacing": 0.00049,
  "DeviceSerialNumber": "66112",
  "DwellTime": 2e-06,
  "EchoTime": 0.0272,
  "EchoTrainLength": 82,
  "EffectiveEchoSpacing": 0.00049,
  "FlipAngle": 44,
  "ImageComments": "Unaliased MB8/PE3",
  "ImageOrientationPatientDICOM": [0.998817, -0.0269055, 0.0404995, 0.026155, 0.999478, 0.018949],
  "ImageType": [
    "ORIGINAL",
    "PRIMARY",
    "M",
    "MB",
    "ND",
    "NORM",
    "MOSAIC"
],
  "ImagingFrequency": 123.252,
  "InPlanePhaseEncodingDirectionDICOM": "COL",
  "InstitutionAddress": "Maynard 3,Hanover,NH,US,03755",
  "InstitutionName": "Dartmouth College - PBS",
  "InstitutionalDepartmentName": "Department",
  "MRAcquisitionType": "2D",
  "MagneticFieldStrength": 3,
  "Manufacturer": "Siemens",
  "ManufacturersModelName": "Prisma",
  "Modality": "MR",
  "MultibandAccelerationFactor": 8,
  "PartialFourier": 1,
  "PatientPosition": "HFS",
  "PercentPhaseFOV": 100,
  "PercentSampling": 100,
  "PhaseEncodingDirection": "j-",
  "PhaseEncodingSteps": 82,
  "PhaseResolution": 1,
  "PixelBandwidth": 3050,
  "ProcedureStepDescription": "Wager_Wager^1076_spacetop",
  "ProtocolName": "func_run-03_task-alignvideo_acq-ap-mb8",
  "PulseSequenceDetails": "%CustomerSeq%\\cmrr_mbep2d_bold",
  "ReceiveCoilActiveElements": "HEA;HEP",
  "ReceiveCoilName": "Head_32",
  "ReconMatrixPE": 82,
  "RepetitionTime": 0.46,
  "SAR": 0.0898339,
  "ScanOptions": "FS",
  "ScanningSequence": "EP",
  "SequenceName": "epfid2d1_82",
  "SequenceVariant": "SK\\SS",
  "SeriesDescription": "func_run-03_task-alignvideo_acq-ap-mb8",
  "SeriesNumber": 35,
  "ShimSetting": [4137, -7744, -7288, 520, -42, -114, -56, 91],
  "SliceThickness": 2.7,
  "SliceTiming": [0, 0.2525, 0.0625, 0.315, 0.1275, 0.3775, 0.19, 0, 0.2525, 0.0625, 0.315, 0.1275, 0.3775, 0.19, 0, 0.2525, 0.0625, 0.315, 0.1275, 0.3775, 0.19, 0, 0.2525, 0.0625, 0.315, 0.1275, 0.3775, 0.19, 0, 0.2525, 0.0625, 0.315, 0.1275, 0.3775, 0.19, 0, 0.2525, 0.0625, 0.315, 0.1275, 0.3775, 0.19, 0, 0.2525, 0.0625, 0.315, 0.1275, 0.3775, 0.19, 0, 0.2525, 0.0625, 0.315, 0.1275, 0.3775, 0.19],
  "SoftwareVersions": "syngo MR E11",
  "SpacingBetweenSlices": 2.7,
  "StationName": "AWP66112",
  "TaskName": "alignvideo",
  "TotalReadoutTime": 0.03969,
  "TxRefAmp": 249.782,
  "WipMemBlock": "c3c7237c-45a5-49ae-8d50-61759b78838b||Sequence: R016 ve11e/master r/434b28f1; Aug  7 2019 18:53:46 by eja",
  "dcmmeta_affine": [
    [-2.679753541946411, 0.07017184048891068, 0.11066809296607971, 109.63533020019531],
    [0.0721854493021965, 2.6815271377563477, 0.048241812735795975, -96.54338836669922],
    [0.10865714401006699, -0.050838813185691833, 2.6972997188568115, -78.14952087402344],
    [0.0, 0.0, 0.0, 1.0]
],
  "dcmmeta_reorient_transform": [
    [0.0, -1.0, 0.0, 81.0],
    [1.0, 0.0, 0.0, 0.0],
    [0.0, 0.0, 1.0, 0.0],
    [0.0, 0.0, 0.0, 1.0]
],
  "dcmmeta_shape": [82, 82, 56, 1016],
  "dcmmeta_slice_dim": 2,
  "dcmmeta_version": 0.6,
  "global": {
    "const": {
      "AccessionNumber": "A003878",
      "AcquisitionMatrix": [82, 0, 0, 82],
      "AngioFlag": "N",
      "BitsAllocated": 16,
      "BitsStored": 16,
      "BodyPartExamined": "BRAIN",
      "Columns": 656,
      "EchoNumbers": 1,
      "EchoTime": 27.2,
      "EchoTrainLength": 82,
      "FlipAngle": 44.0,
      "HighBit": 15,
      "ImageOrientationPatient": [0.99881724404376, -0.0269054855695, 0.04049947959059, 0.02615495851447, 0.99947829044751, 0.01894901235497],
      "ImagePositionPatient": [-904.54786519692, -869.54139296595, -128.04280831464],
      "ImageType": [
        "ORIGINAL",
        "PRIMARY",
        "M",
        "MB",
        "ND",
        "NORM",
        "MOSAIC"
],
      "ImagedNucleus": "1H",
      "ImagingFrequency": 123.252231,
      "InPlanePhaseEncodingDirection": "COL",
      "MRAcquisitionType": "2D",
      "MagneticFieldStrength": 3.0,
      "Manufacturer": "SIEMENS",
      "ManufacturerModelName": "Prisma",
      "Modality": "MR",
      "NumberOfAverages": 1.0,
      "NumberOfPhaseEncodingSteps": 82,
      "PercentPhaseFieldOfView": 100.0,
      "PercentSampling": 100.0,
      "PerformedProcedureStepStartTime": "145318.544000",
      "PhotometricInterpretation": "MONOCHROME2",
      "PixelBandwidth": 3050.0,
      "PixelRepresentation": 0,
      "PixelSpacing": [2.6829268932343, 2.6829268932343],
      "ProtocolName": "func_run-03_task-alignvideo_acq-ap-mb8",
      "RepetitionTime": 460.0,
      "Rows": 656,
      "SAR": 0.08983394159002,
      "SamplesPerPixel": 1,
      "ScanOptions": "FS",
      "ScanningSequence": "EP",
      "SequenceName": "epfid2d1_82",
      "SequenceVariant": [
        "SK",
        "SS"
],
      "SeriesDescription": "func_run-03_task-alignvideo_acq-ap-mb8",
      "SeriesNumber": 35,
      "SeriesTime": "164150.621000",
      "SliceLocation": -75.302584531395,
      "SliceThickness": 2.7000000476837,
      "SmallestImagePixelValue": 0,
      "SoftwareVersions": "syngo MR E11",
      "SpacingBetweenSlices": 2.6999999797413,
      "SpecificCharacterSet": "ISO_IR 100",
      "StudyID": "1",
      "StudyTime": "145318.494000",
      "TransmitCoilName": "Body",
      "VariableFlipAngleFlag": "N",
      "WindowCenterWidthExplanation": "Algo1"
    },
    "slices": {}
  },
  "time": {
    "samples": {
      "AcquisitionNumber": [1, 2, 3, 4, 5, 6, 7, 8, 9, 10, 11, 12, 13, 14, 15, 16, 17, 18, 19, 20, 21, 22, 23, 24, 25, 26, 27, 28, 29, 30, 31, 32, 33, 34, 35, 36, 37, 38, 39, 40, 41, 42, 43, 44, 45, 46, 47, 48, 49, 50, 51, 52, 53, 54, 55, 56, 57, 58, 59, 60, 61, 62, 63, 64, 65, 66, 67, 68, 69, 70, 71, 72, 73, 74, 75, 76, 77, 78, 79, 80, 81, 82, 83, 84, 85, 86, 87, 88, 89, 90, 91, 92, 93, 94, 95, 96, 97, 98, 99, 100, 101, 102, 103, 104, 105, 106, 107, 108, 109, 110, 111, 112, 113, 114, 115, 116, 117, 118, 119, 120, 121, 122, 123, 124, 125, 126, 127, 128, 129, 130, 131, 132, 133, 134, 135, 136, 137, 138, 139, 140, 141, 142, 143, 144, 145, 146, 147, 148, 149, 150, 151, 152, 153, 154, 155, 156, 157, 158, 159, 160, 161, 162, 163, 164, 165, 166, 167, 168, 169, 170, 171, 172, 173, 174, 175, 176, 177, 178, 179, 180, 181, 182, 183, 184, 185, 186, 187, 188, 189, 190, 191, 192, 193, 194, 195, 196, 197, 198, 199, 200, 201, 202, 203, 204, 205, 206, 207, 208, 209, 210, 211, 212, 213, 214, 215, 216, 217, 218, 219, 220, 221, 222, 223, 224, 225, 226, 227, 228, 229, 230, 231, 232, 233, 234, 235, 236, 237, 238, 239, 240, 241, 242, 243, 244, 245, 246, 247, 248, 249, 250, 251, 252, 253, 254, 255, 256, 257, 258, 259, 260, 261, 262, 263, 264, 265, 266, 267, 268, 269, 270, 271, 272, 273, 274, 275, 276, 277, 278, 279, 280, 281, 282, 283, 284, 285, 286, 287, 288, 289, 290, 291, 292, 293, 294, 295, 296, 297, 298, 299, 300, 301, 302, 303, 304, 305, 306, 307, 308, 309, 310, 311, 312, 313, 314, 315, 316, 317, 318, 319, 320, 321, 322, 323, 324, 325, 326, 327, 328, 329, 330, 331, 332, 333, 334, 335, 336, 337, 338, 339, 340, 341, 342, 343, 344, 345, 346, 347, 348, 349, 350, 351, 352, 353, 354, 355, 356, 357, 358, 359, 360, 361, 362, 363, 364, 365, 366, 367, 368, 369, 370, 371, 372, 373, 374, 375, 376, 377, 378, 379, 380, 381, 382, 383, 384, 385, 386, 387, 388, 389, 390, 391, 392, 393, 394, 395, 396, 397, 398, 399, 400, 401, 402, 403, 404, 405, 406, 407, 408, 409, 410, 411, 412, 413, 414, 415, 416, 417, 418, 419, 420, 421, 422, 423, 424, 425, 426, 427, 428, 429, 430, 431, 432, 433, 434, 435, 436, 437, 438, 439, 440, 441, 442, 443, 444, 445, 446, 447, 448, 449, 450, 451, 452, 453, 454, 455, 456, 457, 458, 459, 460, 461, 462, 463, 464, 465, 466, 467, 468, 469, 470, 471, 472, 473, 474, 475, 476, 477, 478, 479, 480, 481, 482, 483, 484, 485, 486, 487, 488, 489, 490, 491, 492, 493, 494, 495, 496, 497, 498, 499, 500, 501, 502, 503, 504, 505, 506, 507, 508, 509, 510, 511, 512, 513, 514, 515, 516, 517, 518, 519, 520, 521, 522, 523, 524, 525, 526, 527, 528, 529, 530, 531, 532, 533, 534, 535, 536, 537, 538, 539, 540, 541, 542, 543, 544, 545, 546, 547, 548, 549, 550, 551, 552, 553, 554, 555, 556, 557, 558, 559, 560, 561, 562, 563, 564, 565, 566, 567, 568, 569, 570, 571, 572, 573, 574, 575, 576, 577, 578, 579, 580, 581, 582, 583, 584, 585, 586, 587, 588, 589, 590, 591, 592, 593, 594, 595, 596, 597, 598, 599, 600, 601, 602, 603, 604, 605, 606, 607, 608, 609, 610, 611, 612, 613, 614, 615, 616, 617, 618, 619, 620, 621, 622, 623, 624, 625, 626, 627, 628, 629, 630, 631, 632, 633, 634, 635, 636, 637, 638, 639, 640, 641, 642, 643, 644, 645, 646, 647, 648, 649, 650, 651, 652, 653, 654, 655, 656, 657, 658, 659, 660, 661, 662, 663, 664, 665, 666, 667, 668, 669, 670, 671, 672, 673, 674, 675, 676, 677, 678, 679, 680, 681, 682, 683, 684, 685, 686, 687, 688, 689, 690, 691, 692, 693, 694, 695, 696, 697, 698, 699, 700, 701, 702, 703, 704, 705, 706, 707, 708, 709, 710, 711, 712, 713, 714, 715, 716, 717, 718, 719, 720, 721, 722, 723, 724, 725, 726, 727, 728, 729, 730, 731, 732, 733, 734, 735, 736, 737, 738, 739, 740, 741, 742, 743, 744, 745, 746, 747, 748, 749, 750, 751, 752, 753, 754, 755, 756, 757, 758, 759, 760, 761, 762, 763, 764, 765, 766, 767, 768, 769, 770, 771, 772, 773, 774, 775, 776, 777, 778, 779, 780, 781, 782, 783, 784, 785, 786, 787, 788, 789, 790, 791, 792, 793, 794, 795, 796, 797, 798, 799, 800, 801, 802, 803, 804, 805, 806, 807, 808, 809, 810, 811, 812, 813, 814, 815, 816, 817, 818, 819, 820, 821, 822, 823, 824, 825, 826, 827, 828, 829, 830, 831, 832, 833, 834, 835, 836, 837, 838, 839, 840, 841, 842, 843, 844, 845, 846, 847, 848, 849, 850, 851, 852, 853, 854, 855, 856, 857, 858, 859, 860, 861, 862, 863, 864, 865, 866, 867, 868, 869, 870, 871, 872, 873, 874, 875, 876, 877, 878, 879, 880, 881, 882, 883, 884, 885, 886, 887, 888, 889, 890, 891, 892, 893, 894, 895, 896, 897, 898, 899, 900, 901, 902, 903, 904, 905, 906, 907, 908, 909, 910, 911, 912, 913, 914, 915, 916, 917, 918, 919, 920, 921, 922, 923, 924, 925, 926, 927, 928, 929, 930, 931, 932, 933, 934, 935, 936, 937, 938, 939, 940, 941, 942, 943, 944, 945, 946, 947, 948, 949, 950, 951, 952, 953, 954, 955, 956, 957, 958, 959, 960, 961, 962, 963, 964, 965, 966, 967, 968, 969, 970, 971, 972, 973, 974, 975, 976, 977, 978, 979, 980, 981, 982, 983, 984, 985, 986, 987, 988, 989, 990, 991, 992, 993, 994, 995, 996, 997, 998, 999, 1000, 1001, 1002, 1003, 1004, 1005, 1006, 1007, 1008, 1009, 1010, 1011, 1012, 1013, 1014, 1015, 1016],
      "AcquisitionTime": ["164139.485000", "164139.945000", "164140.405000", "164140.865000", "164141.325000", "164141.785000", "164142.245000", "164142.705000", "164143.165000", "164143.625000", "164144.085000", "164144.545000", "164145.005000", "164145.465000", "164145.925000", "164146.385000", "164146.845000", "164147.305000", "164147.765000", "164148.225000", "164148.685000", "164149.145000", "164149.605000", "164150.065000", "164150.525000", "164150.985000", "164151.445000", "164151.905000", "164152.365000", "164152.825000", "164153.285000", "164153.745000", "164154.205000", "164154.665000", "164155.125000", "164155.585000", "164156.045000", "164156.505000", "164156.965000", "164157.425000", "164157.885000", "164158.345000", "164158.805000", "164159.265000", "164159.725000", "164200.185000", "164200.645000", "164201.105000", "164201.565000", "164202.025000", "164202.485000", "164202.945000", "164203.405000", "164203.865000", "164204.325000", "164204.785000", "164205.245000", "164205.705000", "164206.165000", "164206.625000", "164207.085000", "164207.545000", "164208.005000", "164208.465000", "164208.925000", "164209.385000", "164209.845000", "164210.305000", "164210.765000", "164211.225000", "164211.685000", "164212.145000", "164212.605000", "164213.065000", "164213.525000", "164213.985000", "164214.445000", "164214.905000", "164215.365000", "164215.825000", "164216.285000", "164216.745000", "164217.205000", "164217.665000", "164218.125000", "164218.585000", "164219.045000", "164219.505000", "164219.965000", "164220.425000", "164220.885000", "164221.345000", "164221.805000", "164222.265000", "164222.725000", "164223.185000", "164223.645000", "164224.105000", "164224.565000", "164225.025000", "164225.485000", "164225.945000", "164226.405000", "164226.865000", "164227.325000", "164227.785000", "164228.245000", "164228.705000", "164229.165000", "164229.625000", "164230.085000", "164230.545000", "164231.005000", "164231.465000", "164231.925000", "164232.385000", "164232.845000", "164233.305000", "164233.765000", "164234.225000", "164234.685000", "164235.145000", "164235.605000", "164236.065000", "164236.525000", "164236.985000", "164237.445000", "164237.905000", "164238.365000", "164238.825000", "164239.285000", "164239.745000", "164240.205000", "164240.665000", "164241.125000", "164241.585000", "164242.045000", "164242.505000", "164242.965000", "164243.425000", "164243.885000", "164244.345000", "164244.805000", "164245.265000", "164245.725000", "164246.185000", "164246.645000", "164247.105000", "164247.565000", "164248.025000", "164248.485000", "164248.945000", "164249.405000", "164249.865000", "164250.325000", "164250.785000", "164251.245000", "164251.705000", "164252.165000", "164252.625000", "164253.085000", "164253.545000", "164254.005000", "164254.465000", "164254.925000", "164255.385000", "164255.845000", "164256.305000", "164256.765000", "164257.225000", "164257.685000", "164258.145000", "164258.605000", "164259.065000", "164259.525000", "164259.985000", "164300.445000", "164300.905000", "164301.365000", "164301.825000", "164302.285000", "164302.745000", "164303.205000", "164303.665000", "164304.125000", "164304.585000", "164305.045000", "164305.505000", "164305.965000", "164306.425000", "164306.885000", "164307.345000", "164307.805000", "164308.265000", "164308.725000", "164309.185000", "164309.645000", "164310.105000", "164310.565000", "164311.025000", "164311.485000", "164311.945000", "164312.405000", "164312.865000", "164313.325000", "164313.785000", "164314.245000", "164314.705000", "164315.165000", "164315.625000", "164316.085000", "164316.545000", "164317.005000", "164317.465000", "164317.925000", "164318.385000", "164318.845000", "164319.305000", "164319.765000", "164320.225000", "164320.685000", "164321.145000", "164321.605000", "164322.065000", "164322.525000", "164322.985000", "164323.445000", "164323.905000", "164324.365000", "164324.825000", "164325.285000", "164325.745000", "164326.205000", "164326.665000", "164327.125000", "164327.585000", "164328.045000", "164328.505000", "164328.965000", "164329.425000", "164329.885000", "164330.345000", "164330.805000", "164331.265000", "164331.725000", "164332.185000", "164332.645000", "164333.105000", "164333.565000", "164334.025000", "164334.485000", "164334.945000", "164335.405000", "164335.865000", "164336.325000", "164336.785000", "164337.245000", "164337.705000", "164338.165000", "164338.625000", "164339.085000", "164339.545000", "164340.005000", "164340.465000", "164340.925000", "164341.385000", "164341.845000", "164342.305000", "164342.765000", "164343.225000", "164343.685000", "164344.145000", "164344.605000", "164345.065000", "164345.525000", "164345.985000", "164346.445000", "164346.905000", "164347.365000", "164347.825000", "164348.285000", "164348.745000", "164349.205000", "164349.665000", "164350.125000", "164350.585000", "164351.045000", "164351.505000", "164351.965000", "164352.425000", "164352.885000", "164353.345000", "164353.805000", "164354.265000", "164354.725000", "164355.185000", "164355.645000", "164356.105000", "164356.565000", "164357.025000", "164357.485000", "164357.945000", "164358.405000", "164358.865000", "164359.325000", "164359.785000", "164400.245000", "164400.705000", "164401.165000", "164401.625000", "164402.085000", "164402.545000", "164403.005000", "164403.465000", "164403.925000", "164404.385000", "164404.845000", "164405.305000", "164405.765000", "164406.225000", "164406.685000", "164407.145000", "164407.605000", "164408.065000", "164408.525000", "164408.985000", "164409.445000", "164409.905000", "164410.365000", "164410.825000", "164411.285000", "164411.745000", "164412.205000", "164412.665000", "164413.125000", "164413.585000", "164414.045000", "164414.505000", "164414.965000", "164415.425000", "164415.885000", "164416.345000", "164416.805000", "164417.265000", "164417.725000", "164418.185000", "164418.645000", "164419.105000", "164419.565000", "164420.025000", "164420.485000", "164420.945000", "164421.405000", "164421.865000", "164422.325000", "164422.785000", "164423.245000", "164423.705000", "164424.165000", "164424.625000", "164425.085000", "164425.545000", "164426.005000", "164426.465000", "164426.925000", "164427.385000", "164427.845000", "164428.305000", "164428.765000", "164429.225000", "164429.685000", "164430.145000", "164430.605000", "164431.065000", "164431.525000", "164431.985000", "164432.445000", "164432.905000", "164433.365000", "164433.825000", "164434.285000", "164434.745000", "164435.205000", "164435.665000", "164436.125000", "164436.585000", "164437.045000", "164437.505000", "164437.965000", "164438.425000", "164438.885000", "164439.345000", "164439.805000", "164440.265000", "164440.725000", "164441.185000", "164441.645000", "164442.105000", "164442.565000", "164443.025000", "164443.485000", "164443.945000", "164444.405000", "164444.865000", "164445.325000", "164445.785000", "164446.245000", "164446.705000", "164447.165000", "164447.625000", "164448.085000", "164448.545000", "164449.005000", "164449.465000", "164449.925000", "164450.385000", "164450.845000", "164451.305000", "164451.765000", "164452.225000", "164452.685000", "164453.145000", "164453.605000", "164454.065000", "164454.525000", "164454.985000", "164455.445000", "164455.905000", "164456.365000", "164456.825000", "164457.285000", "164457.745000", "164458.205000", "164458.665000", "164459.125000", "164459.585000", "164500.045000", "164500.505000", "164500.965000", "164501.425000", "164501.885000", "164502.345000", "164502.805000", "164503.265000", "164503.725000", "164504.185000", "164504.645000", "164505.105000", "164505.565000", "164506.025000", "164506.485000", "164506.945000", "164507.405000", "164507.865000", "164508.325000", "164508.785000", "164509.245000", "164509.705000", "164510.165000", "164510.625000", "164511.085000", "164511.545000", "164512.005000", "164512.465000", "164512.925000", "164513.385000", "164513.845000", "164514.305000", "164514.765000", "164515.225000", "164515.685000", "164516.145000", "164516.605000", "164517.065000", "164517.525000", "164517.985000", "164518.445000", "164518.905000", "164519.365000", "164519.825000", "164520.285000", "164520.745000", "164521.205000", "164521.665000", "164522.125000", "164522.585000", "164523.045000", "164523.505000", "164523.965000", "164524.425000", "164524.885000", "164525.345000", "164525.805000", "164526.265000", "164526.725000", "164527.185000", "164527.645000", "164528.105000", "164528.565000", "164529.025000", "164529.485000", "164529.945000", "164530.405000", "164530.865000", "164531.325000", "164531.785000", "164532.245000", "164532.705000", "164533.165000", "164533.625000", "164534.085000", "164534.545000", "164535.005000", "164535.465000", "164535.925000", "164536.385000", "164536.845000", "164537.305000", "164537.765000", "164538.225000", "164538.685000", "164539.145000", "164539.605000", "164540.065000", "164540.525000", "164540.985000", "164541.445000", "164541.905000", "164542.365000", "164542.825000", "164543.285000", "164543.745000", "164544.205000", "164544.665000", "164545.125000", "164545.585000", "164546.045000", "164546.505000", "164546.965000", "164547.425000", "164547.885000", "164548.345000", "164548.805000", "164549.265000", "164549.725000", "164550.185000", "164550.645000", "164551.105000", "164551.565000", "164552.025000", "164552.485000", "164552.945000", "164553.405000", "164553.865000", "164554.325000", "164554.785000", "164555.245000", "164555.705000", "164556.165000", "164556.625000", "164557.085000", "164557.545000", "164558.005000", "164558.465000", "164558.925000", "164559.385000", "164559.845000", "164600.305000", "164600.765000", "164601.225000", "164601.685000", "164602.145000", "164602.605000", "164603.065000", "164603.525000", "164603.985000", "164604.445000", "164604.905000", "164605.365000", "164605.825000", "164606.285000", "164606.745000", "164607.205000", "164607.665000", "164608.125000", "164608.585000", "164609.045000", "164609.505000", "164609.965000", "164610.425000", "164610.885000", "164611.345000", "164611.805000", "164612.265000", "164612.725000", "164613.185000", "164613.645000", "164614.105000", "164614.565000", "164615.025000", "164615.485000", "164615.945000", "164616.405000", "164616.865000", "164617.325000", "164617.785000", "164618.245000", "164618.705000", "164619.165000", "164619.625000", "164620.085000", "164620.545000", "164621.005000", "164621.465000", "164621.925000", "164622.385000", "164622.845000", "164623.305000", "164623.765000", "164624.225000", "164624.685000", "164625.145000", "164625.605000", "164626.065000", "164626.525000", "164626.985000", "164627.445000", "164627.905000", "164628.365000", "164628.825000", "164629.285000", "164629.745000", "164630.205000", "164630.665000", "164631.125000", "164631.585000", "164632.045000", "164632.505000", "164632.965000", "164633.425000", "164633.885000", "164634.345000", "164634.805000", "164635.265000", "164635.725000", "164636.185000", "164636.645000", "164637.105000", "164637.565000", "164638.025000", "164638.485000", "164638.945000", "164639.405000", "164639.865000", "164640.325000", "164640.785000", "164641.245000", "164641.705000", "164642.165000", "164642.625000", "164643.085000", "164643.545000", "164644.005000", "164644.465000", "164644.925000", "164645.385000", "164645.845000", "164646.305000", "164646.765000", "164647.225000", "164647.685000", "164648.145000", "164648.605000", "164649.065000", "164649.525000", "164649.985000", "164650.445000", "164650.905000", "164651.365000", "164651.825000", "164652.285000", "164652.745000", "164653.205000", "164653.665000", "164654.125000", "164654.585000", "164655.045000", "164655.505000", "164655.965000", "164656.425000", "164656.885000", "164657.345000", "164657.805000", "164658.265000", "164658.725000", "164659.185000", "164659.645000", "164700.105000", "164700.565000", "164701.025000", "164701.485000", "164701.945000", "164702.405000", "164702.865000", "164703.325000", "164703.785000", "164704.245000", "164704.705000", "164705.165000", "164705.625000", "164706.085000", "164706.545000", "164707.005000", "164707.465000", "164707.925000", "164708.385000", "164708.845000", "164709.305000", "164709.765000", "164710.225000", "164710.685000", "164711.145000", "164711.605000", "164712.065000", "164712.525000", "164712.985000", "164713.445000", "164713.905000", "164714.365000", "164714.825000", "164715.285000", "164715.745000", "164716.205000", "164716.665000", "164717.125000", "164717.585000", "164718.045000", "164718.505000", "164718.965000", "164719.425000", "164719.885000", "164720.345000", "164720.805000", "164721.265000", "164721.725000", "164722.185000", "164722.645000", "164723.105000", "164723.565000", "164724.025000", "164724.485000", "164724.945000", "164725.405000", "164725.865000", "164726.325000", "164726.785000", "164727.245000", "164727.705000", "164728.165000", "164728.625000", "164729.085000", "164729.545000", "164730.005000", "164730.465000", "164730.925000", "164731.385000", "164731.845000", "164732.305000", "164732.765000", "164733.225000", "164733.685000", "164734.145000", "164734.605000", "164735.065000", "164735.525000", "164735.985000", "164736.445000", "164736.905000", "164737.365000", "164737.825000", "164738.285000", "164738.745000", "164739.205000", "164739.665000", "164740.125000", "164740.585000", "164741.045000", "164741.505000", "164741.965000", "164742.425000", "164742.885000", "164743.345000", "164743.805000", "164744.265000", "164744.725000", "164745.185000", "164745.645000", "164746.105000", "164746.565000", "164747.025000", "164747.485000", "164747.945000", "164748.405000", "164748.865000", "164749.325000", "164749.785000", "164750.245000", "164750.705000", "164751.165000", "164751.625000", "164752.085000", "164752.545000", "164753.005000", "164753.465000", "164753.925000", "164754.385000", "164754.845000", "164755.305000", "164755.765000", "164756.225000", "164756.685000", "164757.145000", "164757.605000", "164758.065000", "164758.525000", "164758.985000", "164759.445000", "164759.905000", "164800.365000", "164800.825000", "164801.285000", "164801.745000", "164802.205000", "164802.665000", "164803.125000", "164803.585000", "164804.045000", "164804.505000", "164804.965000", "164805.425000", "164805.885000", "164806.345000", "164806.805000", "164807.265000", "164807.725000", "164808.185000", "164808.645000", "164809.105000", "164809.565000", "164810.025000", "164810.485000", "164810.945000", "164811.405000", "164811.865000", "164812.325000", "164812.785000", "164813.245000", "164813.705000", "164814.165000", "164814.625000", "164815.085000", "164815.545000", "164816.005000", "164816.465000", "164816.925000", "164817.385000", "164817.845000", "164818.305000", "164818.765000", "164819.225000", "164819.685000", "164820.145000", "164820.605000", "164821.065000", "164821.525000", "164821.985000", "164822.445000", "164822.905000", "164823.365000", "164823.825000", "164824.285000", "164824.745000", "164825.205000", "164825.665000", "164826.125000", "164826.585000", "164827.045000", "164827.505000", "164827.965000", "164828.425000", "164828.885000", "164829.345000", "164829.805000", "164830.265000", "164830.725000", "164831.185000", "164831.645000", "164832.105000", "164832.565000", "164833.025000", "164833.485000", "164833.945000", "164834.405000", "164834.865000", "164835.325000", "164835.785000", "164836.245000", "164836.705000", "164837.165000", "164837.625000", "164838.085000", "164838.545000", "164839.005000", "164839.465000", "164839.925000", "164840.385000", "164840.845000", "164841.305000", "164841.765000", "164842.225000", "164842.685000", "164843.145000", "164843.605000", "164844.065000", "164844.525000", "164844.985000", "164845.445000", "164845.905000", "164846.365000", "164846.825000", "164847.285000", "164847.745000", "164848.205000", "164848.665000", "164849.125000", "164849.585000", "164850.045000", "164850.505000", "164850.965000", "164851.425000", "164851.885000", "164852.345000", "164852.805000", "164853.265000", "164853.725000", "164854.185000", "164854.645000", "164855.105000", "164855.565000", "164856.025000", "164856.485000", "164856.945000", "164857.405000", "164857.865000", "164858.325000", "164858.785000", "164859.245000", "164859.705000", "164900.165000", "164900.625000", "164901.085000", "164901.545000", "164902.005000", "164902.465000", "164902.925000", "164903.385000", "164903.845000", "164904.305000", "164904.765000", "164905.225000", "164905.685000", "164906.145000", "164906.605000", "164907.065000", "164907.525000", "164907.985000", "164908.445000", "164908.905000", "164909.365000", "164909.825000", "164910.285000", "164910.745000", "164911.205000", "164911.665000", "164912.125000", "164912.585000", "164913.045000", "164913.505000", "164913.965000", "164914.425000", "164914.885000", "164915.345000", "164915.805000", "164916.265000", "164916.725000", "164917.185000", "164917.645000", "164918.105000", "164918.565000", "164919.025000", "164919.485000", "164919.945000", "164920.405000", "164920.865000", "164921.325000", "164921.785000", "164922.245000", "164922.705000", "164923.165000", "164923.625000", "164924.085000", "164924.545000", "164925.005000", "164925.465000", "164925.925000", "164926.385000"],
