{
  "AcquisitionMatrixPE": 82,
  "AcquisitionNumber": 1,
  "AcquisitionTime": "10:10:32.485000",
  "BandwidthPerPixelPhaseEncode": 24.888,
  "BaseResolution": 82,
  "BodyPartExamined": "BRAIN",
  "ConsistencyInfo": "N4_VE11E_LATEST_20181129",
  "ConversionSoftware": "dcm2niix",
  "ConversionSoftwareVersion": "v1.0.20201102",
  "DerivedVendorReportedEchoSpacing": 0.00049,
  "DeviceSerialNumber": "66112",
  "DwellTime": 2e-06,
  "EchoTime": 0.0272,
  "EchoTrainLength": 82,
  "EffectiveEchoSpacing": 0.00049,
  "FlipAngle": 44,
  "ImageComments": "Unaliased MB8/PE3",
  "ImageOrientationPatientDICOM": [0.998781, 0.0266646, 0.0415368, -0.0209215, 0.990891, -0.133033],
  "ImageType": [
    "ORIGINAL",
    "PRIMARY",
    "M",
    "MB",
    "ND",
    "NORM",
    "MOSAIC"
],
  "ImagingFrequency": 123.259,
  "InPlanePhaseEncodingDirectionDICOM": "COL",
  "InstitutionAddress": "Maynard 3,Hanover,NH,US,03755",
  "InstitutionName": "Dartmouth College - PBS",
  "InstitutionalDepartmentName": "Department",
  "MRAcquisitionType": "2D",
  "MagneticFieldStrength": 3,
  "Manufacturer": "Siemens",
  "ManufacturersModelName": "Prisma",
  "Modality": "MR",
  "MultibandAccelerationFactor": 8,
  "PartialFourier": 1,
  "PatientPosition": "HFS",
  "PercentPhaseFOV": 100,
  "PercentSampling": 100,
  "PhaseEncodingDirection": "j-",
  "PhaseEncodingSteps": 82,
  "PhaseResolution": 1,
  "PixelBandwidth": 3050,
  "ProcedureStepDescription": "Wager_Wager^1076_spacetop",
  "ProtocolName": "func_run-06_task-social_acq-ap-mb8",
  "PulseSequenceDetails": "%CustomerSeq%\\cmrr_mbep2d_bold",
  "ReceiveCoilActiveElements": "HEA;HEP",
  "ReceiveCoilName": "Head_32",
  "ReconMatrixPE": 82,
  "RepetitionTime": 0.46,
  "SAR": 0.0804958,
  "ScanOptions": "FS",
  "ScanningSequence": "EP",
  "SequenceName": "epfid2d1_82",
  "SequenceVariant": "SK\\SS",
  "SeriesDescription": "func_run-06_task-social_acq-ap-mb8",
  "SeriesNumber": 24,
  "ShimSetting": [4222, -7754, -7287, 400, -125, -192, 45, 91],
  "SliceThickness": 2.7,
  "SliceTiming": [0, 0.25, 0.0625, 0.315, 0.125, 0.3775, 0.1875, 0, 0.25, 0.0625, 0.315, 0.125, 0.3775, 0.1875, 0, 0.25, 0.0625, 0.315, 0.125, 0.3775, 0.1875, 0, 0.25, 0.0625, 0.315, 0.125, 0.3775, 0.1875, 0, 0.25, 0.0625, 0.315, 0.125, 0.3775, 0.1875, 0, 0.25, 0.0625, 0.315, 0.125, 0.3775, 0.1875, 0, 0.25, 0.0625, 0.315, 0.125, 0.3775, 0.1875, 0, 0.25, 0.0625, 0.315, 0.125, 0.3775, 0.1875],
  "SoftwareVersions": "syngo MR E11",
  "SpacingBetweenSlices": 2.7,
  "StationName": "AWP66112",
  "TaskName": "social",
  "TotalReadoutTime": 0.03969,
  "TxRefAmp": 234.918,
  "WipMemBlock": "c5a6eb2a-bbeb-44b8-933c-f3f616c570ae||Sequence: R016 ve11e/master r/434b28f1; Aug  7 2019 18:53:46 by eja",
  "dcmmeta_affine": [
    [-2.679656744003296, -0.0561307817697525, 0.12070538103580475, 114.38377380371094],
    [-0.07153919339179993, 2.658487558364868, -0.3564036786556244, -85.53070831298828],
    [0.11144020408391953, 0.35691654682159424, 2.6736505031585693, -101.0906982421875],
    [0.0, 0.0, 0.0, 1.0]
],
  "dcmmeta_reorient_transform": [
    [0.0, -1.0, 0.0, 81.0],
    [1.0, 0.0, 0.0, 0.0],
    [0.0, 0.0, 1.0, 0.0],
    [0.0, 0.0, 0.0, 1.0]
],
  "dcmmeta_shape": [82, 82, 56, 872],
  "dcmmeta_slice_dim": 2,
  "dcmmeta_version": 0.6,
  "global": {
    "const": {
      "AccessionNumber": "A004511",
      "AcquisitionMatrix": [82, 0, 0, 82],
      "AngioFlag": "N",
      "BitsAllocated": 16,
      "BitsStored": 16,
      "BodyPartExamined": "BRAIN",
      "Columns": 656,
      "EchoNumbers": 1,
      "EchoTime": 27.2,
      "EchoTrainLength": 82,
      "FlipAngle": 44.0,
      "HighBit": 15,
      "ImageOrientationPatient": [0.99878110348322, 0.02666460908149, 0.04153680232495, -0.0209214721429, 0.99089083138233, -0.1330325234136],
      "ImagePositionPatient": [-862.78911725054, -913.32450323223, -1.7287510100839],
      "ImageType": [
        "ORIGINAL",
        "PRIMARY",
        "M",
        "MB",
        "ND",
        "NORM",
        "MOSAIC"
],
      "ImagedNucleus": "1H",
      "ImagingFrequency": 123.259128,
      "InPlanePhaseEncodingDirection": "COL",
      "MRAcquisitionType": "2D",
      "MagneticFieldStrength": 3.0,
      "Manufacturer": "SIEMENS",
      "ManufacturerModelName": "Prisma",
      "Modality": "MR",
      "NumberOfAverages": 1.0,
      "NumberOfPhaseEncodingSteps": 82,
      "PercentPhaseFieldOfView": 100.0,
      "PercentSampling": 100.0,
      "PerformedProcedureStepStartTime": "085829.463000",
      "PhotometricInterpretation": "MONOCHROME2",
      "PixelBandwidth": 3050.0,
      "PixelRepresentation": 0,
      "PixelSpacing": [2.6829268932343, 2.6829268932343],
      "ProtocolName": "func_run-06_task-social_acq-ap-mb8",
      "RepetitionTime": 460.0,
      "Rows": 656,
      "SAR": 0.08049577909023,
      "SamplesPerPixel": 1,
      "ScanOptions": "FS",
      "ScanningSequence": "EP",
      "SequenceName": "epfid2d1_82",
      "SequenceVariant": [
        "SK",
        "SS"
],
      "SeriesDescription": "func_run-06_task-social_acq-ap-mb8",
      "SeriesNumber": 24,
      "SeriesTime": "101046.075000",
      "SliceLocation": -83.700367336039,
      "SliceThickness": 2.7000000476837,
      "SmallestImagePixelValue": 0,
      "SoftwareVersions": "syngo MR E11",
      "SpacingBetweenSlices": 2.6999999988782,
      "SpecificCharacterSet": "ISO_IR 100",
      "StudyID": "1",
      "StudyTime": "085829.306000",
      "TransmitCoilName": "Body",
      "VariableFlipAngleFlag": "N",
      "WindowCenterWidthExplanation": "Algo1"
    },
    "slices": {}
  },
  "time": {
    "samples": {
      "AcquisitionNumber": [1, 2, 3, 4, 5, 6, 7, 8, 9, 10, 11, 12, 13, 14, 15, 16, 17, 18, 19, 20, 21, 22, 23, 24, 25, 26, 27, 28, 29, 30, 31, 32, 33, 34, 35, 36, 37, 38, 39, 40, 41, 42, 43, 44, 45, 46, 47, 48, 49, 50, 51, 52, 53, 54, 55, 56, 57, 58, 59, 60, 61, 62, 63, 64, 65, 66, 67, 68, 69, 70, 71, 72, 73, 74, 75, 76, 77, 78, 79, 80, 81, 82, 83, 84, 85, 86, 87, 88, 89, 90, 91, 92, 93, 94, 95, 96, 97, 98, 99, 100, 101, 102, 103, 104, 105, 106, 107, 108, 109, 110, 111, 112, 113, 114, 115, 116, 117, 118, 119, 120, 121, 122, 123, 124, 125, 126, 127, 128, 129, 130, 131, 132, 133, 134, 135, 136, 137, 138, 139, 140, 141, 142, 143, 144, 145, 146, 147, 148, 149, 150, 151, 152, 153, 154, 155, 156, 157, 158, 159, 160, 161, 162, 163, 164, 165, 166, 167, 168, 169, 170, 171, 172, 173, 174, 175, 176, 177, 178, 179, 180, 181, 182, 183, 184, 185, 186, 187, 188, 189, 190, 191, 192, 193, 194, 195, 196, 197, 198, 199, 200, 201, 202, 203, 204, 205, 206, 207, 208, 209, 210, 211, 212, 213, 214, 215, 216, 217, 218, 219, 220, 221, 222, 223, 224, 225, 226, 227, 228, 229, 230, 231, 232, 233, 234, 235, 236, 237, 238, 239, 240, 241, 242, 243, 244, 245, 246, 247, 248, 249, 250, 251, 252, 253, 254, 255, 256, 257, 258, 259, 260, 261, 262, 263, 264, 265, 266, 267, 268, 269, 270, 271, 272, 273, 274, 275, 276, 277, 278, 279, 280, 281, 282, 283, 284, 285, 286, 287, 288, 289, 290, 291, 292, 293, 294, 295, 296, 297, 298, 299, 300, 301, 302, 303, 304, 305, 306, 307, 308, 309, 310, 311, 312, 313, 314, 315, 316, 317, 318, 319, 320, 321, 322, 323, 324, 325, 326, 327, 328, 329, 330, 331, 332, 333, 334, 335, 336, 337, 338, 339, 340, 341, 342, 343, 344, 345, 346, 347, 348, 349, 350, 351, 352, 353, 354, 355, 356, 357, 358, 359, 360, 361, 362, 363, 364, 365, 366, 367, 368, 369, 370, 371, 372, 373, 374, 375, 376, 377, 378, 379, 380, 381, 382, 383, 384, 385, 386, 387, 388, 389, 390, 391, 392, 393, 394, 395, 396, 397, 398, 399, 400, 401, 402, 403, 404, 405, 406, 407, 408, 409, 410, 411, 412, 413, 414, 415, 416, 417, 418, 419, 420, 421, 422, 423, 424, 425, 426, 427, 428, 429, 430, 431, 432, 433, 434, 435, 436, 437, 438, 439, 440, 441, 442, 443, 444, 445, 446, 447, 448, 449, 450, 451, 452, 453, 454, 455, 456, 457, 458, 459, 460, 461, 462, 463, 464, 465, 466, 467, 468, 469, 470, 471, 472, 473, 474, 475, 476, 477, 478, 479, 480, 481, 482, 483, 484, 485, 486, 487, 488, 489, 490, 491, 492, 493, 494, 495, 496, 497, 498, 499, 500, 501, 502, 503, 504, 505, 506, 507, 508, 509, 510, 511, 512, 513, 514, 515, 516, 517, 518, 519, 520, 521, 522, 523, 524, 525, 526, 527, 528, 529, 530, 531, 532, 533, 534, 535, 536, 537, 538, 539, 540, 541, 542, 543, 544, 545, 546, 547, 548, 549, 550, 551, 552, 553, 554, 555, 556, 557, 558, 559, 560, 561, 562, 563, 564, 565, 566, 567, 568, 569, 570, 571, 572, 573, 574, 575, 576, 577, 578, 579, 580, 581, 582, 583, 584, 585, 586, 587, 588, 589, 590, 591, 592, 593, 594, 595, 596, 597, 598, 599, 600, 601, 602, 603, 604, 605, 606, 607, 608, 609, 610, 611, 612, 613, 614, 615, 616, 617, 618, 619, 620, 621, 622, 623, 624, 625, 626, 627, 628, 629, 630, 631, 632, 633, 634, 635, 636, 637, 638, 639, 640, 641, 642, 643, 644, 645, 646, 647, 648, 649, 650, 651, 652, 653, 654, 655, 656, 657, 658, 659, 660, 661, 662, 663, 664, 665, 666, 667, 668, 669, 670, 671, 672, 673, 674, 675, 676, 677, 678, 679, 680, 681, 682, 683, 684, 685, 686, 687, 688, 689, 690, 691, 692, 693, 694, 695, 696, 697, 698, 699, 700, 701, 702, 703, 704, 705, 706, 707, 708, 709, 710, 711, 712, 713, 714, 715, 716, 717, 718, 719, 720, 721, 722, 723, 724, 725, 726, 727, 728, 729, 730, 731, 732, 733, 734, 735, 736, 737, 738, 739, 740, 741, 742, 743, 744, 745, 746, 747, 748, 749, 750, 751, 752, 753, 754, 755, 756, 757, 758, 759, 760, 761, 762, 763, 764, 765, 766, 767, 768, 769, 770, 771, 772, 773, 774, 775, 776, 777, 778, 779, 780, 781, 782, 783, 784, 785, 786, 787, 788, 789, 790, 791, 792, 793, 794, 795, 796, 797, 798, 799, 800, 801, 802, 803, 804, 805, 806, 807, 808, 809, 810, 811, 812, 813, 814, 815, 816, 817, 818, 819, 820, 821, 822, 823, 824, 825, 826, 827, 828, 829, 830, 831, 832, 833, 834, 835, 836, 837, 838, 839, 840, 841, 842, 843, 844, 845, 846, 847, 848, 849, 850, 851, 852, 853, 854, 855, 856, 857, 858, 859, 860, 861, 862, 863, 864, 865, 866, 867, 868, 869, 870, 871, 872],
      "AcquisitionTime": ["101032.485000", "101032.945000", "101033.405000", "101033.865000", "101034.325000", "101034.785000", "101035.245000", "101035.705000", "101036.165000", "101036.625000", "101037.085000", "101037.545000", "101038.005000", "101038.465000", "101038.925000", "101039.385000", "101039.845000", "101040.305000", "101040.765000", "101041.225000", "101041.685000", "101042.145000", "101042.605000", "101043.065000", "101043.525000", "101043.985000", "101044.445000", "101044.905000", "101045.365000", "101045.825000", "101046.285000", "101046.745000", "101047.205000", "101047.665000", "101048.125000", "101048.585000", "101049.045000", "101049.505000", "101049.965000", "101050.425000", "101050.885000", "101051.345000", "101051.805000", "101052.265000", "101052.725000", "101053.185000", "101053.645000", "101054.105000", "101054.565000", "101055.025000", "101055.485000", "101055.945000", "101056.405000", "101056.865000", "101057.325000", "101057.785000", "101058.245000", "101058.705000", "101059.165000", "101059.625000", "101100.085000", "101100.545000", "101101.005000", "101101.465000", "101101.925000", "101102.385000", "101102.845000", "101103.305000", "101103.765000", "101104.225000", "101104.685000", "101105.145000", "101105.605000", "101106.065000", "101106.525000", "101106.985000", "101107.445000", "101107.905000", "101108.365000", "101108.825000", "101109.285000", "101109.745000", "101110.205000", "101110.665000", "101111.125000", "101111.585000", "101112.045000", "101112.505000", "101112.965000", "101113.425000", "101113.885000", "101114.345000", "101114.805000", "101115.265000", "101115.725000", "101116.185000", "101116.645000", "101117.105000", "101117.565000", "101118.025000", "101118.485000", "101118.945000", "101119.405000", "101119.865000", "101120.325000", "101120.785000", "101121.245000", "101121.705000", "101122.165000", "101122.625000", "101123.085000", "101123.545000", "101124.005000", "101124.465000", "101124.925000", "101125.385000", "101125.845000", "101126.305000", "101126.765000", "101127.225000", "101127.685000", "101128.145000", "101128.605000", "101129.065000", "101129.525000", "101129.985000", "101130.445000", "101130.905000", "101131.365000", "101131.825000", "101132.285000", "101132.745000", "101133.205000", "101133.665000", "101134.125000", "101134.585000", "101135.045000", "101135.505000", "101135.965000", "101136.425000", "101136.885000", "101137.345000", "101137.805000", "101138.265000", "101138.725000", "101139.185000", "101139.645000", "101140.105000", "101140.565000", "101141.025000", "101141.485000", "101141.945000", "101142.405000", "101142.865000", "101143.325000", "101143.785000", "101144.245000", "101144.705000", "101145.165000", "101145.625000", "101146.085000", "101146.545000", "101147.005000", "101147.465000", "101147.925000", "101148.385000", "101148.845000", "101149.305000", "101149.765000", "101150.225000", "101150.685000", "101151.145000", "101151.605000", "101152.065000", "101152.525000", "101152.985000", "101153.445000", "101153.905000", "101154.365000", "101154.825000", "101155.285000", "101155.745000", "101156.205000", "101156.665000", "101157.125000", "101157.585000", "101158.045000", "101158.505000", "101158.965000", "101159.425000", "101159.885000", "101200.345000", "101200.805000", "101201.265000", "101201.725000", "101202.185000", "101202.645000", "101203.105000", "101203.565000", "101204.025000", "101204.485000", "101204.945000", "101205.405000", "101205.865000", "101206.325000", "101206.785000", "101207.245000", "101207.705000", "101208.165000", "101208.625000", "101209.085000", "101209.545000", "101210.005000", "101210.465000", "101210.925000", "101211.385000", "101211.845000", "101212.305000", "101212.765000", "101213.225000", "101213.685000", "101214.145000", "101214.605000", "101215.065000", "101215.525000", "101215.985000", "101216.445000", "101216.905000", "101217.365000", "101217.825000", "101218.285000", "101218.745000", "101219.205000", "101219.665000", "101220.125000", "101220.585000", "101221.045000", "101221.505000", "101221.965000", "101222.425000", "101222.885000", "101223.345000", "101223.805000", "101224.265000", "101224.725000", "101225.185000", "101225.645000", "101226.105000", "101226.565000", "101227.025000", "101227.485000", "101227.945000", "101228.405000", "101228.865000", "101229.325000", "101229.785000", "101230.245000", "101230.705000", "101231.165000", "101231.625000", "101232.085000", "101232.545000", "101233.005000", "101233.465000", "101233.925000", "101234.385000", "101234.845000", "101235.305000", "101235.765000", "101236.225000", "101236.685000", "101237.145000", "101237.605000", "101238.065000", "101238.525000", "101238.985000", "101239.445000", "101239.905000", "101240.365000", "101240.825000", "101241.285000", "101241.745000", "101242.205000", "101242.665000", "101243.125000", "101243.585000", "101244.045000", "101244.505000", "101244.965000", "101245.425000", "101245.885000", "101246.345000", "101246.805000", "101247.265000", "101247.725000", "101248.185000", "101248.645000", "101249.105000", "101249.565000", "101250.025000", "101250.485000", "101250.945000", "101251.405000", "101251.865000", "101252.325000", "101252.785000", "101253.245000", "101253.705000", "101254.165000", "101254.625000", "101255.085000", "101255.545000", "101256.005000", "101256.465000", "101256.925000", "101257.385000", "101257.845000", "101258.305000", "101258.765000", "101259.225000", "101259.685000", "101300.145000", "101300.605000", "101301.065000", "101301.525000", "101301.985000", "101302.445000", "101302.905000", "101303.365000", "101303.825000", "101304.285000", "101304.745000", "101305.205000", "101305.665000", "101306.125000", "101306.585000", "101307.045000", "101307.505000", "101307.965000", "101308.425000", "101308.885000", "101309.345000", "101309.805000", "101310.265000", "101310.725000", "101311.185000", "101311.645000", "101312.105000", "101312.565000", "101313.025000", "101313.485000", "101313.945000", "101314.405000", "101314.865000", "101315.325000", "101315.785000", "101316.245000", "101316.705000", "101317.165000", "101317.625000", "101318.085000", "101318.545000", "101319.005000", "101319.465000", "101319.925000", "101320.385000", "101320.845000", "101321.305000", "101321.765000", "101322.225000", "101322.685000", "101323.145000", "101323.605000", "101324.065000", "101324.525000", "101324.985000", "101325.445000", "101325.905000", "101326.365000", "101326.825000", "101327.285000", "101327.745000", "101328.205000", "101328.665000", "101329.125000", "101329.585000", "101330.045000", "101330.505000", "101330.965000", "101331.425000", "101331.885000", "101332.345000", "101332.805000", "101333.265000", "101333.725000", "101334.185000", "101334.645000", "101335.105000", "101335.565000", "101336.025000", "101336.485000", "101336.945000", "101337.405000", "101337.865000", "101338.325000", "101338.785000", "101339.245000", "101339.705000", "101340.165000", "101340.625000", "101341.085000", "101341.545000", "101342.005000", "101342.465000", "101342.925000", "101343.385000", "101343.845000", "101344.305000", "101344.765000", "101345.225000", "101345.685000", "101346.145000", "101346.605000", "101347.065000", "101347.525000", "101347.985000", "101348.445000", "101348.905000", "101349.365000", "101349.825000", "101350.285000", "101350.745000", "101351.205000", "101351.665000", "101352.125000", "101352.585000", "101353.045000", "101353.505000", "101353.965000", "101354.425000", "101354.885000", "101355.345000", "101355.805000", "101356.265000", "101356.725000", "101357.185000", "101357.645000", "101358.105000", "101358.565000", "101359.025000", "101359.485000", "101359.945000", "101400.405000", "101400.865000", "101401.325000", "101401.785000", "101402.245000", "101402.705000", "101403.165000", "101403.625000", "101404.085000", "101404.545000", "101405.005000", "101405.465000", "101405.925000", "101406.385000", "101406.845000", "101407.305000", "101407.765000", "101408.225000", "101408.685000", "101409.145000", "101409.605000", "101410.065000", "101410.525000", "101410.985000", "101411.445000", "101411.905000", "101412.365000", "101412.825000", "101413.285000", "101413.745000", "101414.205000", "101414.665000", "101415.125000", "101415.585000", "101416.045000", "101416.505000", "101416.965000", "101417.425000", "101417.885000", "101418.345000", "101418.805000", "101419.265000", "101419.725000", "101420.185000", "101420.645000", "101421.105000", "101421.565000", "101422.025000", "101422.485000", "101422.945000", "101423.405000", "101423.865000", "101424.325000", "101424.785000", "101425.245000", "101425.705000", "101426.165000", "101426.625000", "101427.085000", "101427.545000", "101428.005000", "101428.465000", "101428.925000", "101429.385000", "101429.845000", "101430.305000", "101430.765000", "101431.225000", "101431.685000", "101432.145000", "101432.605000", "101433.065000", "101433.525000", "101433.985000", "101434.445000", "101434.905000", "101435.365000", "101435.825000", "101436.285000", "101436.745000", "101437.205000", "101437.665000", "101438.125000", "101438.585000", "101439.045000", "101439.505000", "101439.965000", "101440.425000", "101440.885000", "101441.345000", "101441.805000", "101442.265000", "101442.725000", "101443.185000", "101443.645000", "101444.105000", "101444.565000", "101445.025000", "101445.485000", "101445.945000", "101446.405000", "101446.865000", "101447.325000", "101447.785000", "101448.245000", "101448.705000", "101449.165000", "101449.625000", "101450.085000", "101450.545000", "101451.005000", "101451.465000", "101451.925000", "101452.385000", "101452.845000", "101453.305000", "101453.765000", "101454.225000", "101454.685000", "101455.145000", "101455.605000", "101456.065000", "101456.525000", "101456.985000", "101457.445000", "101457.905000", "101458.365000", "101458.825000", "101459.285000", "101459.745000", "101500.205000", "101500.665000", "101501.125000", "101501.585000", "101502.045000", "101502.505000", "101502.965000", "101503.425000", "101503.885000", "101504.345000", "101504.805000", "101505.265000", "101505.725000", "101506.185000", "101506.645000", "101507.105000", "101507.565000", "101508.025000", "101508.485000", "101508.945000", "101509.405000", "101509.865000", "101510.325000", "101510.785000", "101511.245000", "101511.705000", "101512.165000", "101512.625000", "101513.085000", "101513.545000", "101514.005000", "101514.465000", "101514.925000", "101515.385000", "101515.845000", "101516.305000", "101516.765000", "101517.225000", "101517.685000", "101518.145000", "101518.605000", "101519.065000", "101519.525000", "101519.985000", "101520.445000", "101520.905000", "101521.365000", "101521.825000", "101522.285000", "101522.745000", "101523.205000", "101523.665000", "101524.125000", "101524.585000", "101525.045000", "101525.505000", "101525.965000", "101526.425000", "101526.885000", "101527.345000", "101527.805000", "101528.265000", "101528.725000", "101529.185000", "101529.645000", "101530.105000", "101530.565000", "101531.025000", "101531.485000", "101531.945000", "101532.405000", "101532.865000", "101533.325000", "101533.785000", "101534.245000", "101534.705000", "101535.165000", "101535.625000", "101536.085000", "101536.545000", "101537.005000", "101537.465000", "101537.925000", "101538.385000", "101538.845000", "101539.305000", "101539.765000", "101540.225000", "101540.685000", "101541.145000", "101541.605000", "101542.065000", "101542.525000", "101542.985000", "101543.445000", "101543.905000", "101544.365000", "101544.825000", "101545.285000", "101545.745000", "101546.205000", "101546.665000", "101547.125000", "101547.585000", "101548.045000", "101548.505000", "101548.965000", "101549.425000", "101549.885000", "101550.345000", "101550.805000", "101551.265000", "101551.725000", "101552.185000", "101552.645000", "101553.105000", "101553.565000", "101554.025000", "101554.485000", "101554.945000", "101555.405000", "101555.865000", "101556.325000", "101556.785000", "101557.245000", "101557.705000", "101558.165000", "101558.625000", "101559.085000", "101559.545000", "101600.005000", "101600.465000", "101600.925000", "101601.385000", "101601.845000", "101602.305000", "101602.765000", "101603.225000", "101603.685000", "101604.145000", "101604.605000", "101605.065000", "101605.525000", "101605.985000", "101606.445000", "101606.905000", "101607.365000", "101607.825000", "101608.285000", "101608.745000", "101609.205000", "101609.665000", "101610.125000", "101610.585000", "101611.045000", "101611.505000", "101611.965000", "101612.425000", "101612.885000", "101613.345000", "101613.805000", "101614.265000", "101614.725000", "101615.185000", "101615.645000", "101616.105000", "101616.565000", "101617.025000", "101617.485000", "101617.945000", "101618.405000", "101618.865000", "101619.325000", "101619.785000", "101620.245000", "101620.705000", "101621.165000", "101621.625000", "101622.085000", "101622.545000", "101623.005000", "101623.465000", "101623.925000", "101624.385000", "101624.845000", "101625.305000", "101625.765000", "101626.225000", "101626.685000", "101627.145000", "101627.605000", "101628.065000", "101628.525000", "101628.985000", "101629.445000", "101629.905000", "101630.365000", "101630.825000", "101631.285000", "101631.745000", "101632.205000", "101632.665000", "101633.125000", "101633.585000", "101634.045000", "101634.505000", "101634.965000", "101635.425000", "101635.885000", "101636.345000", "101636.805000", "101637.265000", "101637.725000", "101638.185000", "101638.645000", "101639.105000", "101639.565000", "101640.025000", "101640.485000", "101640.945000", "101641.405000", "101641.865000", "101642.325000", "101642.785000", "101643.245000", "101643.705000", "101644.165000", "101644.625000", "101645.085000", "101645.545000", "101646.005000", "101646.465000", "101646.925000", "101647.385000", "101647.845000", "101648.305000", "101648.765000", "101649.225000", "101649.685000", "101650.145000", "101650.605000", "101651.065000", "101651.525000", "101651.985000", "101652.445000", "101652.905000", "101653.365000", "101653.825000", "101654.285000", "101654.745000", "101655.205000", "101655.665000", "101656.125000", "101656.585000", "101657.045000", "101657.505000", "101657.965000", "101658.425000", "101658.885000", "101659.345000", "101659.805000", "101700.265000", "101700.725000", "101701.185000", "101701.645000", "101702.105000", "101702.565000", "101703.025000", "101703.485000", "101703.945000", "101704.405000", "101704.865000", "101705.325000", "101705.785000", "101706.245000", "101706.705000", "101707.165000", "101707.625000", "101708.085000", "101708.545000", "101709.005000", "101709.465000", "101709.925000", "101710.385000", "101710.845000", "101711.305000", "101711.765000", "101712.225000", "101712.685000", "101713.145000"],
