{
  "AcquisitionMatrixPE": 82,
  "AcquisitionNumber": 1,
  "AcquisitionTime": "10:20:47.547500",
  "BandwidthPerPixelPhaseEncode": 24.888,
  "BaseResolution": 82,
  "BodyPartExamined": "BRAIN",
  "ConsistencyInfo": "N4_VE11E_LATEST_20181129",
  "ConversionSoftware": "dcm2niix",
  "ConversionSoftwareVersion": "v1.0.20201102",
  "DerivedVendorReportedEchoSpacing": 0.00049,
  "DeviceSerialNumber": "66112",
  "DwellTime": 2e-06,
  "EchoTime": 0.0272,
  "EchoTrainLength": 82,
  "EffectiveEchoSpacing": 0.00049,
  "FlipAngle": 44,
  "ImageComments": "Unaliased MB8/PE3",
  "ImageOrientationPatientDICOM": [0.999071, 0.0309688, 0.0299609, -0.0266851, 0.990609, -0.134098],
  "ImageType": [
    "ORIGINAL",
    "PRIMARY",
    "M",
    "MB",
    "ND",
    "NORM",
    "MOSAIC"
],
  "ImagingFrequency": 123.259,
  "InPlanePhaseEncodingDirectionDICOM": "COL",
  "InstitutionAddress": "Maynard 3,Hanover,NH,US,03755",
  "InstitutionName": "Dartmouth College - PBS",
  "InstitutionalDepartmentName": "Department",
  "MRAcquisitionType": "2D",
  "MagneticFieldStrength": 3,
  "Manufacturer": "Siemens",
  "ManufacturersModelName": "Prisma",
  "Modality": "MR",
  "MultibandAccelerationFactor": 8,
  "PartialFourier": 1,
  "PatientPosition": "HFS",
  "PercentPhaseFOV": 100,
  "PercentSampling": 100,
  "PhaseEncodingDirection": "j-",
  "PhaseEncodingSteps": 82,
  "PhaseResolution": 1,
  "PixelBandwidth": 3050,
  "ProcedureStepDescription": "Wager_Wager^1076_spacetop",
  "ProtocolName": "func_run-01_task-alignvideo_acq-ap-mb8",
  "PulseSequenceDetails": "%CustomerSeq%\\cmrr_mbep2d_bold",
  "ReceiveCoilActiveElements": "HEA;HEP",
  "ReceiveCoilName": "Head_32",
  "ReconMatrixPE": 82,
  "RepetitionTime": 0.46,
  "SAR": 0.0805897,
  "ScanOptions": "FS",
  "ScanningSequence": "EP",
  "SequenceName": "epfid2d1_82",
  "SequenceVariant": "SK\\SS",
  "SeriesDescription": "func_run-01_task-alignvideo_acq-ap-mb8",
  "SeriesNumber": 32,
  "ShimSetting": [4221, -7752, -7287, 399, -131, -199, 38, 89],
  "SliceThickness": 2.7,
  "SliceTiming": [0, 0.2525, 0.0625, 0.315, 0.125, 0.3775, 0.1875, 0, 0.2525, 0.0625, 0.315, 0.125, 0.3775, 0.1875, 0, 0.2525, 0.0625, 0.315, 0.125, 0.3775, 0.1875, 0, 0.2525, 0.0625, 0.315, 0.125, 0.3775, 0.1875, 0, 0.2525, 0.0625, 0.315, 0.125, 0.3775, 0.1875, 0, 0.2525, 0.0625, 0.315, 0.125, 0.3775, 0.1875, 0, 0.2525, 0.0625, 0.315, 0.125, 0.3775, 0.1875, 0, 0.2525, 0.0625, 0.315, 0.125, 0.3775, 0.1875],
  "SoftwareVersions": "syngo MR E11",
  "SpacingBetweenSlices": 2.7,
  "StationName": "AWP66112",
  "TaskName": "alignvideo",
  "TotalReadoutTime": 0.03969,
  "TxRefAmp": 234.918,
  "WipMemBlock": "722f2511-14d9-4fde-9bec-aff065eac5eb||Sequence: R016 ve11e/master r/434b28f1; Aug  7 2019 18:53:46 by eja",
  "dcmmeta_affine": [
    [-2.6804349422454834, -0.07159408181905746, 0.09134746342897415, 115.61528778076172],
    [-0.08308708667755127, 2.6577305793762207, -0.35957029461860657, -90.09952545166016],
    [0.08038290590047836, 0.35977575182914734, 2.6743905544281006, -107.87345123291016],
    [0.0, 0.0, 0.0, 1.0]
],
  "dcmmeta_reorient_transform": [
    [0.0, -1.0, 0.0, 81.0],
    [1.0, 0.0, 0.0, 0.0],
    [0.0, 0.0, 1.0, 0.0],
    [0.0, 0.0, 0.0, 1.0]
],
  "dcmmeta_shape": [82, 82, 56, 1073],
  "dcmmeta_slice_dim": 2,
  "dcmmeta_version": 0.6,
  "global": {
    "const": {
      "AccessionNumber": "A004511",
      "AcquisitionMatrix": [82, 0, 0, 82],
      "AngioFlag": "N",
      "BitsAllocated": 16,
      "BitsStored": 16,
      "BodyPartExamined": "BRAIN",
      "Columns": 656,
      "EchoNumbers": 1,
      "EchoTime": 27.2,
      "EchoTrainLength": 82,
      "FlipAngle": 44.0,
      "HighBit": 15,
      "ImageOrientationPatient": [0.99907120685508, 0.03096882313495, 0.02996090163489, -0.0266850661153, 0.99060868698963, -0.1340982345414],
      "ImagePositionPatient": [-858.55351273095, -911.7913614467, 1.4541333408125],
      "ImageType": [
        "ORIGINAL",
        "PRIMARY",
        "M",
        "MB",
        "ND",
        "NORM",
        "MOSAIC"
],
      "ImagedNucleus": "1H",
      "ImagingFrequency": 123.259123,
      "InPlanePhaseEncodingDirection": "COL",
      "MRAcquisitionType": "2D",
      "MagneticFieldStrength": 3.0,
      "Manufacturer": "SIEMENS",
      "ManufacturerModelName": "Prisma",
      "Modality": "MR",
      "NumberOfAverages": 1.0,
      "NumberOfPhaseEncodingSteps": 82,
      "PercentPhaseFieldOfView": 100.0,
      "PercentSampling": 100.0,
      "PerformedProcedureStepStartTime": "085829.463000",
      "PhotometricInterpretation": "MONOCHROME2",
      "PixelBandwidth": 3050.0,
      "PixelRepresentation": 0,
      "PixelSpacing": [2.6829268932343, 2.6829268932343],
      "ProtocolName": "func_run-01_task-alignvideo_acq-ap-mb8",
      "RepetitionTime": 460.0,
      "Rows": 656,
      "SAR": 0.08058965774301,
      "SamplesPerPixel": 1,
      "ScanOptions": "FS",
      "ScanningSequence": "EP",
      "SequenceName": "epfid2d1_82",
      "SequenceVariant": [
        "SK",
        "SS"
],
      "SeriesDescription": "func_run-01_task-alignvideo_acq-ap-mb8",
      "SeriesNumber": 32,
      "SeriesTime": "102105.897000",
      "SliceLocation": -90.93980201372,
      "SliceThickness": 2.7000000476837,
      "SmallestImagePixelValue": 0,
      "SoftwareVersions": "syngo MR E11",
      "SpacingBetweenSlices": 2.7000000636024,
      "SpecificCharacterSet": "ISO_IR 100",
      "StudyID": "1",
      "StudyTime": "085829.306000",
      "TransmitCoilName": "Body",
      "VariableFlipAngleFlag": "N",
      "WindowCenterWidthExplanation": "Algo1"
    },
    "slices": {}
  },
  "time": {
    "samples": {
      "AcquisitionNumber": [1, 2, 3, 4, 5, 6, 7, 8, 9, 10, 11, 12, 13, 14, 15, 16, 17, 18, 19, 20, 21, 22, 23, 24, 25, 26, 27, 28, 29, 30, 31, 32, 33, 34, 35, 36, 37, 38, 39, 40, 41, 42, 43, 44, 45, 46, 47, 48, 49, 50, 51, 52, 53, 54, 55, 56, 57, 58, 59, 60, 61, 62, 63, 64, 65, 66, 67, 68, 69, 70, 71, 72, 73, 74, 75, 76, 77, 78, 79, 80, 81, 82, 83, 84, 85, 86, 87, 88, 89, 90, 91, 92, 93, 94, 95, 96, 97, 98, 99, 100, 101, 102, 103, 104, 105, 106, 107, 108, 109, 110, 111, 112, 113, 114, 115, 116, 117, 118, 119, 120, 121, 122, 123, 124, 125, 126, 127, 128, 129, 130, 131, 132, 133, 134, 135, 136, 137, 138, 139, 140, 141, 142, 143, 144, 145, 146, 147, 148, 149, 150, 151, 152, 153, 154, 155, 156, 157, 158, 159, 160, 161, 162, 163, 164, 165, 166, 167, 168, 169, 170, 171, 172, 173, 174, 175, 176, 177, 178, 179, 180, 181, 182, 183, 184, 185, 186, 187, 188, 189, 190, 191, 192, 193, 194, 195, 196, 197, 198, 199, 200, 201, 202, 203, 204, 205, 206, 207, 208, 209, 210, 211, 212, 213, 214, 215, 216, 217, 218, 219, 220, 221, 222, 223, 224, 225, 226, 227, 228, 229, 230, 231, 232, 233, 234, 235, 236, 237, 238, 239, 240, 241, 242, 243, 244, 245, 246, 247, 248, 249, 250, 251, 252, 253, 254, 255, 256, 257, 258, 259, 260, 261, 262, 263, 264, 265, 266, 267, 268, 269, 270, 271, 272, 273, 274, 275, 276, 277, 278, 279, 280, 281, 282, 283, 284, 285, 286, 287, 288, 289, 290, 291, 292, 293, 294, 295, 296, 297, 298, 299, 300, 301, 302, 303, 304, 305, 306, 307, 308, 309, 310, 311, 312, 313, 314, 315, 316, 317, 318, 319, 320, 321, 322, 323, 324, 325, 326, 327, 328, 329, 330, 331, 332, 333, 334, 335, 336, 337, 338, 339, 340, 341, 342, 343, 344, 345, 346, 347, 348, 349, 350, 351, 352, 353, 354, 355, 356, 357, 358, 359, 360, 361, 362, 363, 364, 365, 366, 367, 368, 369, 370, 371, 372, 373, 374, 375, 376, 377, 378, 379, 380, 381, 382, 383, 384, 385, 386, 387, 388, 389, 390, 391, 392, 393, 394, 395, 396, 397, 398, 399, 400, 401, 402, 403, 404, 405, 406, 407, 408, 409, 410, 411, 412, 413, 414, 415, 416, 417, 418, 419, 420, 421, 422, 423, 424, 425, 426, 427, 428, 429, 430, 431, 432, 433, 434, 435, 436, 437, 438, 439, 440, 441, 442, 443, 444, 445, 446, 447, 448, 449, 450, 451, 452, 453, 454, 455, 456, 457, 458, 459, 460, 461, 462, 463, 464, 465, 466, 467, 468, 469, 470, 471, 472, 473, 474, 475, 476, 477, 478, 479, 480, 481, 482, 483, 484, 485, 486, 487, 488, 489, 490, 491, 492, 493, 494, 495, 496, 497, 498, 499, 500, 501, 502, 503, 504, 505, 506, 507, 508, 509, 510, 511, 512, 513, 514, 515, 516, 517, 518, 519, 520, 521, 522, 523, 524, 525, 526, 527, 528, 529, 530, 531, 532, 533, 534, 535, 536, 537, 538, 539, 540, 541, 542, 543, 544, 545, 546, 547, 548, 549, 550, 551, 552, 553, 554, 555, 556, 557, 558, 559, 560, 561, 562, 563, 564, 565, 566, 567, 568, 569, 570, 571, 572, 573, 574, 575, 576, 577, 578, 579, 580, 581, 582, 583, 584, 585, 586, 587, 588, 589, 590, 591, 592, 593, 594, 595, 596, 597, 598, 599, 600, 601, 602, 603, 604, 605, 606, 607, 608, 609, 610, 611, 612, 613, 614, 615, 616, 617, 618, 619, 620, 621, 622, 623, 624, 625, 626, 627, 628, 629, 630, 631, 632, 633, 634, 635, 636, 637, 638, 639, 640, 641, 642, 643, 644, 645, 646, 647, 648, 649, 650, 651, 652, 653, 654, 655, 656, 657, 658, 659, 660, 661, 662, 663, 664, 665, 666, 667, 668, 669, 670, 671, 672, 673, 674, 675, 676, 677, 678, 679, 680, 681, 682, 683, 684, 685, 686, 687, 688, 689, 690, 691, 692, 693, 694, 695, 696, 697, 698, 699, 700, 701, 702, 703, 704, 705, 706, 707, 708, 709, 710, 711, 712, 713, 714, 715, 716, 717, 718, 719, 720, 721, 722, 723, 724, 725, 726, 727, 728, 729, 730, 731, 732, 733, 734, 735, 736, 737, 738, 739, 740, 741, 742, 743, 744, 745, 746, 747, 748, 749, 750, 751, 752, 753, 754, 755, 756, 757, 758, 759, 760, 761, 762, 763, 764, 765, 766, 767, 768, 769, 770, 771, 772, 773, 774, 775, 776, 777, 778, 779, 780, 781, 782, 783, 784, 785, 786, 787, 788, 789, 790, 791, 792, 793, 794, 795, 796, 797, 798, 799, 800, 801, 802, 803, 804, 805, 806, 807, 808, 809, 810, 811, 812, 813, 814, 815, 816, 817, 818, 819, 820, 821, 822, 823, 824, 825, 826, 827, 828, 829, 830, 831, 832, 833, 834, 835, 836, 837, 838, 839, 840, 841, 842, 843, 844, 845, 846, 847, 848, 849, 850, 851, 852, 853, 854, 855, 856, 857, 858, 859, 860, 861, 862, 863, 864, 865, 866, 867, 868, 869, 870, 871, 872, 873, 874, 875, 876, 877, 878, 879, 880, 881, 882, 883, 884, 885, 886, 887, 888, 889, 890, 891, 892, 893, 894, 895, 896, 897, 898, 899, 900, 901, 902, 903, 904, 905, 906, 907, 908, 909, 910, 911, 912, 913, 914, 915, 916, 917, 918, 919, 920, 921, 922, 923, 924, 925, 926, 927, 928, 929, 930, 931, 932, 933, 934, 935, 936, 937, 938, 939, 940, 941, 942, 943, 944, 945, 946, 947, 948, 949, 950, 951, 952, 953, 954, 955, 956, 957, 958, 959, 960, 961, 962, 963, 964, 965, 966, 967, 968, 969, 970, 971, 972, 973, 974, 975, 976, 977, 978, 979, 980, 981, 982, 983, 984, 985, 986, 987, 988, 989, 990, 991, 992, 993, 994, 995, 996, 997, 998, 999, 1000, 1001, 1002, 1003, 1004, 1005, 1006, 1007, 1008, 1009, 1010, 1011, 1012, 1013, 1014, 1015, 1016, 1017, 1018, 1019, 1020, 1021, 1022, 1023, 1024, 1025, 1026, 1027, 1028, 1029, 1030, 1031, 1032, 1033, 1034, 1035, 1036, 1037, 1038, 1039, 1040, 1041, 1042, 1043, 1044, 1045, 1046, 1047, 1048, 1049, 1050, 1051, 1052, 1053, 1054, 1055, 1056, 1057, 1058, 1059, 1060, 1061, 1062, 1063, 1064, 1065, 1066, 1067, 1068, 1069, 1070, 1071, 1072, 1073],
      "AcquisitionTime": ["102047.547500", "102048.007500", "102048.467500", "102048.927500", "102049.387500", "102049.847500", "102050.307500", "102050.767500", "102051.227500", "102051.687500", "102052.147500", "102052.607500", "102053.067500", "102053.527500", "102053.987500", "102054.447500", "102054.907500", "102055.367500", "102055.827500", "102056.287500", "102056.747500", "102057.207500", "102057.667500", "102058.127500", "102058.587500", "102059.047500", "102059.507500", "102059.967500", "102100.427500", "102100.887500", "102101.347500", "102101.807500", "102102.267500", "102102.727500", "102103.187500", "102103.647500", "102104.107500", "102104.567500", "102105.027500", "102105.487500", "102105.947500", "102106.407500", "102106.867500", "102107.327500", "102107.787500", "102108.247500", "102108.707500", "102109.167500", "102109.627500", "102110.087500", "102110.547500", "102111.007500", "102111.467500", "102111.927500", "102112.387500", "102112.847500", "102113.307500", "102113.767500", "102114.227500", "102114.687500", "102115.147500", "102115.607500", "102116.067500", "102116.527500", "102116.987500", "102117.447500", "102117.907500", "102118.367500", "102118.827500", "102119.287500", "102119.747500", "102120.207500", "102120.667500", "102121.127500", "102121.587500", "102122.047500", "102122.507500", "102122.967500", "102123.427500", "102123.887500", "102124.347500", "102124.807500", "102125.267500", "102125.727500", "102126.187500", "102126.647500", "102127.107500", "102127.567500", "102128.027500", "102128.487500", "102128.947500", "102129.407500", "102129.867500", "102130.327500", "102130.787500", "102131.247500", "102131.707500", "102132.167500", "102132.627500", "102133.087500", "102133.547500", "102134.007500", "102134.467500", "102134.927500", "102135.387500", "102135.847500", "102136.307500", "102136.767500", "102137.227500", "102137.687500", "102138.147500", "102138.607500", "102139.067500", "102139.527500", "102139.987500", "102140.447500", "102140.907500", "102141.367500", "102141.827500", "102142.287500", "102142.747500", "102143.207500", "102143.667500", "102144.127500", "102144.587500", "102145.047500", "102145.507500", "102145.967500", "102146.427500", "102146.887500", "102147.347500", "102147.807500", "102148.267500", "102148.727500", "102149.187500", "102149.647500", "102150.107500", "102150.567500", "102151.027500", "102151.487500", "102151.947500", "102152.407500", "102152.867500", "102153.327500", "102153.787500", "102154.247500", "102154.707500", "102155.167500", "102155.627500", "102156.087500", "102156.547500", "102157.007500", "102157.467500", "102157.927500", "102158.387500", "102158.847500", "102159.307500", "102159.767500", "102200.227500", "102200.687500", "102201.147500", "102201.607500", "102202.067500", "102202.527500", "102202.987500", "102203.447500", "102203.907500", "102204.367500", "102204.827500", "102205.287500", "102205.747500", "102206.207500", "102206.667500", "102207.127500", "102207.587500", "102208.047500", "102208.507500", "102208.967500", "102209.427500", "102209.887500", "102210.347500", "102210.807500", "102211.267500", "102211.727500", "102212.187500", "102212.647500", "102213.107500", "102213.567500", "102214.027500", "102214.487500", "102214.947500", "102215.407500", "102215.867500", "102216.327500", "102216.787500", "102217.247500", "102217.707500", "102218.167500", "102218.627500", "102219.087500", "102219.547500", "102220.007500", "102220.467500", "102220.927500", "102221.387500", "102221.847500", "102222.307500", "102222.767500", "102223.227500", "102223.687500", "102224.147500", "102224.607500", "102225.067500", "102225.527500", "102225.987500", "102226.447500", "102226.907500", "102227.367500", "102227.827500", "102228.287500", "102228.747500", "102229.207500", "102229.667500", "102230.127500", "102230.587500", "102231.047500", "102231.507500", "102231.967500", "102232.427500", "102232.887500", "102233.347500", "102233.807500", "102234.267500", "102234.727500", "102235.187500", "102235.647500", "102236.107500", "102236.567500", "102237.027500", "102237.487500", "102237.947500", "102238.407500", "102238.867500", "102239.327500", "102239.787500", "102240.247500", "102240.707500", "102241.167500", "102241.627500", "102242.087500", "102242.547500", "102243.007500", "102243.467500", "102243.927500", "102244.387500", "102244.847500", "102245.307500", "102245.767500", "102246.227500", "102246.687500", "102247.147500", "102247.607500", "102248.067500", "102248.527500", "102248.987500", "102249.447500", "102249.907500", "102250.367500", "102250.827500", "102251.287500", "102251.747500", "102252.207500", "102252.667500", "102253.127500", "102253.587500", "102254.047500", "102254.507500", "102254.967500", "102255.427500", "102255.887500", "102256.347500", "102256.807500", "102257.267500", "102257.727500", "102258.187500", "102258.647500", "102259.107500", "102259.567500", "102300.027500", "102300.487500", "102300.947500", "102301.407500", "102301.867500", "102302.327500", "102302.787500", "102303.247500", "102303.707500", "102304.167500", "102304.627500", "102305.087500", "102305.547500", "102306.007500", "102306.467500", "102306.927500", "102307.387500", "102307.847500", "102308.307500", "102308.767500", "102309.227500", "102309.687500", "102310.147500", "102310.607500", "102311.067500", "102311.527500", "102311.987500", "102312.447500", "102312.907500", "102313.367500", "102313.827500", "102314.287500", "102314.747500", "102315.207500", "102315.667500", "102316.127500", "102316.587500", "102317.047500", "102317.507500", "102317.967500", "102318.427500", "102318.887500", "102319.347500", "102319.807500", "102320.267500", "102320.727500", "102321.187500", "102321.647500", "102322.107500", "102322.567500", "102323.027500", "102323.487500", "102323.947500", "102324.407500", "102324.867500", "102325.327500", "102325.787500", "102326.247500", "102326.707500", "102327.167500", "102327.627500", "102328.087500", "102328.547500", "102329.007500", "102329.467500", "102329.927500", "102330.387500", "102330.847500", "102331.307500", "102331.767500", "102332.227500", "102332.687500", "102333.147500", "102333.607500", "102334.067500", "102334.527500", "102334.987500", "102335.447500", "102335.907500", "102336.367500", "102336.827500", "102337.287500", "102337.747500", "102338.207500", "102338.667500", "102339.127500", "102339.587500", "102340.047500", "102340.507500", "102340.967500", "102341.427500", "102341.887500", "102342.347500", "102342.807500", "102343.267500", "102343.727500", "102344.187500", "102344.647500", "102345.107500", "102345.567500", "102346.027500", "102346.487500", "102346.947500", "102347.407500", "102347.867500", "102348.327500", "102348.787500", "102349.247500", "102349.707500", "102350.167500", "102350.627500", "102351.087500", "102351.547500", "102352.007500", "102352.467500", "102352.927500", "102353.387500", "102353.847500", "102354.307500", "102354.767500", "102355.227500", "102355.687500", "102356.147500", "102356.607500", "102357.067500", "102357.527500", "102357.987500", "102358.447500", "102358.907500", "102359.367500", "102359.827500", "102400.287500", "102400.747500", "102401.207500", "102401.667500", "102402.127500", "102402.587500", "102403.047500", "102403.507500", "102403.967500", "102404.427500", "102404.887500", "102405.347500", "102405.807500", "102406.267500", "102406.727500", "102407.187500", "102407.647500", "102408.107500", "102408.567500", "102409.027500", "102409.487500", "102409.947500", "102410.407500", "102410.867500", "102411.327500", "102411.787500", "102412.247500", "102412.707500", "102413.167500", "102413.627500", "102414.087500", "102414.547500", "102415.007500", "102415.467500", "102415.927500", "102416.387500", "102416.847500", "102417.307500", "102417.767500", "102418.227500", "102418.687500", "102419.147500", "102419.607500", "102420.067500", "102420.527500", "102420.987500", "102421.447500", "102421.907500", "102422.367500", "102422.827500", "102423.287500", "102423.747500", "102424.207500", "102424.667500", "102425.127500", "102425.587500", "102426.047500", "102426.507500", "102426.967500", "102427.427500", "102427.887500", "102428.347500", "102428.807500", "102429.267500", "102429.727500", "102430.187500", "102430.647500", "102431.107500", "102431.567500", "102432.027500", "102432.487500", "102432.947500", "102433.407500", "102433.867500", "102434.327500", "102434.787500", "102435.247500", "102435.707500", "102436.167500", "102436.627500", "102437.087500", "102437.547500", "102438.007500", "102438.467500", "102438.927500", "102439.387500", "102439.847500", "102440.307500", "102440.767500", "102441.227500", "102441.687500", "102442.147500", "102442.607500", "102443.067500", "102443.527500", "102443.987500", "102444.447500", "102444.907500", "102445.367500", "102445.827500", "102446.287500", "102446.747500", "102447.207500", "102447.667500", "102448.127500", "102448.587500", "102449.047500", "102449.507500", "102449.967500", "102450.427500", "102450.887500", "102451.347500", "102451.807500", "102452.267500", "102452.727500", "102453.187500", "102453.647500", "102454.107500", "102454.567500", "102455.027500", "102455.487500", "102455.947500", "102456.407500", "102456.867500", "102457.327500", "102457.787500", "102458.247500", "102458.707500", "102459.167500", "102459.627500", "102500.087500", "102500.547500", "102501.007500", "102501.467500", "102501.927500", "102502.387500", "102502.847500", "102503.307500", "102503.767500", "102504.227500", "102504.687500", "102505.147500", "102505.607500", "102506.067500", "102506.527500", "102506.987500", "102507.447500", "102507.907500", "102508.367500", "102508.827500", "102509.287500", "102509.747500", "102510.207500", "102510.667500", "102511.127500", "102511.587500", "102512.047500", "102512.507500", "102512.967500", "102513.427500", "102513.887500", "102514.347500", "102514.807500", "102515.267500", "102515.727500", "102516.187500", "102516.647500", "102517.107500", "102517.567500", "102518.027500", "102518.487500", "102518.947500", "102519.407500", "102519.867500", "102520.327500", "102520.787500", "102521.247500", "102521.707500", "102522.167500", "102522.627500", "102523.087500", "102523.547500", "102524.007500", "102524.467500", "102524.927500", "102525.387500", "102525.847500", "102526.307500", "102526.767500", "102527.227500", "102527.687500", "102528.147500", "102528.607500", "102529.067500", "102529.527500", "102529.987500", "102530.447500", "102530.907500", "102531.367500", "102531.827500", "102532.287500", "102532.747500", "102533.207500", "102533.667500", "102534.127500", "102534.587500", "102535.047500", "102535.507500", "102535.967500", "102536.427500", "102536.887500", "102537.347500", "102537.807500", "102538.267500", "102538.727500", "102539.187500", "102539.647500", "102540.107500", "102540.567500", "102541.027500", "102541.487500", "102541.947500", "102542.407500", "102542.867500", "102543.327500", "102543.787500", "102544.247500", "102544.707500", "102545.167500", "102545.627500", "102546.087500", "102546.547500", "102547.007500", "102547.467500", "102547.927500", "102548.387500", "102548.847500", "102549.307500", "102549.767500", "102550.227500", "102550.687500", "102551.147500", "102551.607500", "102552.067500", "102552.527500", "102552.987500", "102553.447500", "102553.907500", "102554.367500", "102554.827500", "102555.287500", "102555.747500", "102556.207500", "102556.667500", "102557.127500", "102557.587500", "102558.047500", "102558.507500", "102558.967500", "102559.427500", "102559.887500", "102600.347500", "102600.807500", "102601.267500", "102601.727500", "102602.187500", "102602.647500", "102603.107500", "102603.567500", "102604.027500", "102604.487500", "102604.947500", "102605.407500", "102605.867500", "102606.327500", "102606.787500", "102607.247500", "102607.707500", "102608.167500", "102608.627500", "102609.087500", "102609.547500", "102610.007500", "102610.467500", "102610.927500", "102611.387500", "102611.847500", "102612.307500", "102612.767500", "102613.227500", "102613.687500", "102614.147500", "102614.607500", "102615.067500", "102615.527500", "102615.987500", "102616.447500", "102616.907500", "102617.367500", "102617.827500", "102618.287500", "102618.747500", "102619.207500", "102619.667500", "102620.127500", "102620.587500", "102621.047500", "102621.507500", "102621.967500", "102622.427500", "102622.887500", "102623.347500", "102623.807500", "102624.267500", "102624.727500", "102625.187500", "102625.647500", "102626.107500", "102626.567500", "102627.027500", "102627.487500", "102627.947500", "102628.407500", "102628.867500", "102629.327500", "102629.787500", "102630.247500", "102630.707500", "102631.167500", "102631.627500", "102632.087500", "102632.547500", "102633.007500", "102633.467500", "102633.927500", "102634.387500", "102634.847500", "102635.307500", "102635.767500", "102636.227500", "102636.687500", "102637.147500", "102637.607500", "102638.067500", "102638.527500", "102638.987500", "102639.447500", "102639.907500", "102640.367500", "102640.827500", "102641.287500", "102641.747500", "102642.207500", "102642.667500", "102643.127500", "102643.587500", "102644.047500", "102644.507500", "102644.967500", "102645.427500", "102645.887500", "102646.347500", "102646.807500", "102647.267500", "102647.727500", "102648.187500", "102648.647500", "102649.107500", "102649.567500", "102650.027500", "102650.487500", "102650.947500", "102651.407500", "102651.867500", "102652.327500", "102652.787500", "102653.247500", "102653.707500", "102654.167500", "102654.627500", "102655.087500", "102655.547500", "102656.007500", "102656.467500", "102656.927500", "102657.387500", "102657.847500", "102658.307500", "102658.767500", "102659.227500", "102659.687500", "102700.147500", "102700.607500", "102701.067500", "102701.527500", "102701.987500", "102702.447500", "102702.907500", "102703.367500", "102703.827500", "102704.287500", "102704.747500", "102705.207500", "102705.667500", "102706.127500", "102706.587500", "102707.047500", "102707.507500", "102707.967500", "102708.427500", "102708.887500", "102709.347500", "102709.807500", "102710.267500", "102710.727500", "102711.187500", "102711.647500", "102712.107500", "102712.567500", "102713.027500", "102713.487500", "102713.947500", "102714.407500", "102714.867500", "102715.327500", "102715.787500", "102716.247500", "102716.707500", "102717.167500", "102717.627500", "102718.087500", "102718.547500", "102719.007500", "102719.467500", "102719.927500", "102720.387500", "102720.847500", "102721.307500", "102721.767500", "102722.227500", "102722.687500", "102723.147500", "102723.607500", "102724.067500", "102724.527500", "102724.987500", "102725.447500", "102725.907500", "102726.367500", "102726.827500", "102727.287500", "102727.747500", "102728.207500", "102728.667500", "102729.127500", "102729.587500", "102730.047500", "102730.507500", "102730.967500", "102731.427500", "102731.887500", "102732.347500", "102732.807500", "102733.267500", "102733.727500", "102734.187500", "102734.647500", "102735.107500", "102735.567500", "102736.027500", "102736.487500", "102736.947500", "102737.407500", "102737.867500", "102738.327500", "102738.787500", "102739.247500", "102739.707500", "102740.167500", "102740.627500", "102741.087500", "102741.547500", "102742.007500", "102742.467500", "102742.927500", "102743.387500", "102743.847500", "102744.307500", "102744.767500", "102745.227500", "102745.687500", "102746.147500", "102746.607500", "102747.067500", "102747.527500", "102747.987500", "102748.447500", "102748.907500", "102749.367500", "102749.827500", "102750.287500", "102750.747500", "102751.207500", "102751.667500", "102752.127500", "102752.587500", "102753.047500", "102753.507500", "102753.967500", "102754.427500", "102754.887500", "102755.347500", "102755.807500", "102756.267500", "102756.727500", "102757.187500", "102757.647500", "102758.107500", "102758.567500", "102759.027500", "102759.487500", "102759.947500", "102800.407500", "102800.867500", "102801.327500", "102801.787500", "102802.247500", "102802.707500", "102803.167500", "102803.627500", "102804.087500", "102804.547500", "102805.007500", "102805.467500", "102805.927500", "102806.387500", "102806.847500", "102807.307500", "102807.767500", "102808.227500", "102808.687500", "102809.147500", "102809.607500", "102810.067500", "102810.527500", "102810.987500", "102811.447500", "102811.907500", "102812.367500", "102812.827500", "102813.287500", "102813.747500", "102814.207500", "102814.667500", "102815.127500", "102815.587500", "102816.047500", "102816.507500", "102816.967500", "102817.427500", "102817.887500", "102818.347500", "102818.807500", "102819.267500", "102819.727500", "102820.187500", "102820.647500", "102821.107500", "102821.567500", "102822.027500", "102822.487500", "102822.947500", "102823.407500", "102823.867500", "102824.327500", "102824.787500", "102825.247500", "102825.707500", "102826.167500", "102826.627500", "102827.087500", "102827.547500", "102828.007500", "102828.467500", "102828.927500", "102829.387500", "102829.847500", "102830.307500", "102830.767500", "102831.227500", "102831.687500", "102832.147500", "102832.607500", "102833.067500", "102833.527500", "102833.987500", "102834.447500", "102834.907500", "102835.367500", "102835.827500", "102836.287500", "102836.747500", "102837.207500", "102837.667500", "102838.127500", "102838.587500", "102839.047500", "102839.507500", "102839.967500", "102840.427500", "102840.887500", "102841.347500", "102841.807500", "102842.267500", "102842.727500", "102843.187500", "102843.647500", "102844.107500", "102844.567500", "102845.027500", "102845.487500", "102845.947500", "102846.407500", "102846.867500", "102847.327500", "102847.787500", "102848.247500", "102848.707500", "102849.167500", "102849.627500", "102850.087500", "102850.547500", "102851.007500", "102851.467500", "102851.927500", "102852.387500", "102852.847500", "102853.307500", "102853.767500", "102854.227500", "102854.687500", "102855.147500", "102855.607500", "102856.067500", "102856.527500", "102856.987500", "102857.447500", "102857.907500", "102858.367500", "102858.827500", "102859.287500", "102859.747500", "102900.207500", "102900.667500"],
