{
  "AcquisitionMatrixPE": 82,
  "AcquisitionNumber": 1,
  "AcquisitionTime": "10:03:19.680000",
  "BandwidthPerPixelPhaseEncode": 24.888,
  "BaseResolution": 82,
  "BodyPartExamined": "BRAIN",
  "ConsistencyInfo": "N4_VE11E_LATEST_20181129",
  "ConversionSoftware": "dcm2niix",
  "ConversionSoftwareVersion": "v1.0.20201102",
  "DerivedVendorReportedEchoSpacing": 0.00049,
  "DeviceSerialNumber": "66112",
  "DwellTime": 2e-06,
  "EchoTime": 0.0272,
  "EchoTrainLength": 82,
  "EffectiveEchoSpacing": 0.00049,
  "FlipAngle": 44,
  "ImageComments": "Unaliased MB8/PE3",
  "ImageOrientationPatientDICOM": [0.998781, 0.0266646, 0.0415368, -0.0209215, 0.990891, -0.133033],
  "ImageType": [
    "ORIGINAL",
    "PRIMARY",
    "M",
    "MB",
    "ND",
    "NORM",
    "MOSAIC"
],
  "ImagingFrequency": 123.259,
  "InPlanePhaseEncodingDirectionDICOM": "COL",
  "InstitutionAddress": "Maynard 3,Hanover,NH,US,03755",
  "InstitutionName": "Dartmouth College - PBS",
  "InstitutionalDepartmentName": "Department",
  "MRAcquisitionType": "2D",
  "MagneticFieldStrength": 3,
  "Manufacturer": "Siemens",
  "ManufacturersModelName": "Prisma",
  "Modality": "MR",
  "MultibandAccelerationFactor": 8,
  "PartialFourier": 1,
  "PatientPosition": "HFS",
  "PercentPhaseFOV": 100,
  "PercentSampling": 100,
  "PhaseEncodingDirection": "j-",
  "PhaseEncodingSteps": 82,
  "PhaseResolution": 1,
  "PixelBandwidth": 3050,
  "ProcedureStepDescription": "Wager_Wager^1076_spacetop",
  "ProtocolName": "func_run-05_task-social_acq-ap-mb8",
  "PulseSequenceDetails": "%CustomerSeq%\\cmrr_mbep2d_bold",
  "ReceiveCoilActiveElements": "HEA;HEP",
  "ReceiveCoilName": "Head_32",
  "ReconMatrixPE": 82,
  "RepetitionTime": 0.46,
  "SAR": 0.0804958,
  "ScanOptions": "FS",
  "ScanningSequence": "EP",
  "SequenceName": "epfid2d1_82",
  "SequenceVariant": "SK\\SS",
  "SeriesDescription": "func_run-05_task-social_acq-ap-mb8",
  "SeriesNumber": 22,
  "ShimSetting": [4222, -7754, -7287, 400, -125, -192, 45, 91],
  "SliceThickness": 2.7,
  "SliceTiming": [0, 0.2525, 0.0625, 0.315, 0.125, 0.3775, 0.1875, 0, 0.2525, 0.0625, 0.315, 0.125, 0.3775, 0.1875, 0, 0.2525, 0.0625, 0.315, 0.125, 0.3775, 0.1875, 0, 0.2525, 0.0625, 0.315, 0.125, 0.3775, 0.1875, 0, 0.2525, 0.0625, 0.315, 0.125, 0.3775, 0.1875, 0, 0.2525, 0.0625, 0.315, 0.125, 0.3775, 0.1875, 0, 0.2525, 0.0625, 0.315, 0.125, 0.3775, 0.1875, 0, 0.2525, 0.0625, 0.315, 0.125, 0.3775, 0.1875],
  "SoftwareVersions": "syngo MR E11",
  "SpacingBetweenSlices": 2.7,
  "StationName": "AWP66112",
  "TaskName": "social",
  "TotalReadoutTime": 0.03969,
  "TxRefAmp": 234.918,
  "WipMemBlock": "6c9a59b6-ce68-4654-95b3-deaa82f969c7||Sequence: R016 ve11e/master r/434b28f1; Aug  7 2019 18:53:46 by eja",
  "dcmmeta_affine": [
    [-2.679656744003296, -0.0561307817697525, 0.12070538103580475, 114.38377380371094],
    [-0.07153919339179993, 2.658487558364868, -0.3564036786556244, -85.53070831298828],
    [0.11144020408391953, 0.35691654682159424, 2.6736505031585693, -101.0906982421875],
    [0.0, 0.0, 0.0, 1.0]
],
  "dcmmeta_reorient_transform": [
    [0.0, -1.0, 0.0, 81.0],
    [1.0, 0.0, 0.0, 0.0],
    [0.0, 0.0, 1.0, 0.0],
    [0.0, 0.0, 0.0, 1.0]
],
  "dcmmeta_shape": [82, 82, 56, 872],
  "dcmmeta_slice_dim": 2,
  "dcmmeta_version": 0.6,
  "global": {
    "const": {
      "AccessionNumber": "A004511",
      "AcquisitionMatrix": [82, 0, 0, 82],
      "AngioFlag": "N",
      "BitsAllocated": 16,
      "BitsStored": 16,
      "BodyPartExamined": "BRAIN",
      "Columns": 656,
      "EchoNumbers": 1,
      "EchoTime": 27.2,
      "EchoTrainLength": 82,
      "FlipAngle": 44.0,
      "HighBit": 15,
      "ImageOrientationPatient": [0.99878110348322, 0.02666460908149, 0.04153680232495, -0.0209214721429, 0.99089083138233, -0.1330325234136],
      "ImagePositionPatient": [-862.78911725054, -913.32450323223, -1.7287510100839],
      "ImageType": [
        "ORIGINAL",
        "PRIMARY",
        "M",
        "MB",
        "ND",
        "NORM",
        "MOSAIC"
],
      "ImagedNucleus": "1H",
      "ImagingFrequency": 123.259122,
      "InPlanePhaseEncodingDirection": "COL",
      "MRAcquisitionType": "2D",
      "MagneticFieldStrength": 3.0,
      "Manufacturer": "SIEMENS",
      "ManufacturerModelName": "Prisma",
      "Modality": "MR",
      "NumberOfAverages": 1.0,
      "NumberOfPhaseEncodingSteps": 82,
      "PercentPhaseFieldOfView": 100.0,
      "PercentSampling": 100.0,
      "PerformedProcedureStepStartTime": "085829.463000",
      "PhotometricInterpretation": "MONOCHROME2",
      "PixelBandwidth": 3050.0,
      "PixelRepresentation": 0,
      "PixelSpacing": [2.6829268932343, 2.6829268932343],
      "ProtocolName": "func_run-05_task-social_acq-ap-mb8",
      "RepetitionTime": 460.0,
      "Rows": 656,
      "SAR": 0.08049577909023,
      "SamplesPerPixel": 1,
      "ScanOptions": "FS",
      "ScanningSequence": "EP",
      "SequenceName": "epfid2d1_82",
      "SequenceVariant": [
        "SK",
        "SS"
],
      "SeriesDescription": "func_run-05_task-social_acq-ap-mb8",
      "SeriesNumber": 22,
      "SeriesTime": "100346.007000",
      "SliceLocation": -83.700367336039,
      "SliceThickness": 2.7000000476837,
      "SmallestImagePixelValue": 0,
      "SoftwareVersions": "syngo MR E11",
      "SpacingBetweenSlices": 2.6999999988782,
      "SpecificCharacterSet": "ISO_IR 100",
      "StudyID": "1",
      "StudyTime": "085829.306000",
      "TransmitCoilName": "Body",
      "VariableFlipAngleFlag": "N",
      "WindowCenterWidthExplanation": "Algo1"
    },
    "slices": {}
  },
  "time": {
    "samples": {
      "AcquisitionNumber": [1, 2, 3, 4, 5, 6, 7, 8, 9, 10, 11, 12, 13, 14, 15, 16, 17, 18, 19, 20, 21, 22, 23, 24, 25, 26, 27, 28, 29, 30, 31, 32, 33, 34, 35, 36, 37, 38, 39, 40, 41, 42, 43, 44, 45, 46, 47, 48, 49, 50, 51, 52, 53, 54, 55, 56, 57, 58, 59, 60, 61, 62, 63, 64, 65, 66, 67, 68, 69, 70, 71, 72, 73, 74, 75, 76, 77, 78, 79, 80, 81, 82, 83, 84, 85, 86, 87, 88, 89, 90, 91, 92, 93, 94, 95, 96, 97, 98, 99, 100, 101, 102, 103, 104, 105, 106, 107, 108, 109, 110, 111, 112, 113, 114, 115, 116, 117, 118, 119, 120, 121, 122, 123, 124, 125, 126, 127, 128, 129, 130, 131, 132, 133, 134, 135, 136, 137, 138, 139, 140, 141, 142, 143, 144, 145, 146, 147, 148, 149, 150, 151, 152, 153, 154, 155, 156, 157, 158, 159, 160, 161, 162, 163, 164, 165, 166, 167, 168, 169, 170, 171, 172, 173, 174, 175, 176, 177, 178, 179, 180, 181, 182, 183, 184, 185, 186, 187, 188, 189, 190, 191, 192, 193, 194, 195, 196, 197, 198, 199, 200, 201, 202, 203, 204, 205, 206, 207, 208, 209, 210, 211, 212, 213, 214, 215, 216, 217, 218, 219, 220, 221, 222, 223, 224, 225, 226, 227, 228, 229, 230, 231, 232, 233, 234, 235, 236, 237, 238, 239, 240, 241, 242, 243, 244, 245, 246, 247, 248, 249, 250, 251, 252, 253, 254, 255, 256, 257, 258, 259, 260, 261, 262, 263, 264, 265, 266, 267, 268, 269, 270, 271, 272, 273, 274, 275, 276, 277, 278, 279, 280, 281, 282, 283, 284, 285, 286, 287, 288, 289, 290, 291, 292, 293, 294, 295, 296, 297, 298, 299, 300, 301, 302, 303, 304, 305, 306, 307, 308, 309, 310, 311, 312, 313, 314, 315, 316, 317, 318, 319, 320, 321, 322, 323, 324, 325, 326, 327, 328, 329, 330, 331, 332, 333, 334, 335, 336, 337, 338, 339, 340, 341, 342, 343, 344, 345, 346, 347, 348, 349, 350, 351, 352, 353, 354, 355, 356, 357, 358, 359, 360, 361, 362, 363, 364, 365, 366, 367, 368, 369, 370, 371, 372, 373, 374, 375, 376, 377, 378, 379, 380, 381, 382, 383, 384, 385, 386, 387, 388, 389, 390, 391, 392, 393, 394, 395, 396, 397, 398, 399, 400, 401, 402, 403, 404, 405, 406, 407, 408, 409, 410, 411, 412, 413, 414, 415, 416, 417, 418, 419, 420, 421, 422, 423, 424, 425, 426, 427, 428, 429, 430, 431, 432, 433, 434, 435, 436, 437, 438, 439, 440, 441, 442, 443, 444, 445, 446, 447, 448, 449, 450, 451, 452, 453, 454, 455, 456, 457, 458, 459, 460, 461, 462, 463, 464, 465, 466, 467, 468, 469, 470, 471, 472, 473, 474, 475, 476, 477, 478, 479, 480, 481, 482, 483, 484, 485, 486, 487, 488, 489, 490, 491, 492, 493, 494, 495, 496, 497, 498, 499, 500, 501, 502, 503, 504, 505, 506, 507, 508, 509, 510, 511, 512, 513, 514, 515, 516, 517, 518, 519, 520, 521, 522, 523, 524, 525, 526, 527, 528, 529, 530, 531, 532, 533, 534, 535, 536, 537, 538, 539, 540, 541, 542, 543, 544, 545, 546, 547, 548, 549, 550, 551, 552, 553, 554, 555, 556, 557, 558, 559, 560, 561, 562, 563, 564, 565, 566, 567, 568, 569, 570, 571, 572, 573, 574, 575, 576, 577, 578, 579, 580, 581, 582, 583, 584, 585, 586, 587, 588, 589, 590, 591, 592, 593, 594, 595, 596, 597, 598, 599, 600, 601, 602, 603, 604, 605, 606, 607, 608, 609, 610, 611, 612, 613, 614, 615, 616, 617, 618, 619, 620, 621, 622, 623, 624, 625, 626, 627, 628, 629, 630, 631, 632, 633, 634, 635, 636, 637, 638, 639, 640, 641, 642, 643, 644, 645, 646, 647, 648, 649, 650, 651, 652, 653, 654, 655, 656, 657, 658, 659, 660, 661, 662, 663, 664, 665, 666, 667, 668, 669, 670, 671, 672, 673, 674, 675, 676, 677, 678, 679, 680, 681, 682, 683, 684, 685, 686, 687, 688, 689, 690, 691, 692, 693, 694, 695, 696, 697, 698, 699, 700, 701, 702, 703, 704, 705, 706, 707, 708, 709, 710, 711, 712, 713, 714, 715, 716, 717, 718, 719, 720, 721, 722, 723, 724, 725, 726, 727, 728, 729, 730, 731, 732, 733, 734, 735, 736, 737, 738, 739, 740, 741, 742, 743, 744, 745, 746, 747, 748, 749, 750, 751, 752, 753, 754, 755, 756, 757, 758, 759, 760, 761, 762, 763, 764, 765, 766, 767, 768, 769, 770, 771, 772, 773, 774, 775, 776, 777, 778, 779, 780, 781, 782, 783, 784, 785, 786, 787, 788, 789, 790, 791, 792, 793, 794, 795, 796, 797, 798, 799, 800, 801, 802, 803, 804, 805, 806, 807, 808, 809, 810, 811, 812, 813, 814, 815, 816, 817, 818, 819, 820, 821, 822, 823, 824, 825, 826, 827, 828, 829, 830, 831, 832, 833, 834, 835, 836, 837, 838, 839, 840, 841, 842, 843, 844, 845, 846, 847, 848, 849, 850, 851, 852, 853, 854, 855, 856, 857, 858, 859, 860, 861, 862, 863, 864, 865, 866, 867, 868, 869, 870, 871, 872],
      "AcquisitionTime": ["100319.680000", "100320.140000", "100320.600000", "100321.060000", "100321.520000", "100321.980000", "100322.440000", "100322.900000", "100323.360000", "100323.820000", "100324.280000", "100324.740000", "100325.200000", "100325.660000", "100326.120000", "100326.580000", "100327.040000", "100327.500000", "100327.960000", "100328.420000", "100328.880000", "100329.340000", "100329.800000", "100330.260000", "100330.720000", "100331.180000", "100331.640000", "100332.100000", "100332.560000", "100333.020000", "100333.480000", "100333.940000", "100334.400000", "100334.860000", "100335.320000", "100335.780000", "100336.240000", "100336.700000", "100337.160000", "100337.620000", "100338.080000", "100338.540000", "100339.000000", "100339.460000", "100339.920000", "100340.380000", "100340.840000", "100341.300000", "100341.760000", "100342.220000", "100342.680000", "100343.140000", "100343.600000", "100344.060000", "100344.520000", "100344.980000", "100345.440000", "100345.900000", "100346.360000", "100346.820000", "100347.280000", "100347.740000", "100348.200000", "100348.660000", "100349.120000", "100349.580000", "100350.040000", "100350.500000", "100350.960000", "100351.420000", "100351.880000", "100352.340000", "100352.800000", "100353.260000", "100353.720000", "100354.180000", "100354.640000", "100355.100000", "100355.560000", "100356.020000", "100356.480000", "100356.940000", "100357.400000", "100357.860000", "100358.320000", "100358.780000", "100359.240000", "100359.700000", "100400.160000", "100400.620000", "100401.080000", "100401.540000", "100402.000000", "100402.460000", "100402.920000", "100403.380000", "100403.840000", "100404.300000", "100404.760000", "100405.220000", "100405.680000", "100406.140000", "100406.600000", "100407.060000", "100407.520000", "100407.980000", "100408.440000", "100408.900000", "100409.360000", "100409.820000", "100410.280000", "100410.740000", "100411.200000", "100411.660000", "100412.120000", "100412.580000", "100413.040000", "100413.500000", "100413.960000", "100414.420000", "100414.880000", "100415.340000", "100415.800000", "100416.260000", "100416.720000", "100417.180000", "100417.640000", "100418.100000", "100418.560000", "100419.020000", "100419.480000", "100419.940000", "100420.400000", "100420.860000", "100421.320000", "100421.780000", "100422.240000", "100422.700000", "100423.160000", "100423.620000", "100424.080000", "100424.540000", "100425.000000", "100425.460000", "100425.920000", "100426.380000", "100426.840000", "100427.300000", "100427.760000", "100428.220000", "100428.680000", "100429.140000", "100429.600000", "100430.060000", "100430.520000", "100430.980000", "100431.440000", "100431.900000", "100432.360000", "100432.820000", "100433.280000", "100433.740000", "100434.200000", "100434.660000", "100435.120000", "100435.580000", "100436.040000", "100436.500000", "100436.960000", "100437.420000", "100437.880000", "100438.340000", "100438.800000", "100439.260000", "100439.720000", "100440.180000", "100440.640000", "100441.100000", "100441.560000", "100442.020000", "100442.480000", "100442.940000", "100443.400000", "100443.860000", "100444.320000", "100444.780000", "100445.240000", "100445.700000", "100446.160000", "100446.620000", "100447.080000", "100447.540000", "100448.000000", "100448.460000", "100448.920000", "100449.380000", "100449.840000", "100450.300000", "100450.760000", "100451.220000", "100451.680000", "100452.140000", "100452.600000", "100453.060000", "100453.520000", "100453.980000", "100454.440000", "100454.900000", "100455.360000", "100455.820000", "100456.280000", "100456.740000", "100457.200000", "100457.660000", "100458.120000", "100458.580000", "100459.040000", "100459.500000", "100459.960000", "100500.420000", "100500.880000", "100501.340000", "100501.800000", "100502.260000", "100502.720000", "100503.180000", "100503.640000", "100504.100000", "100504.560000", "100505.020000", "100505.480000", "100505.940000", "100506.400000", "100506.860000", "100507.320000", "100507.780000", "100508.240000", "100508.700000", "100509.160000", "100509.620000", "100510.080000", "100510.540000", "100511.000000", "100511.460000", "100511.920000", "100512.380000", "100512.840000", "100513.300000", "100513.760000", "100514.220000", "100514.680000", "100515.140000", "100515.600000", "100516.060000", "100516.520000", "100516.980000", "100517.440000", "100517.900000", "100518.360000", "100518.820000", "100519.280000", "100519.740000", "100520.200000", "100520.660000", "100521.120000", "100521.580000", "100522.040000", "100522.500000", "100522.960000", "100523.420000", "100523.880000", "100524.340000", "100524.800000", "100525.260000", "100525.720000", "100526.180000", "100526.640000", "100527.100000", "100527.560000", "100528.020000", "100528.480000", "100528.940000", "100529.400000", "100529.860000", "100530.320000", "100530.780000", "100531.240000", "100531.700000", "100532.160000", "100532.620000", "100533.080000", "100533.540000", "100534.000000", "100534.460000", "100534.920000", "100535.380000", "100535.840000", "100536.300000", "100536.760000", "100537.220000", "100537.680000", "100538.140000", "100538.600000", "100539.060000", "100539.520000", "100539.980000", "100540.440000", "100540.900000", "100541.360000", "100541.820000", "100542.280000", "100542.740000", "100543.200000", "100543.660000", "100544.120000", "100544.580000", "100545.040000", "100545.500000", "100545.960000", "100546.420000", "100546.880000", "100547.340000", "100547.800000", "100548.260000", "100548.720000", "100549.180000", "100549.640000", "100550.100000", "100550.560000", "100551.020000", "100551.480000", "100551.940000", "100552.400000", "100552.860000", "100553.320000", "100553.780000", "100554.240000", "100554.700000", "100555.160000", "100555.620000", "100556.080000", "100556.540000", "100557.000000", "100557.460000", "100557.920000", "100558.380000", "100558.840000", "100559.300000", "100559.760000", "100600.220000", "100600.680000", "100601.140000", "100601.600000", "100602.060000", "100602.520000", "100602.980000", "100603.440000", "100603.900000", "100604.360000", "100604.820000", "100605.280000", "100605.740000", "100606.200000", "100606.660000", "100607.120000", "100607.580000", "100608.040000", "100608.500000", "100608.960000", "100609.420000", "100609.880000", "100610.340000", "100610.800000", "100611.260000", "100611.720000", "100612.180000", "100612.640000", "100613.100000", "100613.560000", "100614.020000", "100614.480000", "100614.940000", "100615.400000", "100615.860000", "100616.320000", "100616.780000", "100617.240000", "100617.700000", "100618.160000", "100618.620000", "100619.080000", "100619.540000", "100620.000000", "100620.460000", "100620.920000", "100621.380000", "100621.840000", "100622.300000", "100622.760000", "100623.220000", "100623.680000", "100624.140000", "100624.600000", "100625.060000", "100625.520000", "100625.980000", "100626.440000", "100626.900000", "100627.360000", "100627.820000", "100628.280000", "100628.740000", "100629.200000", "100629.660000", "100630.120000", "100630.580000", "100631.040000", "100631.500000", "100631.960000", "100632.420000", "100632.880000", "100633.340000", "100633.800000", "100634.260000", "100634.720000", "100635.180000", "100635.640000", "100636.100000", "100636.560000", "100637.020000", "100637.480000", "100637.940000", "100638.400000", "100638.860000", "100639.320000", "100639.780000", "100640.240000", "100640.700000", "100641.160000", "100641.620000", "100642.080000", "100642.540000", "100643.000000", "100643.460000", "100643.920000", "100644.380000", "100644.840000", "100645.300000", "100645.760000", "100646.220000", "100646.680000", "100647.140000", "100647.600000", "100648.060000", "100648.520000", "100648.980000", "100649.440000", "100649.900000", "100650.360000", "100650.820000", "100651.280000", "100651.740000", "100652.200000", "100652.660000", "100653.120000", "100653.580000", "100654.040000", "100654.500000", "100654.960000", "100655.420000", "100655.880000", "100656.340000", "100656.800000", "100657.260000", "100657.720000", "100658.180000", "100658.640000", "100659.100000", "100659.560000", "100700.020000", "100700.480000", "100700.940000", "100701.400000", "100701.860000", "100702.320000", "100702.780000", "100703.240000", "100703.700000", "100704.160000", "100704.620000", "100705.080000", "100705.540000", "100706.000000", "100706.460000", "100706.920000", "100707.380000", "100707.840000", "100708.300000", "100708.760000", "100709.220000", "100709.680000", "100710.140000", "100710.600000", "100711.060000", "100711.520000", "100711.980000", "100712.440000", "100712.900000", "100713.360000", "100713.820000", "100714.280000", "100714.740000", "100715.200000", "100715.660000", "100716.120000", "100716.580000", "100717.040000", "100717.500000", "100717.960000", "100718.420000", "100718.880000", "100719.340000", "100719.800000", "100720.260000", "100720.720000", "100721.180000", "100721.640000", "100722.100000", "100722.560000", "100723.020000", "100723.480000", "100723.940000", "100724.400000", "100724.860000", "100725.320000", "100725.780000", "100726.240000", "100726.700000", "100727.160000", "100727.620000", "100728.080000", "100728.540000", "100729.000000", "100729.460000", "100729.920000", "100730.380000", "100730.840000", "100731.300000", "100731.760000", "100732.220000", "100732.680000", "100733.140000", "100733.600000", "100734.060000", "100734.520000", "100734.980000", "100735.440000", "100735.900000", "100736.360000", "100736.820000", "100737.280000", "100737.740000", "100738.200000", "100738.660000", "100739.120000", "100739.580000", "100740.040000", "100740.500000", "100740.960000", "100741.420000", "100741.880000", "100742.340000", "100742.800000", "100743.260000", "100743.720000", "100744.180000", "100744.640000", "100745.100000", "100745.560000", "100746.020000", "100746.480000", "100746.940000", "100747.400000", "100747.860000", "100748.320000", "100748.780000", "100749.240000", "100749.700000", "100750.160000", "100750.620000", "100751.080000", "100751.540000", "100752.000000", "100752.460000", "100752.920000", "100753.380000", "100753.840000", "100754.300000", "100754.760000", "100755.220000", "100755.680000", "100756.140000", "100756.600000", "100757.060000", "100757.520000", "100757.980000", "100758.440000", "100758.900000", "100759.360000", "100759.820000", "100800.280000", "100800.740000", "100801.200000", "100801.660000", "100802.120000", "100802.580000", "100803.040000", "100803.500000", "100803.960000", "100804.420000", "100804.880000", "100805.340000", "100805.800000", "100806.260000", "100806.720000", "100807.180000", "100807.640000", "100808.100000", "100808.560000", "100809.020000", "100809.480000", "100809.940000", "100810.400000", "100810.860000", "100811.320000", "100811.780000", "100812.240000", "100812.700000", "100813.160000", "100813.620000", "100814.080000", "100814.540000", "100815.000000", "100815.460000", "100815.920000", "100816.380000", "100816.840000", "100817.300000", "100817.760000", "100818.220000", "100818.680000", "100819.140000", "100819.600000", "100820.060000", "100820.520000", "100820.980000", "100821.440000", "100821.900000", "100822.360000", "100822.820000", "100823.280000", "100823.740000", "100824.200000", "100824.660000", "100825.120000", "100825.580000", "100826.040000", "100826.500000", "100826.960000", "100827.420000", "100827.880000", "100828.340000", "100828.800000", "100829.260000", "100829.720000", "100830.180000", "100830.640000", "100831.100000", "100831.560000", "100832.020000", "100832.480000", "100832.940000", "100833.400000", "100833.860000", "100834.320000", "100834.780000", "100835.240000", "100835.700000", "100836.160000", "100836.620000", "100837.080000", "100837.540000", "100838.000000", "100838.460000", "100838.920000", "100839.380000", "100839.840000", "100840.300000", "100840.760000", "100841.220000", "100841.680000", "100842.140000", "100842.600000", "100843.060000", "100843.520000", "100843.980000", "100844.440000", "100844.900000", "100845.360000", "100845.820000", "100846.280000", "100846.740000", "100847.200000", "100847.660000", "100848.120000", "100848.580000", "100849.040000", "100849.500000", "100849.960000", "100850.420000", "100850.880000", "100851.340000", "100851.800000", "100852.260000", "100852.720000", "100853.180000", "100853.640000", "100854.100000", "100854.560000", "100855.020000", "100855.480000", "100855.940000", "100856.400000", "100856.860000", "100857.320000", "100857.780000", "100858.240000", "100858.700000", "100859.160000", "100859.620000", "100900.080000", "100900.540000", "100901.000000", "100901.460000", "100901.920000", "100902.380000", "100902.840000", "100903.300000", "100903.760000", "100904.220000", "100904.680000", "100905.140000", "100905.600000", "100906.060000", "100906.520000", "100906.980000", "100907.440000", "100907.900000", "100908.360000", "100908.820000", "100909.280000", "100909.740000", "100910.200000", "100910.660000", "100911.120000", "100911.580000", "100912.040000", "100912.500000", "100912.960000", "100913.420000", "100913.880000", "100914.340000", "100914.800000", "100915.260000", "100915.720000", "100916.180000", "100916.640000", "100917.100000", "100917.560000", "100918.020000", "100918.480000", "100918.940000", "100919.400000", "100919.860000", "100920.320000", "100920.780000", "100921.240000", "100921.700000", "100922.160000", "100922.620000", "100923.080000", "100923.540000", "100924.000000", "100924.460000", "100924.920000", "100925.380000", "100925.840000", "100926.300000", "100926.760000", "100927.220000", "100927.680000", "100928.140000", "100928.600000", "100929.060000", "100929.520000", "100929.980000", "100930.440000", "100930.900000", "100931.360000", "100931.820000", "100932.280000", "100932.740000", "100933.200000", "100933.660000", "100934.120000", "100934.580000", "100935.040000", "100935.500000", "100935.960000", "100936.420000", "100936.880000", "100937.340000", "100937.800000", "100938.260000", "100938.720000", "100939.180000", "100939.640000", "100940.100000", "100940.560000", "100941.020000", "100941.480000", "100941.940000", "100942.400000", "100942.860000", "100943.320000", "100943.780000", "100944.240000", "100944.700000", "100945.160000", "100945.620000", "100946.080000", "100946.540000", "100947.000000", "100947.460000", "100947.920000", "100948.380000", "100948.840000", "100949.300000", "100949.760000", "100950.220000", "100950.680000", "100951.140000", "100951.600000", "100952.060000", "100952.520000", "100952.980000", "100953.440000", "100953.900000", "100954.360000", "100954.820000", "100955.280000", "100955.740000", "100956.200000", "100956.660000", "100957.120000", "100957.580000", "100958.040000", "100958.500000", "100958.960000", "100959.420000", "100959.880000", "101000.340000"],
