{
  "AcquisitionMatrixPE": 82,
  "AcquisitionNumber": 1,
  "AcquisitionTime": "09:28:13.752500",
  "BandwidthPerPixelPhaseEncode": 24.888,
  "BaseResolution": 82,
  "BodyPartExamined": "BRAIN",
  "ConsistencyInfo": "N4_VE11E_LATEST_20181129",
  "ConversionSoftware": "dcm2niix",
  "ConversionSoftwareVersion": "v1.0.20201102",
  "DerivedVendorReportedEchoSpacing": 0.00049,
  "DeviceSerialNumber": "66112",
  "DwellTime": 2e-06,
  "EchoTime": 0.0272,
  "EchoTrainLength": 82,
  "EffectiveEchoSpacing": 0.00049,
  "FlipAngle": 44,
  "ImageComments": "Unaliased MB8/PE3",
  "ImageOrientationPatientDICOM": [0.998781, 0.0266646, 0.0415368, -0.0209215, 0.990891, -0.133033],
  "ImageType": [
    "ORIGINAL",
    "PRIMARY",
    "M",
    "MB",
    "ND",
    "NORM",
    "MOSAIC"
],
  "ImagingFrequency": 123.259,
  "InPlanePhaseEncodingDirectionDICOM": "COL",
  "InstitutionAddress": "Maynard 3,Hanover,NH,US,03755",
  "InstitutionName": "Dartmouth College - PBS",
  "InstitutionalDepartmentName": "Department",
  "MRAcquisitionType": "2D",
  "MagneticFieldStrength": 3,
  "Manufacturer": "Siemens",
  "ManufacturersModelName": "Prisma",
  "Modality": "MR",
  "MultibandAccelerationFactor": 8,
  "PartialFourier": 1,
  "PatientPosition": "HFS",
  "PercentPhaseFOV": 100,
  "PercentSampling": 100,
  "PhaseEncodingDirection": "j-",
  "PhaseEncodingSteps": 82,
  "PhaseResolution": 1,
  "PixelBandwidth": 3050,
  "ProcedureStepDescription": "Wager_Wager^1076_spacetop",
  "ProtocolName": "func_run-01_task-social_acq-ap-mb8",
  "PulseSequenceDetails": "%CustomerSeq%\\cmrr_mbep2d_bold",
  "ReceiveCoilActiveElements": "HEA;HEP",
  "ReceiveCoilName": "Head_32",
  "ReconMatrixPE": 82,
  "RepetitionTime": 0.46,
  "SAR": 0.0804958,
  "ScanOptions": "FS",
  "ScanningSequence": "EP",
  "SequenceName": "epfid2d1_82",
  "SequenceVariant": "SK\\SS",
  "SeriesDescription": "func_run-01_task-social_acq-ap-mb8",
  "SeriesNumber": 12,
  "ShimSetting": [4222, -7754, -7287, 400, -125, -192, 45, 91],
  "SliceThickness": 2.7,
  "SliceTiming": [0, 0.2525, 0.065, 0.315, 0.1275, 0.3775, 0.19, 0, 0.2525, 0.065, 0.315, 0.1275, 0.3775, 0.19, 0, 0.2525, 0.065, 0.315, 0.1275, 0.3775, 0.19, 0, 0.2525, 0.065, 0.315, 0.1275, 0.3775, 0.19, 0, 0.2525, 0.065, 0.315, 0.1275, 0.3775, 0.19, 0, 0.2525, 0.065, 0.315, 0.1275, 0.3775, 0.19, 0, 0.2525, 0.065, 0.315, 0.1275, 0.3775, 0.19, 0, 0.2525, 0.065, 0.315, 0.1275, 0.3775, 0.19],
  "SoftwareVersions": "syngo MR E11",
  "SpacingBetweenSlices": 2.7,
  "StationName": "AWP66112",
  "TaskName": "social",
  "TotalReadoutTime": 0.03969,
  "TxRefAmp": 234.918,
  "WipMemBlock": "85819d6a-9c57-46f2-89dc-1158a7070078||Sequence: R016 ve11e/master r/434b28f1; Aug  7 2019 18:53:46 by eja",
  "dcmmeta_affine": [
    [-2.679656744003296, -0.0561307817697525, 0.12070538103580475, 114.38377380371094],
    [-0.07153919339179993, 2.658487558364868, -0.3564036786556244, -85.53070831298828],
    [0.11144020408391953, 0.35691654682159424, 2.6736505031585693, -101.0906982421875],
    [0.0, 0.0, 0.0, 1.0]
],
  "dcmmeta_reorient_transform": [
    [0.0, -1.0, 0.0, 81.0],
    [1.0, 0.0, 0.0, 0.0],
    [0.0, 0.0, 1.0, 0.0],
    [0.0, 0.0, 0.0, 1.0]
],
  "dcmmeta_shape": [82, 82, 56, 872],
  "dcmmeta_slice_dim": 2,
  "dcmmeta_version": 0.6,
  "global": {
    "const": {
      "AccessionNumber": "A004511",
      "AcquisitionMatrix": [82, 0, 0, 82],
      "AngioFlag": "N",
      "BitsAllocated": 16,
      "BitsStored": 16,
      "BodyPartExamined": "BRAIN",
      "Columns": 656,
      "EchoNumbers": 1,
      "EchoTime": 27.2,
      "EchoTrainLength": 82,
      "FlipAngle": 44.0,
      "HighBit": 15,
      "ImageOrientationPatient": [0.99878110348322, 0.02666460908149, 0.04153680232495, -0.0209214721429, 0.99089083138233, -0.1330325234136],
      "ImagePositionPatient": [-862.78911725054, -913.32450323223, -1.7287510100839],
      "ImageType": [
        "ORIGINAL",
        "PRIMARY",
        "M",
        "MB",
        "ND",
        "NORM",
        "MOSAIC"
],
      "ImagedNucleus": "1H",
      "ImagingFrequency": 123.259103,
      "InPlanePhaseEncodingDirection": "COL",
      "MRAcquisitionType": "2D",
      "MagneticFieldStrength": 3.0,
      "Manufacturer": "SIEMENS",
      "ManufacturerModelName": "Prisma",
      "Modality": "MR",
      "NumberOfAverages": 1.0,
      "NumberOfPhaseEncodingSteps": 82,
      "PercentPhaseFieldOfView": 100.0,
      "PercentSampling": 100.0,
      "PerformedProcedureStepStartTime": "085829.463000",
      "PhotometricInterpretation": "MONOCHROME2",
      "PixelBandwidth": 3050.0,
      "PixelRepresentation": 0,
      "PixelSpacing": [2.6829268932343, 2.6829268932343],
      "ProtocolName": "func_run-01_task-social_acq-ap-mb8",
      "RepetitionTime": 460.0,
      "Rows": 656,
      "SAR": 0.08049577909023,
      "SamplesPerPixel": 1,
      "ScanOptions": "FS",
      "ScanningSequence": "EP",
      "SequenceName": "epfid2d1_82",
      "SequenceVariant": [
        "SK",
        "SS"
],
      "SeriesDescription": "func_run-01_task-social_acq-ap-mb8",
      "SeriesNumber": 12,
      "SeriesTime": "092826.077000",
      "SliceLocation": -83.700367336039,
      "SliceThickness": 2.7000000476837,
      "SmallestImagePixelValue": 0,
      "SoftwareVersions": "syngo MR E11",
      "SpacingBetweenSlices": 2.6999999988782,
      "SpecificCharacterSet": "ISO_IR 100",
      "StudyID": "1",
      "StudyTime": "085829.306000",
      "TransmitCoilName": "Body",
      "VariableFlipAngleFlag": "N",
      "WindowCenterWidthExplanation": "Algo1"
    },
    "slices": {}
  },
  "time": {
    "samples": {
      "AcquisitionNumber": [1, 2, 3, 4, 5, 6, 7, 8, 9, 10, 11, 12, 13, 14, 15, 16, 17, 18, 19, 20, 21, 22, 23, 24, 25, 26, 27, 28, 29, 30, 31, 32, 33, 34, 35, 36, 37, 38, 39, 40, 41, 42, 43, 44, 45, 46, 47, 48, 49, 50, 51, 52, 53, 54, 55, 56, 57, 58, 59, 60, 61, 62, 63, 64, 65, 66, 67, 68, 69, 70, 71, 72, 73, 74, 75, 76, 77, 78, 79, 80, 81, 82, 83, 84, 85, 86, 87, 88, 89, 90, 91, 92, 93, 94, 95, 96, 97, 98, 99, 100, 101, 102, 103, 104, 105, 106, 107, 108, 109, 110, 111, 112, 113, 114, 115, 116, 117, 118, 119, 120, 121, 122, 123, 124, 125, 126, 127, 128, 129, 130, 131, 132, 133, 134, 135, 136, 137, 138, 139, 140, 141, 142, 143, 144, 145, 146, 147, 148, 149, 150, 151, 152, 153, 154, 155, 156, 157, 158, 159, 160, 161, 162, 163, 164, 165, 166, 167, 168, 169, 170, 171, 172, 173, 174, 175, 176, 177, 178, 179, 180, 181, 182, 183, 184, 185, 186, 187, 188, 189, 190, 191, 192, 193, 194, 195, 196, 197, 198, 199, 200, 201, 202, 203, 204, 205, 206, 207, 208, 209, 210, 211, 212, 213, 214, 215, 216, 217, 218, 219, 220, 221, 222, 223, 224, 225, 226, 227, 228, 229, 230, 231, 232, 233, 234, 235, 236, 237, 238, 239, 240, 241, 242, 243, 244, 245, 246, 247, 248, 249, 250, 251, 252, 253, 254, 255, 256, 257, 258, 259, 260, 261, 262, 263, 264, 265, 266, 267, 268, 269, 270, 271, 272, 273, 274, 275, 276, 277, 278, 279, 280, 281, 282, 283, 284, 285, 286, 287, 288, 289, 290, 291, 292, 293, 294, 295, 296, 297, 298, 299, 300, 301, 302, 303, 304, 305, 306, 307, 308, 309, 310, 311, 312, 313, 314, 315, 316, 317, 318, 319, 320, 321, 322, 323, 324, 325, 326, 327, 328, 329, 330, 331, 332, 333, 334, 335, 336, 337, 338, 339, 340, 341, 342, 343, 344, 345, 346, 347, 348, 349, 350, 351, 352, 353, 354, 355, 356, 357, 358, 359, 360, 361, 362, 363, 364, 365, 366, 367, 368, 369, 370, 371, 372, 373, 374, 375, 376, 377, 378, 379, 380, 381, 382, 383, 384, 385, 386, 387, 388, 389, 390, 391, 392, 393, 394, 395, 396, 397, 398, 399, 400, 401, 402, 403, 404, 405, 406, 407, 408, 409, 410, 411, 412, 413, 414, 415, 416, 417, 418, 419, 420, 421, 422, 423, 424, 425, 426, 427, 428, 429, 430, 431, 432, 433, 434, 435, 436, 437, 438, 439, 440, 441, 442, 443, 444, 445, 446, 447, 448, 449, 450, 451, 452, 453, 454, 455, 456, 457, 458, 459, 460, 461, 462, 463, 464, 465, 466, 467, 468, 469, 470, 471, 472, 473, 474, 475, 476, 477, 478, 479, 480, 481, 482, 483, 484, 485, 486, 487, 488, 489, 490, 491, 492, 493, 494, 495, 496, 497, 498, 499, 500, 501, 502, 503, 504, 505, 506, 507, 508, 509, 510, 511, 512, 513, 514, 515, 516, 517, 518, 519, 520, 521, 522, 523, 524, 525, 526, 527, 528, 529, 530, 531, 532, 533, 534, 535, 536, 537, 538, 539, 540, 541, 542, 543, 544, 545, 546, 547, 548, 549, 550, 551, 552, 553, 554, 555, 556, 557, 558, 559, 560, 561, 562, 563, 564, 565, 566, 567, 568, 569, 570, 571, 572, 573, 574, 575, 576, 577, 578, 579, 580, 581, 582, 583, 584, 585, 586, 587, 588, 589, 590, 591, 592, 593, 594, 595, 596, 597, 598, 599, 600, 601, 602, 603, 604, 605, 606, 607, 608, 609, 610, 611, 612, 613, 614, 615, 616, 617, 618, 619, 620, 621, 622, 623, 624, 625, 626, 627, 628, 629, 630, 631, 632, 633, 634, 635, 636, 637, 638, 639, 640, 641, 642, 643, 644, 645, 646, 647, 648, 649, 650, 651, 652, 653, 654, 655, 656, 657, 658, 659, 660, 661, 662, 663, 664, 665, 666, 667, 668, 669, 670, 671, 672, 673, 674, 675, 676, 677, 678, 679, 680, 681, 682, 683, 684, 685, 686, 687, 688, 689, 690, 691, 692, 693, 694, 695, 696, 697, 698, 699, 700, 701, 702, 703, 704, 705, 706, 707, 708, 709, 710, 711, 712, 713, 714, 715, 716, 717, 718, 719, 720, 721, 722, 723, 724, 725, 726, 727, 728, 729, 730, 731, 732, 733, 734, 735, 736, 737, 738, 739, 740, 741, 742, 743, 744, 745, 746, 747, 748, 749, 750, 751, 752, 753, 754, 755, 756, 757, 758, 759, 760, 761, 762, 763, 764, 765, 766, 767, 768, 769, 770, 771, 772, 773, 774, 775, 776, 777, 778, 779, 780, 781, 782, 783, 784, 785, 786, 787, 788, 789, 790, 791, 792, 793, 794, 795, 796, 797, 798, 799, 800, 801, 802, 803, 804, 805, 806, 807, 808, 809, 810, 811, 812, 813, 814, 815, 816, 817, 818, 819, 820, 821, 822, 823, 824, 825, 826, 827, 828, 829, 830, 831, 832, 833, 834, 835, 836, 837, 838, 839, 840, 841, 842, 843, 844, 845, 846, 847, 848, 849, 850, 851, 852, 853, 854, 855, 856, 857, 858, 859, 860, 861, 862, 863, 864, 865, 866, 867, 868, 869, 870, 871, 872],
      "AcquisitionTime": ["092813.752500", "092814.212500", "092814.672500", "092815.132500", "092815.592500", "092816.052500", "092816.512500", "092816.972500", "092817.432500", "092817.892500", "092818.352500", "092818.812500", "092819.272500", "092819.732500", "092820.192500", "092820.652500", "092821.112500", "092821.572500", "092822.032500", "092822.492500", "092822.952500", "092823.412500", "092823.872500", "092824.332500", "092824.792500", "092825.252500", "092825.712500", "092826.172500", "092826.632500", "092827.092500", "092827.552500", "092828.012500", "092828.472500", "092828.932500", "092829.392500", "092829.852500", "092830.312500", "092830.772500", "092831.232500", "092831.692500", "092832.152500", "092832.612500", "092833.072500", "092833.532500", "092833.992500", "092834.452500", "092834.912500", "092835.372500", "092835.832500", "092836.292500", "092836.752500", "092837.212500", "092837.672500", "092838.132500", "092838.592500", "092839.052500", "092839.512500", "092839.972500", "092840.432500", "092840.892500", "092841.352500", "092841.812500", "092842.272500", "092842.732500", "092843.192500", "092843.652500", "092844.112500", "092844.572500", "092845.032500", "092845.492500", "092845.952500", "092846.412500", "092846.872500", "092847.332500", "092847.792500", "092848.252500", "092848.712500", "092849.172500", "092849.632500", "092850.092500", "092850.552500", "092851.012500", "092851.472500", "092851.932500", "092852.392500", "092852.852500", "092853.312500", "092853.772500", "092854.232500", "092854.692500", "092855.152500", "092855.612500", "092856.072500", "092856.532500", "092856.992500", "092857.452500", "092857.912500", "092858.372500", "092858.832500", "092859.292500", "092859.752500", "092900.212500", "092900.672500", "092901.132500", "092901.592500", "092902.052500", "092902.512500", "092902.972500", "092903.432500", "092903.892500", "092904.352500", "092904.812500", "092905.272500", "092905.732500", "092906.192500", "092906.652500", "092907.112500", "092907.572500", "092908.032500", "092908.492500", "092908.952500", "092909.412500", "092909.872500", "092910.332500", "092910.792500", "092911.252500", "092911.712500", "092912.172500", "092912.632500", "092913.092500", "092913.552500", "092914.012500", "092914.472500", "092914.932500", "092915.392500", "092915.852500", "092916.312500", "092916.772500", "092917.232500", "092917.692500", "092918.152500", "092918.612500", "092919.072500", "092919.532500", "092919.992500", "092920.452500", "092920.912500", "092921.372500", "092921.832500", "092922.292500", "092922.752500", "092923.212500", "092923.672500", "092924.132500", "092924.592500", "092925.052500", "092925.512500", "092925.972500", "092926.432500", "092926.892500", "092927.352500", "092927.812500", "092928.272500", "092928.732500", "092929.192500", "092929.652500", "092930.112500", "092930.572500", "092931.032500", "092931.492500", "092931.952500", "092932.412500", "092932.872500", "092933.332500", "092933.792500", "092934.252500", "092934.712500", "092935.172500", "092935.632500", "092936.092500", "092936.552500", "092937.012500", "092937.472500", "092937.932500", "092938.392500", "092938.852500", "092939.312500", "092939.772500", "092940.232500", "092940.692500", "092941.152500", "092941.612500", "092942.072500", "092942.532500", "092942.992500", "092943.452500", "092943.912500", "092944.372500", "092944.832500", "092945.292500", "092945.752500", "092946.212500", "092946.672500", "092947.132500", "092947.592500", "092948.052500", "092948.512500", "092948.972500", "092949.432500", "092949.892500", "092950.352500", "092950.812500", "092951.272500", "092951.732500", "092952.192500", "092952.652500", "092953.112500", "092953.572500", "092954.032500", "092954.492500", "092954.952500", "092955.412500", "092955.872500", "092956.332500", "092956.792500", "092957.252500", "092957.712500", "092958.172500", "092958.632500", "092959.092500", "092959.552500", "093000.012500", "093000.472500", "093000.932500", "093001.392500", "093001.852500", "093002.312500", "093002.772500", "093003.232500", "093003.692500", "093004.152500", "093004.612500", "093005.072500", "093005.532500", "093005.992500", "093006.452500", "093006.912500", "093007.372500", "093007.832500", "093008.292500", "093008.752500", "093009.212500", "093009.672500", "093010.132500", "093010.592500", "093011.052500", "093011.512500", "093011.972500", "093012.432500", "093012.892500", "093013.352500", "093013.812500", "093014.272500", "093014.732500", "093015.192500", "093015.652500", "093016.112500", "093016.572500", "093017.032500", "093017.492500", "093017.952500", "093018.412500", "093018.872500", "093019.332500", "093019.792500", "093020.252500", "093020.712500", "093021.172500", "093021.632500", "093022.092500", "093022.552500", "093023.012500", "093023.472500", "093023.932500", "093024.392500", "093024.852500", "093025.312500", "093025.772500", "093026.232500", "093026.692500", "093027.152500", "093027.612500", "093028.072500", "093028.532500", "093028.992500", "093029.452500", "093029.912500", "093030.372500", "093030.832500", "093031.292500", "093031.752500", "093032.212500", "093032.672500", "093033.132500", "093033.592500", "093034.052500", "093034.512500", "093034.972500", "093035.432500", "093035.892500", "093036.352500", "093036.812500", "093037.272500", "093037.732500", "093038.192500", "093038.652500", "093039.112500", "093039.572500", "093040.032500", "093040.492500", "093040.952500", "093041.412500", "093041.872500", "093042.332500", "093042.792500", "093043.252500", "093043.712500", "093044.172500", "093044.632500", "093045.092500", "093045.552500", "093046.012500", "093046.472500", "093046.932500", "093047.392500", "093047.852500", "093048.312500", "093048.772500", "093049.232500", "093049.692500", "093050.152500", "093050.612500", "093051.072500", "093051.532500", "093051.992500", "093052.452500", "093052.912500", "093053.372500", "093053.832500", "093054.292500", "093054.752500", "093055.212500", "093055.672500", "093056.132500", "093056.592500", "093057.052500", "093057.512500", "093057.972500", "093058.432500", "093058.892500", "093059.352500", "093059.812500", "093100.272500", "093100.732500", "093101.192500", "093101.652500", "093102.112500", "093102.572500", "093103.032500", "093103.492500", "093103.952500", "093104.412500", "093104.872500", "093105.332500", "093105.792500", "093106.252500", "093106.712500", "093107.172500", "093107.632500", "093108.092500", "093108.552500", "093109.012500", "093109.472500", "093109.932500", "093110.392500", "093110.852500", "093111.312500", "093111.772500", "093112.232500", "093112.692500", "093113.152500", "093113.612500", "093114.072500", "093114.532500", "093114.992500", "093115.452500", "093115.912500", "093116.372500", "093116.832500", "093117.292500", "093117.752500", "093118.212500", "093118.672500", "093119.132500", "093119.592500", "093120.052500", "093120.512500", "093120.972500", "093121.432500", "093121.892500", "093122.352500", "093122.812500", "093123.272500", "093123.732500", "093124.192500", "093124.652500", "093125.112500", "093125.572500", "093126.032500", "093126.492500", "093126.952500", "093127.412500", "093127.872500", "093128.332500", "093128.792500", "093129.252500", "093129.712500", "093130.172500", "093130.632500", "093131.092500", "093131.552500", "093132.012500", "093132.472500", "093132.932500", "093133.392500", "093133.852500", "093134.312500", "093134.772500", "093135.232500", "093135.692500", "093136.152500", "093136.612500", "093137.072500", "093137.532500", "093137.992500", "093138.452500", "093138.912500", "093139.372500", "093139.832500", "093140.292500", "093140.752500", "093141.212500", "093141.672500", "093142.132500", "093142.592500", "093143.052500", "093143.512500", "093143.972500", "093144.432500", "093144.892500", "093145.352500", "093145.812500", "093146.272500", "093146.732500", "093147.192500", "093147.652500", "093148.112500", "093148.572500", "093149.032500", "093149.492500", "093149.952500", "093150.412500", "093150.872500", "093151.332500", "093151.792500", "093152.252500", "093152.712500", "093153.172500", "093153.632500", "093154.092500", "093154.552500", "093155.012500", "093155.472500", "093155.932500", "093156.392500", "093156.852500", "093157.312500", "093157.772500", "093158.232500", "093158.692500", "093159.152500", "093159.612500", "093200.072500", "093200.532500", "093200.992500", "093201.452500", "093201.912500", "093202.372500", "093202.832500", "093203.292500", "093203.752500", "093204.212500", "093204.672500", "093205.132500", "093205.592500", "093206.052500", "093206.512500", "093206.972500", "093207.432500", "093207.892500", "093208.352500", "093208.812500", "093209.272500", "093209.732500", "093210.192500", "093210.652500", "093211.112500", "093211.572500", "093212.032500", "093212.492500", "093212.952500", "093213.412500", "093213.872500", "093214.332500", "093214.792500", "093215.252500", "093215.712500", "093216.172500", "093216.632500", "093217.092500", "093217.552500", "093218.012500", "093218.472500", "093218.932500", "093219.392500", "093219.852500", "093220.312500", "093220.772500", "093221.232500", "093221.692500", "093222.152500", "093222.612500", "093223.072500", "093223.532500", "093223.992500", "093224.452500", "093224.912500", "093225.372500", "093225.832500", "093226.292500", "093226.752500", "093227.212500", "093227.672500", "093228.132500", "093228.592500", "093229.052500", "093229.512500", "093229.972500", "093230.432500", "093230.892500", "093231.352500", "093231.812500", "093232.272500", "093232.732500", "093233.192500", "093233.652500", "093234.112500", "093234.572500", "093235.032500", "093235.492500", "093235.952500", "093236.412500", "093236.872500", "093237.332500", "093237.792500", "093238.252500", "093238.712500", "093239.172500", "093239.632500", "093240.092500", "093240.552500", "093241.012500", "093241.472500", "093241.932500", "093242.392500", "093242.852500", "093243.312500", "093243.772500", "093244.232500", "093244.692500", "093245.152500", "093245.612500", "093246.072500", "093246.532500", "093246.992500", "093247.452500", "093247.912500", "093248.372500", "093248.832500", "093249.292500", "093249.752500", "093250.212500", "093250.672500", "093251.132500", "093251.592500", "093252.052500", "093252.512500", "093252.972500", "093253.432500", "093253.892500", "093254.352500", "093254.812500", "093255.272500", "093255.732500", "093256.192500", "093256.652500", "093257.112500", "093257.572500", "093258.032500", "093258.492500", "093258.952500", "093259.412500", "093259.872500", "093300.332500", "093300.792500", "093301.252500", "093301.712500", "093302.172500", "093302.632500", "093303.092500", "093303.552500", "093304.012500", "093304.472500", "093304.932500", "093305.392500", "093305.852500", "093306.312500", "093306.772500", "093307.232500", "093307.692500", "093308.152500", "093308.612500", "093309.072500", "093309.532500", "093309.992500", "093310.452500", "093310.912500", "093311.372500", "093311.832500", "093312.292500", "093312.752500", "093313.212500", "093313.672500", "093314.132500", "093314.592500", "093315.052500", "093315.512500", "093315.972500", "093316.432500", "093316.892500", "093317.352500", "093317.812500", "093318.272500", "093318.732500", "093319.192500", "093319.652500", "093320.112500", "093320.572500", "093321.032500", "093321.492500", "093321.952500", "093322.412500", "093322.872500", "093323.332500", "093323.792500", "093324.252500", "093324.712500", "093325.172500", "093325.632500", "093326.092500", "093326.552500", "093327.012500", "093327.472500", "093327.932500", "093328.392500", "093328.852500", "093329.312500", "093329.772500", "093330.232500", "093330.692500", "093331.152500", "093331.612500", "093332.072500", "093332.532500", "093332.992500", "093333.452500", "093333.912500", "093334.372500", "093334.832500", "093335.292500", "093335.752500", "093336.212500", "093336.672500", "093337.132500", "093337.592500", "093338.052500", "093338.512500", "093338.972500", "093339.432500", "093339.892500", "093340.352500", "093340.812500", "093341.272500", "093341.732500", "093342.192500", "093342.652500", "093343.112500", "093343.572500", "093344.032500", "093344.492500", "093344.952500", "093345.412500", "093345.872500", "093346.332500", "093346.792500", "093347.252500", "093347.712500", "093348.172500", "093348.632500", "093349.092500", "093349.552500", "093350.012500", "093350.472500", "093350.932500", "093351.392500", "093351.852500", "093352.312500", "093352.772500", "093353.232500", "093353.692500", "093354.152500", "093354.612500", "093355.072500", "093355.532500", "093355.992500", "093356.452500", "093356.912500", "093357.372500", "093357.832500", "093358.292500", "093358.752500", "093359.212500", "093359.672500", "093400.132500", "093400.592500", "093401.052500", "093401.512500", "093401.972500", "093402.432500", "093402.892500", "093403.352500", "093403.812500", "093404.272500", "093404.732500", "093405.192500", "093405.652500", "093406.112500", "093406.572500", "093407.032500", "093407.492500", "093407.952500", "093408.412500", "093408.872500", "093409.332500", "093409.792500", "093410.252500", "093410.712500", "093411.172500", "093411.632500", "093412.092500", "093412.552500", "093413.012500", "093413.472500", "093413.932500", "093414.392500", "093414.852500", "093415.312500", "093415.772500", "093416.232500", "093416.692500", "093417.152500", "093417.612500", "093418.072500", "093418.532500", "093418.992500", "093419.452500", "093419.912500", "093420.372500", "093420.832500", "093421.292500", "093421.752500", "093422.212500", "093422.672500", "093423.132500", "093423.592500", "093424.052500", "093424.512500", "093424.972500", "093425.432500", "093425.892500", "093426.352500", "093426.812500", "093427.272500", "093427.732500", "093428.192500", "093428.652500", "093429.112500", "093429.572500", "093430.032500", "093430.492500", "093430.952500", "093431.412500", "093431.872500", "093432.332500", "093432.792500", "093433.252500", "093433.712500", "093434.172500", "093434.632500", "093435.092500", "093435.552500", "093436.012500", "093436.472500", "093436.932500", "093437.392500", "093437.852500", "093438.312500", "093438.772500", "093439.232500", "093439.692500", "093440.152500", "093440.612500", "093441.072500", "093441.532500", "093441.992500", "093442.452500", "093442.912500", "093443.372500", "093443.832500", "093444.292500", "093444.752500", "093445.212500", "093445.672500", "093446.132500", "093446.592500", "093447.052500", "093447.512500", "093447.972500", "093448.432500", "093448.892500", "093449.352500", "093449.812500", "093450.272500", "093450.732500", "093451.192500", "093451.652500", "093452.112500", "093452.572500", "093453.032500", "093453.492500", "093453.952500", "093454.412500"],
