{
  "AcquisitionMatrixPE": 140,
  "AcquisitionNumber": 1,
  "AcquisitionTime": "14:29:54.062500",
  "BandwidthPerPixelPhaseEncode": 10.352,
  "BaseResolution": 140,
  "BodyPartExamined": "BRAIN",
  "ConsistencyInfo": "N4_VE11E_LATEST_20181129",
  "ConversionSoftware": "dcm2niix",
  "ConversionSoftwareVersion": "v1.0.20201102",
  "DerivedVendorReportedEchoSpacing": 0.000689998,
  "DeviceSerialNumber": "66112",
  "DiffusionScheme": "Monopolar",
  "DwellTime": 2.1e-06,
  "EchoTime": 0.0884,
  "EchoTrainLength": 105,
  "EffectiveEchoSpacing": 0.000689998,
  "FlipAngle": 90,
  "ImageComments": "Unaliased MB3/PE3 SENSE1",
  "ImageOrientationPatientDICOM": [1, 0, 0, 0, 1, 0],
  "ImageType": [
    "ORIGINAL",
    "PRIMARY",
    "DIFFUSION",
    "NONE",
    "MB",
    "ND",
    "MOSAIC"
],
  "ImagingFrequency": 123.252,
  "InPlanePhaseEncodingDirectionDICOM": "COL",
  "InstitutionAddress": "Maynard 3,Hanover,NH,US,03755",
  "InstitutionName": "Dartmouth College - PBS",
  "InstitutionalDepartmentName": "Department",
  "MRAcquisitionType": "2D",
  "MagneticFieldStrength": 3,
  "Manufacturer": "Siemens",
  "ManufacturersModelName": "Prisma",
  "Modality": "MR",
  "MultibandAccelerationFactor": 3,
  "PartialFourier": 0.75,
  "PatientPosition": "HFS",
  "PercentPhaseFOV": 100,
  "PercentSampling": 100,
  "PhaseEncodingDirection": "j-",
  "PhaseEncodingSteps": 105,
  "PhaseResolution": 1,
  "PixelBandwidth": 1700,
  "ProcedureStepDescription": "Wager_Wager^1076_spacetop",
  "ProtocolName": "dwi_acq-96dir-6b0-mb",
  "PulseSequenceDetails": "%CustomerSeq%\\cmrr_mbep2d_diff",
  "ReceiveCoilActiveElements": "HEA;HEP",
  "ReceiveCoilName": "Head_32",
  "ReconMatrixPE": 140,
  "RepetitionTime": 4.11,
  "SAR": 0.218631,
  "ScanOptions": "PFP\\FS",
  "ScanningSequence": "EP",
  "SequenceName": "ep_b5#1",
  "SequenceVariant": "SK\\SS",
  "SeriesDescription": "dwi_acq-96dir-6b0-mb",
  "SeriesNumber": 8,
  "ShimSetting": [4166, -7684, -7305, 414, -86, -9, 39, 36],
  "SliceThickness": 1.7,
  "SliceTiming": [0, 2.12, 0.1525, 2.2725, 0.3025, 2.4225, 0.455, 2.575, 0.605, 2.7275, 0.7575, 2.8775, 0.91, 3.03, 1.06, 3.18, 1.2125, 3.3325, 1.3625, 3.485, 1.515, 3.635, 1.6675, 3.7875, 1.8175, 3.9375, 1.97, 0, 2.12, 0.1525, 2.2725, 0.3025, 2.4225, 0.455, 2.575, 0.605, 2.7275, 0.7575, 2.8775, 0.91, 3.03, 1.06, 3.18, 1.2125, 3.3325, 1.3625, 3.485, 1.515, 3.635, 1.6675, 3.7875, 1.8175, 3.9375, 1.97, 0, 2.12, 0.1525, 2.2725, 0.3025, 2.4225, 0.455, 2.575, 0.605, 2.7275, 0.7575, 2.8775, 0.91, 3.03, 1.06, 3.18, 1.2125, 3.3325, 1.3625, 3.485, 1.515, 3.635, 1.6675, 3.7875, 1.8175, 3.9375, 1.97],
  "SoftwareVersions": "syngo MR E11",
  "SpacingBetweenSlices": 1.7,
  "StationName": "AWP66112",
  "TotalReadoutTime": 0.0959097,
  "TxRefAmp": 230.02,
  "WipMemBlock": "300360dd-ff96-4f3e-9a4c-d5ee252126c7||Sequence: R016 ve11e/master r/434b28f1; Aug  7 2019 19:06:17 by eja",
  "dcmmeta_affine": [
    [-1.7142857313156128, 0.0, 0.0, 120.0],
    [0.0, 1.7142857313156128, 0.0, -99.72571563720703],
    [0.0, 0.0, 1.7000000476837158, -81.44000244140625],
    [0.0, 0.0, 0.0, 1.0]
],
  "dcmmeta_reorient_transform": [
    [0.0, -1.0, 0.0, 139.0],
    [1.0, 0.0, 0.0, 0.0],
    [0.0, 0.0, 1.0, 0.0],
    [0.0, 0.0, 0.0, 1.0]
],
  "dcmmeta_shape": [140, 140, 81, 103],
  "dcmmeta_slice_dim": 2,
  "dcmmeta_version": 0.6,
  "global": {
    "const": {
      "AccessionNumber": "A004004",
      "AcquisitionMatrix": [140, 0, 0, 140],
      "AngioFlag": "N",
      "BitsAllocated": 16,
      "BitsStored": 16,
      "BodyPartExamined": "BRAIN",
      "Columns": 1260,
      "EchoNumbers": 1,
      "EchoTime": 88.4,
      "EchoTrainLength": 105,
      "FlipAngle": 90.0,
      "HighBit": 15,
      "ImageOrientationPatient": [1.0, 0.0, 0.0, 0.0, 1.0, 0.0],
      "ImagePositionPatient": [-1080.0000107288, -1098.5600101948, -81.440002441406],
      "ImageType": [
        "ORIGINAL",
        "PRIMARY",
        "DIFFUSION",
        "NONE",
        "MB",
        "ND",
        "MOSAIC"
],
      "ImagedNucleus": "1H",
      "ImagingFrequency": 123.252217,
      "InPlanePhaseEncodingDirection": "COL",
      "MRAcquisitionType": "2D",
      "MagneticFieldStrength": 3.0,
      "Manufacturer": "SIEMENS",
      "ManufacturerModelName": "Prisma",
      "Modality": "MR",
      "NumberOfAverages": 1.0,
      "NumberOfPhaseEncodingSteps": 105,
      "PercentPhaseFieldOfView": 100.0,
      "PercentSampling": 100.0,
      "PerformedProcedureStepStartTime": "132337.871000",
      "PhotometricInterpretation": "MONOCHROME2",
      "PixelBandwidth": 1700.0,
      "PixelRepresentation": 0,
      "PixelSpacing": [1.7142857313156, 1.7142857313156],
      "ProtocolName": "dwi_acq-96dir-6b0-mb",
      "RepetitionTime": 4110.0,
      "Rows": 1260,
      "SAR": 0.21863088170212,
      "SamplesPerPixel": 1,
      "ScanOptions": [
        "PFP",
        "FS"
],
      "ScanningSequence": "EP",
      "SequenceVariant": [
        "SK",
        "SS"
],
      "SeriesDescription": "dwi_acq-96dir-6b0-mb",
      "SeriesNumber": 8,
      "SeriesTime": "143128.361000",
      "SliceLocation": -81.440002441406,
      "SliceThickness": 1.7000000476837,
      "SmallestImagePixelValue": 0,
      "SoftwareVersions": "syngo MR E11",
      "SpacingBetweenSlices": 1.7000000476837,
      "SpecificCharacterSet": "ISO_IR 100",
      "StudyID": "1",
      "StudyTime": "132337.800000",
      "TransmitCoilName": "Body",
      "VariableFlipAngleFlag": "N",
      "WindowCenterWidthExplanation": "Algo1"
    },
    "slices": {}
  },
  "time": {
    "samples": {
      "AcquisitionNumber": [1, 2, 3, 4, 5, 6, 7, 8, 9, 10, 11, 12, 13, 14, 15, 16, 17, 18, 19, 20, 21, 22, 23, 24, 25, 26, 27, 28, 29, 30, 31, 32, 33, 34, 35, 36, 37, 38, 39, 40, 41, 42, 43, 44, 45, 46, 47, 48, 49, 50, 51, 52, 53, 54, 55, 56, 57, 58, 59, 60, 61, 62, 63, 64, 65, 66, 67, 68, 69, 70, 71, 72, 73, 74, 75, 76, 77, 78, 79, 80, 81, 82, 83, 84, 85, 86, 87, 88, 89, 90, 91, 92, 93, 94, 95, 96, 97, 98, 99, 100, 101, 102, 103],
      "AcquisitionTime": ["142954.062500", "142958.172500", "143002.282500", "143006.392500", "143010.502500", "143014.612500", "143018.722500", "143022.832500", "143026.942500", "143031.052500", "143035.162500", "143039.272500", "143043.382500", "143047.492500", "143051.602500", "143055.712500", "143059.822500", "143103.932500", "143108.042500", "143112.152500", "143116.262500", "143120.372500", "143124.482500", "143128.592500", "143132.702500", "143136.812500", "143140.922500", "143145.032500", "143149.142500", "143153.252500", "143157.362500", "143201.472500", "143205.582500", "143209.692500", "143213.802500", "143217.912500", "143222.022500", "143226.132500", "143230.242500", "143234.352500", "143238.462500", "143242.572500", "143246.682500", "143250.792500", "143254.902500", "143259.012500", "143303.122500", "143307.232500", "143311.342500", "143315.452500", "143319.562500", "143323.672500", "143327.782500", "143331.892500", "143336.002500", "143340.112500", "143344.222500", "143348.332500", "143352.442500", "143356.552500", "143400.662500", "143404.772500", "143408.882500", "143412.992500", "143417.102500", "143421.212500", "143425.322500", "143429.432500", "143433.542500", "143437.652500", "143441.762500", "143445.872500", "143449.982500", "143454.092500", "143458.202500", "143502.312500", "143506.422500", "143510.532500", "143514.642500", "143518.752500", "143522.862500", "143526.972500", "143531.082500", "143535.192500", "143539.302500", "143543.412500", "143547.522500", "143551.632500", "143555.742500", "143559.852500", "143603.962500", "143608.072500", "143612.182500", "143616.292500", "143620.402500", "143624.512500", "143628.622500", "143632.732500", "143636.842500", "143640.952500", "143645.062500", "143649.172500", "143653.282500"],
      "ContentTime": ["143128.365000", "143128.380000", "143128.383000", "143128.386000", "143128.389000", "143128.392000", "143128.395000", "143128.399000", "143128.402000", "143128.405000", "143128.408000", "143128.411000", "143128.414000", "143128.417000", "143128.420000", "143128.423000", "143128.426000", "143128.429000", "143128.432000", "143128.435000", "143128.444000", "143128.448000", "143248.362000", "143248.365000", "143248.368000", "143248.382000", "143248.385000", "143248.388000", "143248.391000", "143248.394000", "143248.397000", "143248.400000", "143248.403000", "143248.406000", "143248.409000", "143248.412000", "143248.415000", "143248.418000", "143248.421000", "143248.424000", "143248.427000", "143248.431000", "143428.361000", "143428.364000", "143428.368000", "143428.371000", "143428.374000", "143428.377000", "143428.380000", "143428.383000", "143428.386000", "143428.389000", "143428.392000", "143428.401000", "143428.404000", "143428.407000", "143428.410000", "143428.413000", "143428.420000", "143428.423000", "143428.426000", "143428.429000", "143428.432000", "143428.435000", "143428.438000", "143428.441000", "143548.361000", "143548.364000", "143548.367000", "143548.370000", "143548.373000", "143548.376000", "143548.379000", "143548.383000", "143548.386000", "143548.389000", "143548.392000", "143548.395000", "143548.398000", "143548.401000", "143548.404000", "143548.407000", "143548.410000", "143548.413000", "143548.416000", "143548.419000", "143657.675000", "143657.678000", "143657.682000", "143657.685000", "143657.688000", "143657.691000", "143657.694000", "143657.697000", "143657.700000", "143657.703000", "143657.706000", "143657.709000", "143657.713000", "143657.716000", "143657.719000", "143657.722000", "143657.725000"],
      "InstanceCreationTime": ["143128.365000", "143128.380000", "143128.383000", "143128.386000", "143128.389000", "143128.392000", "143128.395000", "143128.399000", "143128.402000", "143128.405000", "143128.408000", "143128.411000", "143128.414000", "143128.417000", "143128.420000", "143128.423000", "143128.426000", "143128.429000", "143128.432000", "143128.435000", "143128.444000", "143128.448000", "143248.362000", "143248.365000", "143248.368000", "143248.382000", "143248.385000", "143248.388000", "143248.391000", "143248.394000", "143248.397000", "143248.400000", "143248.403000", "143248.406000", "143248.409000", "143248.412000", "143248.415000", "143248.418000", "143248.421000", "143248.424000", "143248.427000", "143248.431000", "143428.361000", "143428.364000", "143428.368000", "143428.371000", "143428.374000", "143428.377000", "143428.380000", "143428.383000", "143428.386000", "143428.389000", "143428.392000", "143428.401000", "143428.404000", "143428.407000", "143428.410000", "143428.413000", "143428.420000", "143428.423000", "143428.426000", "143428.429000", "143428.432000", "143428.435000", "143428.438000", "143428.441000", "143548.361000", "143548.364000", "143548.367000", "143548.370000", "143548.373000", "143548.376000", "143548.379000", "143548.383000", "143548.386000", "143548.389000", "143548.392000", "143548.395000", "143548.398000", "143548.401000", "143548.404000", "143548.407000", "143548.410000", "143548.413000", "143548.416000", "143548.419000", "143657.675000", "143657.678000", "143657.682000", "143657.685000", "143657.688000", "143657.691000", "143657.694000", "143657.697000", "143657.700000", "143657.703000", "143657.706000", "143657.709000", "143657.713000", "143657.716000", "143657.719000", "143657.722000", "143657.725000"],
      "InstanceNumber": [1, 2, 3, 4, 5, 6, 7, 8, 9, 10, 11, 12, 13, 14, 15, 16, 17, 18, 19, 20, 21, 22, 23, 24, 25, 26, 27, 28, 29, 30, 31, 32, 33, 34, 35, 36, 37, 38, 39, 40, 41, 42, 43, 44, 45, 46, 47, 48, 49, 50, 51, 52, 53, 54, 55, 56, 57, 58, 59, 60, 61, 62, 63, 64, 65, 66, 67, 68, 69, 70, 71, 72, 73, 74, 75, 76, 77, 78, 79, 80, 81, 82, 83, 84, 85, 86, 87, 88, 89, 90, 91, 92, 93, 94, 95, 96, 97, 98, 99, 100, 101, 102, 103],
      "LargestImagePixelValue": [65535, 65535, 37555, 40622, 39541, 38627, 38714, 39951, 65535, 26976, 26934, 25687, 26237, 27779, 25455, 25265, 27326, 26887, 27315, 24728, 26068, 27112, 27212, 26631, 65535, 14097, 13306, 14561, 14691, 13824, 14237, 14920, 14656, 13757, 16473, 15273, 15080, 13809, 13180, 14608, 65535, 9573, 9401, 9350, 9683, 9770, 8601, 8329, 9508, 9000, 10277, 9680, 11745, 12466, 10370, 10432, 11340, 9066, 10037, 9893, 8639, 9925, 8525, 9436, 9408, 10495, 9524, 8484, 8800, 9671, 10044, 7892, 10272, 65535, 10465, 9623, 9307, 9251, 10465, 10337, 9541, 9673, 8741, 10290, 8601, 12003, 10042, 9623, 10586, 11164, 11235, 8916, 9277, 8690, 9037, 11014, 8953, 8279, 9855, 9821, 10154, 9395, 65535],
      "SequenceName": [
 "ep_b5#1",
 "ep_b5#1",
 "ep_b500#2",
 "ep_b495#3",
 "ep_b500#4",
 "ep_b505#5",
 "ep_b495#6",
 "ep_b500#7",
 "ep_b5#8",
 "ep_b1000#9",
 "ep_b1005#10",
 "ep_b995#11",
 "ep_b1005#12",
 "ep_b995#13",
 "ep_b995#14",
 "ep_b1005#15",
 "ep_b1000#16",
 "ep_b1005#17",
 "ep_b995#18",
 "ep_b1000#19",
 "ep_b995#20",
 "ep_b1000#21",
 "ep_b1005#22",
 "ep_b1005#23",
 "ep_b5#24",
 "ep_b2000#25",
 "ep_b1995#26",
 "ep_b1990#27",
 "ep_b2000#28",
 "ep_b2005#29",
 "ep_b2010#30",
 "ep_b2000#31",
 "ep_b2010#32",
 "ep_b2000#33",
 "ep_b1995#34",
 "ep_b1995#35",
 "ep_b2005#36",
 "ep_b1995#37",
 "ep_b2005#38",
 "ep_b1995#39",
 "ep_b5#40",
 "ep_b3000#41",
 "ep_b3005#42",
 "ep_b3010#43",
 "ep_b3010#44",
 "ep_b3000#45",
 "ep_b3000#46",
 "ep_b2990#47",
 "ep_b3005#48",
 "ep_b3000#49",
 "ep_b2990#50",
 "ep_b2990#51",
 "ep_b2995#52",
 "ep_b2995#53",
 "ep_b3010#54",
 "ep_b3000#55",
 "ep_b2995#56",
 "ep_b2995#57",
 "ep_b2990#58",
 "ep_b2990#59",
 "ep_b3000#60",
 "ep_b2990#61",
 "ep_b2990#62",
 "ep_b2995#63",
 "ep_b3000#64",
 "ep_b3010#65",
 "ep_b3000#66",
 "ep_b3005#67",
 "ep_b3010#68",
 "ep_b3005#69",
 "ep_b3005#70",
 "ep_b3005#71",
 "ep_b2990#72",
 "ep_b5#73",
 "ep_b3010#74",
 "ep_b3005#75",
 "ep_b3005#76",
 "ep_b3000#77",
 "ep_b2990#78",
 "ep_b3005#79",
 "ep_b2995#80",
 "ep_b3010#81",
 "ep_b3005#82",
 "ep_b3005#83",
 "ep_b3000#84",
 "ep_b3000#85",
 "ep_b3010#86",
 "ep_b3010#87",
 "ep_b2990#88",
 "ep_b3010#89",
 "ep_b2995#90",
 "ep_b2995#91",
 "ep_b2990#92",
 "ep_b2995#93",
 "ep_b3005#94",
 "ep_b3005#95",
 "ep_b2995#96",
 "ep_b3000#97",
 "ep_b2990#98",
 "ep_b2995#99",
 "ep_b2995#100",
 "ep_b2995#101",
 "ep_b5#102"
],
      "WindowCenter": [9510.0, 9514.0, 6369.0, 6413.0, 6397.0, 6340.0, 6418.0, 6393.0, 9510.0, 4810.0, 4765.0, 4811.0, 4746.0, 4792.0, 4804.0, 4776.0, 4816.0, 4787.0, 4823.0, 4788.0, 4833.0, 4797.0, 4812.0, 4827.0, 9524.0, 3103.0, 3091.0, 3079.0, 3158.0, 3088.0, 3052.0, 3107.0, 3052.0, 3111.0, 3159.0, 3144.0, 3061.0, 3086.0, 3087.0, 3073.0, 9509.0, 2228.0, 2156.0, 2216.0, 2194.0, 2223.0, 2187.0, 2175.0, 2155.0, 2176.0, 2194.0, 2198.0, 2271.0, 2302.0, 2252.0, 2205.0, 2278.0, 2172.0, 2236.0, 2223.0, 2172.0, 2228.0, 2215.0, 2224.0, 2227.0, 2260.0, 2210.0, 2187.0, 2200.0, 2227.0, 2227.0, 2195.0, 2232.0, 9550.0, 2215.0, 2194.0, 2144.0, 2195.0, 2195.0, 2206.0, 2171.0, 2184.0, 2189.0, 2209.0, 2193.0, 2271.0, 2170.0, 2170.0, 2249.0, 2228.0, 2275.0, 2159.0, 2187.0, 2204.0, 2176.0, 2277.0, 2229.0, 2172.0, 2234.0, 2191.0, 2253.0, 2229.0, 9533.0],
      "WindowWidth": [21440.0, 21462.0, 13719.0, 13805.0, 13744.0, 13663.0, 13823.0, 13772.0, 21467.0, 10543.0, 10452.0, 10554.0, 10448.0, 10534.0, 10551.0, 10468.0, 10560.0, 10529.0, 10576.0, 10502.0, 10587.0, 10530.0, 10551.0, 10559.0, 21491.0, 7186.0, 7167.0, 7149.0, 7273.0, 7150.0, 7077.0, 7175.0, 7101.0, 7191.0, 7265.0, 7264.0, 7106.0, 7146.0, 7136.0, 7130.0, 21444.0, 5448.0, 5301.0, 5423.0, 5348.0, 5426.0, 5364.0, 5335.0, 5297.0, 5349.0, 5360.0, 5370.0, 5504.0, 5574.0, 5480.0, 5379.0, 5535.0, 5330.0, 5435.0, 5414.0, 5330.0, 5440.0, 5413.0, 5431.0, 5441.0, 5476.0, 5400.0, 5361.0, 5383.0, 5444.0, 5442.0, 5392.0, 5416.0, 21534.0, 5376.0, 5363.0, 5279.0, 5365.0, 5369.0, 5384.0, 5329.0, 5345.0, 5367.0, 5398.0, 5393.0, 5507.0, 5324.0, 5323.0, 5471.0, 5405.0, 5519.0, 5309.0, 5364.0, 5408.0, 5352.0, 5531.0, 5452.0, 5332.0, 5431.0, 5353.0, 5489.0, 5448.0, 21483.0]
    },
    "slices": {}
  }
}