{
  "AcquisitionMatrixPE": 140,
  "AcquisitionNumber": 1,
  "AcquisitionTime": "09:00:47.505000",
  "BandwidthPerPixelPhaseEncode": 10.352,
  "BaseResolution": 140,
  "BodyPartExamined": "BRAIN",
  "ConsistencyInfo": "N4_VE11C_LATEST_20160120",
  "ConversionSoftware": "dcm2niix",
  "ConversionSoftwareVersion": "v1.0.20201102",
  "DerivedVendorReportedEchoSpacing": 0.000689998,
  "DeviceSerialNumber": "66112",
  "DiffusionScheme": "Monopolar",
  "DwellTime": 2.1e-06,
  "EchoTime": 0.088,
  "EchoTrainLength": 105,
  "EffectiveEchoSpacing": 0.000689998,
  "FlipAngle": 90,
  "ImageComments": "Unaliased MB3/PE3",
  "ImageOrientationPatientDICOM": [0.998053, 0.0623454, -0.00176849, -0.0596449, 0.962344, 0.26521],
  "ImageType": [
    "ORIGINAL",
    "PRIMARY",
    "DIFFUSION",
    "NONE",
    "MB",
    "ND"
],
  "ImagingFrequency": 123.252,
  "InPlanePhaseEncodingDirectionDICOM": "COL",
  "InstitutionAddress": "Maynard 3,Hanover,NH,US,03755",
  "InstitutionName": "Dartmouth College - PBS",
  "InstitutionalDepartmentName": "Department",
  "IntendedFor": [
    "ses-01/dwi/sub-0036_ses-01_acq-96dirX6b0Xmb_dwi.nii.gz"
],
  "MRAcquisitionType": "2D",
  "MagneticFieldStrength": 3,
  "Manufacturer": "Siemens",
  "ManufacturersModelName": "Prisma",
  "Modality": "MR",
  "MultibandAccelerationFactor": 3,
  "PartialFourier": 0.75,
  "PatientPosition": "HFS",
  "PercentPhaseFOV": 100,
  "PercentSampling": 100,
  "PhaseEncodingDirection": "j",
  "PhaseEncodingSteps": 105,
  "PhaseResolution": 1,
  "PixelBandwidth": 1700,
  "ProcedureStepDescription": "Wager_Wager^1076_spacetop",
  "ProtocolName": "dwi_acq-discorr-PA",
  "PulseSequenceDetails": "%CustomerSeq%\\cmrr_mbep2d_diff",
  "ReceiveCoilActiveElements": "HEA;HEP",
  "ReceiveCoilName": "Head_32",
  "ReconMatrixPE": 140,
  "RepetitionTime": 4.1,
  "SAR": 0.230757,
  "ScanOptions": "PFP\\FS",
  "ScanningSequence": "EP",
  "SequenceName": "ep_b0",
  "SequenceVariant": "SK\\SS",
  "SeriesDescription": "dwi_acq-discorr-PA",
  "SeriesNumber": 6,
  "ShimSetting": [4154, -7709, -7219, 427, -54, 7, 100, 61],
  "SliceThickness": 1.7,
  "SliceTiming": [0, 2.10938, 0.14844, 2.26562, 0.29688, 2.41406, 0.45312, 2.5625, 0.60156, 2.71875, 0.75, 2.86719, 0.89844, 3.02344, 1.05469, 3.17188, 1.20312, 3.32031, 1.35938, 3.46875, 1.50781, 3.625, 1.65625, 3.77344, 1.8125, 3.92188, 1.96094, 0, 2.10938, 0.14844, 2.26562, 0.29688, 2.41406, 0.45312, 2.5625, 0.60156, 2.71875, 0.75, 2.86719, 0.89844, 3.02344, 1.05469, 3.17188, 1.20312, 3.32031, 1.35938, 3.46875, 1.50781, 3.625, 1.65625, 3.77344, 1.8125, 3.92188, 1.96094, 0, 2.10938, 0.14844, 2.26562, 0.29688, 2.41406, 0.45312, 2.5625, 0.60156, 2.71875, 0.75, 2.86719, 0.89844, 3.02344, 1.05469, 3.17188, 1.20312, 3.32031, 1.35938, 3.46875, 1.50781, 3.625, 1.65625, 3.77344, 1.8125, 3.92188, 1.96094],
  "SoftwareVersions": "syngo MR E11",
  "SpacingBetweenSlices": 1.7,
  "StationName": "AWP66112",
  "TotalReadoutTime": 0.0959097,
  "TxRefAmp": 323.927,
  "WipMemBlock": "18dbbc8d-3887-425e-9cd5-d894f9d4eed2||Sequence: R016 ve11c/master r/e634e98; Dec 19 2017 11:11:25 by eja",
  "dcmmeta_affine": [
    [-1.71094810962677, -0.10224834829568863, -0.031002283096313477, 132.41859436035156],
    [-0.106877900660038, 1.6497327089309692, 0.4498023986816406, -89.0110092163086],
    [-0.003031705040484667, -0.45464590191841125, 1.6391220092773438, 10.320304870605469],
    [0.0, 0.0, 0.0, 1.0]
],
  "dcmmeta_reorient_transform": [
    [0.0, -1.0, 0.0, 139.0],
    [1.0, 0.0, 0.0, 0.0],
    [0.0, 0.0, -1.0, 80.0],
    [0.0, 0.0, 0.0, 1.0]
],
  "dcmmeta_shape": [140, 140, 81],
  "dcmmeta_slice_dim": 2,
  "dcmmeta_version": 0.6,
  "global": {
    "const": {
      "AccessionNumber": "A003800",
      "AcquisitionMatrix": [140, 0, 0, 140],
      "AcquisitionNumber": 1,
      "AngioFlag": "N",
      "BitsAllocated": 16,
      "BitsStored": 16,
      "BodyPartExamined": "BRAIN",
      "Columns": 140,
      "EchoNumbers": 1,
      "EchoTime": 88.0,
      "EchoTrainLength": 105,
      "FlipAngle": 90.0,
      "HighBit": 15,
      "ImageOrientationPatient": [0.99805306383637, 0.06234544244602, -0.0017684945729, -0.0596448683352, 0.96234406014008, 0.26521010462346],
      "ImageType": [
        "ORIGINAL",
        "PRIMARY",
        "DIFFUSION",
        "NONE",
        "MB",
        "ND"
],
      "ImagedNucleus": "1H",
      "ImagingFrequency": 123.252119,
      "InPlanePhaseEncodingDirection": "COL",
      "MRAcquisitionType": "2D",
      "MagneticFieldStrength": 3.0,
      "Manufacturer": "SIEMENS",
      "ManufacturerModelName": "Prisma",
      "Modality": "MR",
      "NumberOfAverages": 1.0,
      "NumberOfPhaseEncodingSteps": 105,
      "PercentPhaseFieldOfView": 100.0,
      "PercentSampling": 100.0,
      "PerformedProcedureStepStartTime": "084606.338000",
      "PhotometricInterpretation": "MONOCHROME2",
      "PixelBandwidth": 1700.0,
      "PixelRepresentation": 0,
      "PixelSpacing": [1.7142857313156, 1.7142857313156],
      "ProtocolName": "dwi_acq-discorr-PA",
      "RepetitionTime": 4100.0,
      "Rows": 140,
      "SAR": 0.23075676396984,
      "SamplesPerPixel": 1,
      "ScanOptions": [
        "PFP",
        "FS"
],
      "ScanningSequence": "EP",
      "SequenceName": "ep_b0",
      "SequenceVariant": [
        "SK",
        "SS"
],
      "SeriesDescription": "dwi_acq-discorr-PA",
      "SeriesNumber": 6,
      "SeriesTime": "090053.518000",
      "SliceThickness": 1.7000000476837,
      "SmallestImagePixelValue": 0,
      "SoftwareVersions": "syngo MR E11",
      "SpacingBetweenSlices": 1.7,
      "SpecificCharacterSet": "ISO_IR 100",
      "StudyID": "1",
      "StudyTime": "084605.843000",
      "TransmitCoilName": "Body",
      "VariableFlipAngleFlag": "N",
      "WindowCenterWidthExplanation": "Algo1",
      "dBdt": 0.0},
    "slices": {
      "AcquisitionTime": ["090047.505000", "090049.620000", "090047.655000", "090049.770000", "090047.807500", "090049.922500", "090047.957500", "090050.072500", "090048.107500", "090050.225000", "090048.260000", "090050.375000", "090048.410000", "090050.527500", "090048.562500", "090050.677500", "090048.712500", "090050.827500", "090048.865000", "090050.980000", "090049.015000", "090051.130000", "090049.167500", "090051.282500", "090049.317500", "090051.432500", "090049.467500", "090047.505000", "090049.620000", "090047.655000", "090049.770000", "090047.807500", "090049.922500", "090047.957500", "090050.072500", "090048.107500", "090050.225000", "090048.260000", "090050.375000", "090048.410000", "090050.527500", "090048.562500", "090050.677500", "090048.712500", "090050.827500", "090048.865000", "090050.980000", "090049.015000", "090051.130000", "090049.167500", "090051.282500", "090049.317500", "090051.432500", "090049.467500", "090047.505000", "090049.620000", "090047.655000", "090049.770000", "090047.807500", "090049.922500", "090047.957500", "090050.072500", "090048.107500", "090050.225000", "090048.260000", "090050.375000", "090048.410000", "090050.527500", "090048.562500", "090050.677500", "090048.712500", "090050.827500", "090048.865000", "090050.980000", "090049.015000", "090051.130000", "090049.167500", "090051.282500", "090049.317500", "090051.432500", "090049.467500"],
      "ContentTime": ["090053.522000", "090053.625000", "090053.530000", "090053.632000", "090053.538000", "090053.639000", "090053.546000", "090053.646000", "090053.554000", "090053.652000", "090053.561000", "090053.660000", "090053.569000", "090053.668000", "090053.575000", "090053.678000", "090053.582000", "090053.686000", "090053.588000", "090053.692000", "090053.596000", "090053.699000", "090053.604000", "090053.705000", "090053.612000", "090053.722000", "090053.618000", "090053.525000", "090053.627000", "090053.532000", "090053.634000", "090053.540000", "090053.641000", "090053.548000", "090053.648000", "090053.556000", "090053.655000", "090053.563000", "090053.663000", "090053.571000", "090053.674000", "090053.578000", "090053.681000", "090053.584000", "090053.688000", "090053.591000", "090053.694000", "090053.599000", "090053.701000", "090053.607000", "090053.707000", "090053.614000", "090053.724000", "090053.620000", "090053.528000", "090053.629000", "090053.535000", "090053.637000", "090053.543000", "090053.644000", "090053.551000", "090053.650000", "090053.559000", "090053.658000", "090053.567000", "090053.665000", "090053.573000", "090053.676000", "090053.580000", "090053.683000", "090053.586000", "090053.690000", "090053.594000", "090053.696000", "090053.601000", "090053.703000", "090053.610000", "090053.720000", "090053.616000", "090053.726000", "090053.623000"],
      "CsaImage.ICE_Dims": [
        "X_1_1_1_1_1_1_1_1_1_1_1_23",
        "X_1_1_1_1_1_1_42_1_1_2_1_23",
        "X_1_1_1_1_1_1_2_1_1_3_1_23",
        "X_1_1_1_1_1_1_43_1_1_4_1_23",
        "X_1_1_1_1_1_1_3_1_1_5_1_23",
        "X_1_1_1_1_1_1_44_1_1_6_1_23",
        "X_1_1_1_1_1_1_4_1_1_7_1_23",
        "X_1_1_1_1_1_1_45_1_1_8_1_23",
        "X_1_1_1_1_1_1_5_1_1_9_1_23",
        "X_1_1_1_1_1_1_46_1_1_10_1_23",
        "X_1_1_1_1_1_1_6_1_1_11_1_23",
        "X_1_1_1_1_1_1_47_1_1_12_1_23",
        "X_1_1_1_1_1_1_7_1_1_13_1_23",
        "X_1_1_1_1_1_1_48_1_1_14_1_23",
        "X_1_1_1_1_1_1_8_1_1_15_1_23",
        "X_1_1_1_1_1_1_49_1_1_16_1_23",
        "X_1_1_1_1_1_1_9_1_1_17_1_23",
        "X_1_1_1_1_1_1_50_1_1_18_1_23",
        "X_1_1_1_1_1_1_10_1_1_19_1_23",
        "X_1_1_1_1_1_1_51_1_1_20_1_23",
        "X_1_1_1_1_1_1_11_1_1_21_1_23",
        "X_1_1_1_1_1_1_52_1_1_22_1_23",
        "X_1_1_1_1_1_1_12_1_1_23_1_23",
        "X_1_1_1_1_1_1_53_1_1_24_1_23",
        "X_1_1_1_1_1_1_13_1_1_25_1_23",
        "X_1_1_1_1_1_1_54_1_1_26_1_23",
        "X_1_1_1_1_1_1_14_1_1_27_1_23",
        "X_1_1_1_1_1_1_55_1_1_28_1_23",
        "X_1_1_1_1_1_1_15_1_1_29_1_23",
        "X_1_1_1_1_1_1_56_1_1_30_1_23",
        "X_1_1_1_1_1_1_16_1_1_31_1_23",
        "X_1_1_1_1_1_1_57_1_1_32_1_23",
        "X_1_1_1_1_1_1_17_1_1_33_1_23",
        "X_1_1_1_1_1_1_58_1_1_34_1_23",
        "X_1_1_1_1_1_1_18_1_1_35_1_23",
        "X_1_1_1_1_1_1_59_1_1_36_1_23",
        "X_1_1_1_1_1_1_19_1_1_37_1_23",
        "X_1_1_1_1_1_1_60_1_1_38_1_23",
        "X_1_1_1_1_1_1_20_1_1_39_1_23",
        "X_1_1_1_1_1_1_61_1_1_40_1_23",
        "X_1_1_1_1_1_1_21_1_1_41_1_23",
        "X_1_1_1_1_1_1_62_1_1_42_1_23",
        "X_1_1_1_1_1_1_22_1_1_43_1_23",
        "X_1_1_1_1_1_1_63_1_1_44_1_23",
        "X_1_1_1_1_1_1_23_1_1_45_1_23",
        "X_1_1_1_1_1_1_64_1_1_46_1_23",
        "X_1_1_1_1_1_1_24_1_1_47_1_23",
        "X_1_1_1_1_1_1_65_1_1_48_1_23",
        "X_1_1_1_1_1_1_25_1_1_49_1_23",
        "X_1_1_1_1_1_1_66_1_1_50_1_23",
        "X_1_1_1_1_1_1_26_1_1_51_1_23",
        "X_1_1_1_1_1_1_67_1_1_52_1_23",
        "X_1_1_1_1_1_1_27_1_1_53_1_23",
        "X_1_1_1_1_1_1_68_1_1_54_1_23",
        "X_1_1_1_1_1_1_28_1_1_55_1_23",
        "X_1_1_1_1_1_1_69_1_1_56_1_23",
        "X_1_1_1_1_1_1_29_1_1_57_1_23",
        "X_1_1_1_1_1_1_70_1_1_58_1_23",
        "X_1_1_1_1_1_1_30_1_1_59_1_23",
        "X_1_1_1_1_1_1_71_1_1_60_1_23",
        "X_1_1_1_1_1_1_31_1_1_61_1_23",
        "X_1_1_1_1_1_1_72_1_1_62_1_23",
        "X_1_1_1_1_1_1_32_1_1_63_1_23",
        "X_1_1_1_1_1_1_73_1_1_64_1_23",
        "X_1_1_1_1_1_1_33_1_1_65_1_23",
        "X_1_1_1_1_1_1_74_1_1_66_1_23",
        "X_1_1_1_1_1_1_34_1_1_67_1_23",
        "X_1_1_1_1_1_1_75_1_1_68_1_23",
        "X_1_1_1_1_1_1_35_1_1_69_1_23",
        "X_1_1_1_1_1_1_76_1_1_70_1_23",
        "X_1_1_1_1_1_1_36_1_1_71_1_23",
        "X_1_1_1_1_1_1_77_1_1_72_1_23",
        "X_1_1_1_1_1_1_37_1_1_73_1_23",
        "X_1_1_1_1_1_1_78_1_1_74_1_23",
        "X_1_1_1_1_1_1_38_1_1_75_1_23",
        "X_1_1_1_1_1_1_79_1_1_76_1_23",
        "X_1_1_1_1_1_1_39_1_1_77_1_23",
        "X_1_1_1_1_1_1_80_1_1_78_1_23",
        "X_1_1_1_1_1_1_40_1_1_79_1_23",
        "X_1_1_1_1_1_1_81_1_1_80_1_23",
        "X_1_1_1_1_1_1_41_1_1_81_1_23"
],
      "CsaImage.ProtocolSliceNumber": [0, 1, 2, 3, 4, 5, 6, 7, 8, 9, 10, 11, 12, 13, 14, 15, 16, 17, 18, 19, 20, 21, 22, 23, 24, 25, 26, 27, 28, 29, 30, 31, 32, 33, 34, 35, 36, 37, 38, 39, 40, 41, 42, 43, 44, 45, 46, 47, 48, 49, 50, 51, 52, 53, 54, 55, 56, 57, 58, 59, 60, 61, 62, 63, 64, 65, 66, 67, 68, 69, 70, 71, 72, 73, 74, 75, 76, 77, 78, 79, 80],
      "CsaImage.SlicePosition_PCS": [
        [-118.20606862, -140.30202452, -52.87542371],
        [-118.17506658, -140.75182501, -51.23630361],
        [-118.14406453, -141.2016255, -49.5971816],
        [-118.11306249, -141.65142409, -47.95805959],
        [-118.08205997, -142.10122458, -46.31893949],
        [-118.05105792, -142.55102507, -44.67981748],
        [-118.02005588, -143.00082556, -43.04069642],
        [-117.98905383, -143.45062415, -41.40157537],
        [-117.95805179, -143.90042464, -39.76245336],
        [-117.92704975, -144.35022513, -38.1233323],
        [-117.89604722, -144.80002562, -36.48421125],
        [-117.86504518, -145.2498242, -34.84508972],
        [-117.83404313, -145.6996247, -33.2059683],
        [-117.80304109, -146.14942519, -31.56684699],
        [-117.77203905, -146.59922568, -29.92772559],
        [-117.741037, -147.04902617, -28.2886043],
        [-117.71003448, -147.49882475, -26.64948301],
        [-117.67903243, -147.94862524, -25.01036147],
        [-117.64803039, -148.39842574, -23.37123994],
        [-117.61702834, -148.84822623, -21.73211889],
        [-117.5860263, -149.29802481, -20.09299783],
        [-117.55502426, -149.7478253, -18.45387582],
        [-117.52402173, -150.19762579, -16.81475477],
        [-117.49301969, -150.64742629, -15.17563276],
        [-117.46201764, -151.09722678, -13.53651265],
        [-117.4310156, -151.54702536, -11.89739065],
        [-117.40001356, -151.99682585, -10.25826864],
        [-117.36901151, -152.44662634, -8.61914853],
        [-117.33800899, -152.89642683, -6.98002652],
        [-117.30700694, -153.34622542, -5.34090642],
        [-117.2760049, -153.79602591, -3.70178441],
        [-117.24500286, -154.2458264, -2.0626624],
        [-117.21400081, -154.69562689, -0.4235423],
        [-117.18299877, -155.14542738, 1.21558161],
        [-117.15199624, -155.59522597, 2.85469981],
        [-117.1209942, -156.04502837, 4.49382182],
        [-117.08999215, -156.49482695, 6.13294383],
        [-117.05899011, -156.94462553, 7.77206584],
        [-117.02798807, -157.39442793, 9.41118785],
        [-116.99698602, -157.84422652, 11.05030604],
        [-116.9659835, -158.2940251, 12.68942805],
        [-116.93498145, -158.7438275, 14.32855006],
        [-116.90397941, -159.19362608, 15.96767207],
        [-116.87297737, -159.64342848, 17.60679408],
        [-116.84197532, -160.09322707, 19.24591609],
        [-116.81097328, -160.54302565, 20.88503428],
        [-116.77997075, -160.99282805, 22.52415629],
        [-116.74896871, -161.44262663, 24.1632783],
        [-116.71796666, -161.89242903, 25.80240031],
        [-116.68696462, -162.34222762, 27.44152232],
        [-116.65596258, -162.7920262, 29.08064433],
        [-116.62496053, -163.2418286, 30.71976252],
        [-116.59395825, -163.69162718, 32.35888453],
        [-116.56295596, -164.14142577, 33.99800654],
        [-116.53195392, -164.59122817, 35.63712855],
        [-116.50095188, -165.04102675, 37.27625056],
        [-116.46994959, -165.49082915, 38.91537257],
        [-116.43894755, -165.94062773, 40.55449458],
        [-116.4079455, -166.39042632, 42.19361659],
        [-116.37694322, -166.84022871, 43.8327386],
        [-116.34594118, -167.2900273, 45.47185298],
        [-116.31493913, -167.7398297, 47.11097499],
        [-116.28393685, -168.18962828, 48.750097],
        [-116.2529348, -168.63942687, 50.389219],
        [-116.22193276, -169.08922926, 52.02834101],
        [-116.19093047, -169.53902785, 53.66746302],
        [-116.15992843, -169.98882643, 55.30658503],
        [-116.12892639, -170.43862883, 56.94570704],
        [-116.0979241, -170.88842741, 58.58482905],
        [-116.06692206, -171.33822981, 60.22395106],
        [-116.03592001, -171.7880284, 61.86307307],
        [-116.00491773, -172.23782698, 63.50218745],
        [-115.97391569, -172.68762938, 65.14130946],
        [-115.94291364, -173.13742796, 66.78043147],
        [-115.91191136, -173.58723036, 68.41955348],
        [-115.88090931, -174.03702895, 70.05867549],
        [-115.84990727, -174.48682753, 71.6977975],
        [-115.81890499, -174.93662993, 73.3369195],
        [-115.78790294, -175.38642851, 74.97604151],
        [-115.7569009, -175.8362271, 76.61516352],
        [-115.72589861, -176.2860295, 78.25428553]
],
      "CsaImage.TimeAfterStart": [16.4, 18.5175, 16.5525, 18.6675, 16.7025, 18.82, 16.855, 18.97, 17.005, 19.12, 17.1575, 19.2725, 17.3075, 19.4225, 17.46, 19.575, 17.61, 19.725, 17.76, 19.8775, 17.9125, 20.0275, 18.0625, 20.18, 18.215, 20.33, 18.365, 16.4, 18.5175, 16.5525, 18.6675, 16.7025, 18.82, 16.855, 18.97, 17.005, 19.12, 17.1575, 19.2725, 17.3075, 19.4225, 17.46, 19.575, 17.61, 19.725, 17.76, 19.8775, 17.9125, 20.0275, 18.0625, 20.18, 18.215, 20.33, 18.365, 16.4, 18.5175, 16.5525, 18.6675, 16.7025, 18.82, 16.855, 18.97, 17.005, 19.12, 17.1575, 19.2725, 17.3075, 19.4225, 17.46, 19.575, 17.61, 19.725, 17.76, 19.8775, 17.9125, 20.0275, 18.0625, 20.18, 18.215, 20.33, 18.365],
      "ImagePositionPatient": [
        [-118.20606862422, -140.30202452136, -52.875423711152],
        [-118.17506657955, -140.75182501269, -51.236303609223],
        [-118.14406453487, -141.20162550403, -49.597181599946],
        [-118.11306249019, -141.65142408801, -47.958059590668],
        [-118.08205996868, -142.10122457934, -46.31893948874],
        [-118.051057924, -142.55102507068, -44.679817479462],
        [-118.02005587932, -143.00082556201, -43.040696423859],
        [-117.98905383464, -143.45062414599, -41.401575368256],
        [-117.95805178997, -143.90042463733, -39.762453358979],
        [-117.92704974529, -144.35022512866, -38.123332303376],
        [-117.89604722377, -144.80002561999, -36.484211247773],
        [-117.8650451791, -145.24982420398, -34.845089715333],
        [-117.83404313442, -145.69962469531, -33.205968302102],
        [-117.80304108974, -146.14942518664, -31.566846989454],
        [-117.77203904506, -146.59922567798, -29.927725594849],
        [-117.74103700038, -147.04902616931, -28.288604300828],
        [-117.71003447887, -147.49882475329, -26.649483006806],
        [-117.67903243419, -147.94862524463, -25.010361474366],
        [-117.64803038951, -148.39842573596, -23.371239941926],
        [-117.61702834484, -148.84822622729, -21.732118886323],
        [-117.58602630016, -149.29802481128, -20.09299783072],
        [-117.55502425548, -149.74782530261, -18.453875821442],
        [-117.52402173397, -150.19762579394, -16.814754765839],
        [-117.49301968929, -150.64742628528, -15.175632756562],
        [-117.46201764461, -151.09722677661, -13.536512654633],
        [-117.43101559993, -151.54702536059, -11.897390645356],
        [-117.40001355526, -151.99682585193, -10.258268636079],
        [-117.36901151058, -152.44662634326, -8.6191485341499],
        [-117.33800898906, -152.89642683459, -6.9800265248725],
        [-117.30700694438, -153.34622541858, -5.3409064229438],
        [-117.27600489971, -153.79602590991, -3.7017844136665],
        [-117.24500285503, -154.24582640124, -2.0626624043891],
        [-117.21400081035, -154.69562689257, -0.4235423024604],
        [-117.18299876567, -155.14542738391, 1.2155816141656],
        [-117.15199624416, -155.59522596789, 2.8546998087456],
        [-117.12099419948, -156.04502836657, 4.493821818023],
        [-117.0899921548, -156.49482695056, 6.1329438273003],
        [-117.05899011013, -156.94462553454, 7.7720658365777],
        [-117.02798806545, -157.39442793322, 9.411187845855],
        [-116.99698602077, -157.84422651721, 11.050306040435],
        [-116.96598349926, -158.29402510119, 12.689428049712],
        [-116.93498145458, -158.74382749987, 14.32855005899],
        [-116.9039794099, -159.19362608386, 15.967672068267],
        [-116.87297736522, -159.64342848254, 17.606794077544],
        [-116.84197532054, -160.09322706653, 19.245916086822],
        [-116.81097327587, -160.54302565051, 20.885034281402],
        [-116.77997075435, -160.99282804919, 22.524156290679],
        [-116.74896870967, -161.44262663318, 24.163278299957],
        [-116.717966665, -161.89242903186, 25.802400309234],
        [-116.68696462032, -162.34222761584, 27.441522318511],
        [-116.65596257564, -162.79202619983, 29.080644327789],
        [-116.62496053096, -163.24182859851, 30.719762522369],
        [-116.59395824787, -163.69162718249, 32.358884531646],
        [-116.56295596477, -164.14142576648, 33.998006540923],
        [-116.53195392009, -164.59122816516, 35.637128550201],
        [-116.50095187542, -165.04102674914, 37.276250559478],
        [-116.46994959232, -165.49082914782, 38.915372568755],
        [-116.43894754764, -165.94062773181, 40.554494578033],
        [-116.40794550296, -166.39042631579, 42.19361658731],
        [-116.37694321987, -166.84022871447, 43.832738596587],
        [-116.34594117519, -167.29002729846, 45.47185297647],
        [-116.31493913051, -167.73982969714, 47.110974985748],
        [-116.28393684742, -168.18962828112, 48.750096995025],
        [-116.25293480274, -168.63942686511, 50.389219004302],
        [-116.22193275806, -169.08922926379, 52.02834101358],
        [-116.19093047496, -169.53902784778, 53.667463022857],
        [-116.15992843029, -169.98882643176, 55.306585032134],
        [-116.12892638561, -170.43862883044, 56.945707041412],
        [-116.09792410251, -170.88842741443, 58.584829050689],
        [-116.06692205783, -171.33822981311, 60.223951059966],
        [-116.03592001316, -171.78802839709, 61.863073069244],
        [-116.00491773006, -172.23782698108, 63.502187449126],
        [-115.97391568538, -172.68762937976, 65.141309458404],
        [-115.9429136407, -173.13742796374, 66.780431467681],
        [-115.91191135761, -173.58723036242, 68.419553476959],
        [-115.88090931293, -174.03702894641, 70.058675486236],
        [-115.84990726825, -174.48682753039, 71.697797495513],
        [-115.81890498516, -174.93662992907, 73.336919504791],
        [-115.78790294048, -175.38642851306, 74.976041514068],
        [-115.7569008958, -175.83622709704, 76.615163523345],
        [-115.7258986127, -176.28602949572, 78.254285532623]
],
      "InstanceCreationTime": ["090053.522000", "090053.625000", "090053.530000", "090053.632000", "090053.538000", "090053.639000", "090053.546000", "090053.646000", "090053.554000", "090053.652000", "090053.561000", "090053.660000", "090053.569000", "090053.668000", "090053.575000", "090053.678000", "090053.582000", "090053.686000", "090053.588000", "090053.692000", "090053.596000", "090053.699000", "090053.604000", "090053.705000", "090053.612000", "090053.722000", "090053.618000", "090053.525000", "090053.627000", "090053.532000", "090053.634000", "090053.540000", "090053.641000", "090053.548000", "090053.648000", "090053.556000", "090053.655000", "090053.563000", "090053.663000", "090053.571000", "090053.674000", "090053.578000", "090053.681000", "090053.584000", "090053.688000", "090053.591000", "090053.694000", "090053.599000", "090053.701000", "090053.607000", "090053.707000", "090053.614000", "090053.724000", "090053.620000", "090053.528000", "090053.629000", "090053.535000", "090053.637000", "090053.543000", "090053.644000", "090053.551000", "090053.650000", "090053.559000", "090053.658000", "090053.567000", "090053.665000", "090053.573000", "090053.676000", "090053.580000", "090053.683000", "090053.586000", "090053.690000", "090053.594000", "090053.696000", "090053.601000", "090053.703000", "090053.610000", "090053.720000", "090053.616000", "090053.726000", "090053.623000"],
      "InstanceNumber": [1, 2, 3, 4, 5, 6, 7, 8, 9, 10, 11, 12, 13, 14, 15, 16, 17, 18, 19, 20, 21, 22, 23, 24, 25, 26, 27, 28, 29, 30, 31, 32, 33, 34, 35, 36, 37, 38, 39, 40, 41, 42, 43, 44, 45, 46, 47, 48, 49, 50, 51, 52, 53, 54, 55, 56, 57, 58, 59, 60, 61, 62, 63, 64, 65, 66, 67, 68, 69, 70, 71, 72, 73, 74, 75, 76, 77, 78, 79, 80, 81],
      "LargestImagePixelValue": [42727, 40256, 36105, 41921, 33204, 43627, 47679, 60757, 54619, 47798, 48155, 40404, 42381, 35375, 36156, 31897, 39489, 37585, 27895, 34010, 34325, 50277, 65535, 65535, 65535, 54596, 65535, 65535, 65535, 65535, 65535, 65535, 65535, 65535, 52678, 65385, 47328, 46074, 55124, 49170, 48090, 47455, 49908, 51319, 50332, 53003, 62348, 65535, 65530, 62108, 51387, 58388, 63032, 65535, 49839, 48365, 48200, 52234, 54041, 65535, 50527, 54762, 61113, 62328, 52628, 57823, 65535, 65535, 65535, 65535, 62493, 51023, 65535, 65535, 65535, 65535, 65535, 65535, 65535, 65535, 37763],
      "SliceLocation": [-16.015302265955, -14.315303349095, -12.615302593191, -10.915302341949, -9.2153034163936, -7.5153026604894, -5.8153028241075, -4.1153034923876, -2.4153027364834, -0.7153029001015, 0.98469694497631, 2.6846967364573, 4.3846969176601, 6.084697001882, 7.7846971651254, 9.4846972313879, 11.184696801684, 12.884697097827, 14.58469739397, 16.284697230352, 17.984696562072, 19.684697317976, 21.384697163054, 23.084697918958, 24.784696835818, 26.48469708706, 28.184697842964, 29.884696759824, 31.584697524424, 33.284695936622, 34.984696692526, 36.68469744843, 38.38469636529, 40.084698960238, 41.784695542087, 43.484696802654, 45.184697053896, 46.884697305138, 48.584698565704, 50.284695138857, 51.984695398795, 53.684696659361, 55.384696910603, 57.08469817117, 58.784698422412, 60.484694995565, 62.184696264827, 63.884696516069, 65.584697776635, 67.284698027878, 68.98469827912, 70.684695861597, 72.384696117187, 74.084696372777, 75.784697633343, 77.484697884585, 79.1846991495, 80.884699400742, 82.584699651984, 84.284700916898, 85.984693811962, 87.684695072528, 89.384695328118, 91.08469557936, 92.784696839927, 94.484697095517, 96.184697346759, 97.884698607325, 99.584698862915, 101.28470012348, 102.98470037472, 104.68469327414, 106.3846945347, 108.08469478594, 109.78469605086, 111.4846963021, 113.18469655334, 114.88469781826, 116.5846980695, 118.28469832074, 119.98469958566],
      "WindowCenter": [6604.0, 6376.0, 5969.0, 6370.0, 6030.0, 6748.0, 7127.0, 7945.0, 7839.0, 7776.0, 7773.0, 7478.0, 7726.0, 7406.0, 7525.0, 7297.0, 7458.0, 7471.0, 7379.0, 7829.0, 8095.0, 8516.0, 8808.0, 8897.0, 8907.0, 8731.0, 9155.0, 9300.0, 9563.0, 9875.0, 10026.0, 9951.0, 9892.0, 10062.0, 9575.0, 10179.0, 9701.0, 9679.0, 9908.0, 9838.0, 9961.0, 10103.0, 10315.0, 10462.0, 10416.0, 10528.0, 10660.0, 10896.0, 11056.0, 10996.0, 10905.0, 11181.0, 11347.0, 11536.0, 10986.0, 11143.0, 11160.0, 11296.0, 11408.0, 11585.0, 11617.0, 11573.0, 11770.0, 11753.0, 12036.0, 11990.0, 12256.0, 12148.0, 12164.0, 11959.0, 11924.0, 11761.0, 11584.0, 11299.0, 10684.0, 9769.0, 8465.0, 8636.0, 9381.0, 10096.0, 6663.0],
      "WindowWidth": [14964.0, 14824.0, 14213.0, 14641.0, 14066.0, 15127.0, 15730.0, 17158.0, 16909.0, 16888.0, 16884.0, 16254.0, 16650.0, 16076.0, 16269.0, 15809.0, 16128.0, 16201.0, 16099.0, 16931.0, 17692.0, 18838.0, 20100.0, 20817.0, 20584.0, 19605.0, 20891.0, 21670.0, 22627.0, 23208.0, 23608.0, 23458.0, 23630.0, 23851.0, 21152.0, 23257.0, 21322.0, 21238.0, 21389.0, 21511.0, 21915.0, 22225.0, 22613.0, 23063.0, 22997.0, 23252.0, 23488.0, 24024.0, 24560.0, 24454.0, 24208.0, 24830.0, 25248.0, 25714.0, 24198.0, 24620.0, 24679.0, 24967.0, 25298.0, 25701.0, 25713.0, 25648.0, 26249.0, 26269.0, 27184.0, 27308.0, 28617.0, 28485.0, 28882.0, 28433.0, 28675.0, 28517.0, 29840.0, 29745.0, 31767.0, 32950.0, 34854.0, 34020.0, 31927.0, 23879.0, 14182.0]
    }
  }
}