{
  "AcquisitionMatrixPE": 82,
  "AcquisitionNumber": 1,
  "AcquisitionTime": "19:06:15.782500",
  "BandwidthPerPixelPhaseEncode": 24.888,
  "BaseResolution": 82,
  "BodyPartExamined": "BRAIN",
  "ConsistencyInfo": "N4_VE11E_LATEST_20181129",
  "ConversionSoftware": "dcm2niix",
  "ConversionSoftwareVersion": "v1.0.20201102",
  "DerivedVendorReportedEchoSpacing": 0.00049,
  "DeviceSerialNumber": "66112",
  "DwellTime": 2e-06,
  "EchoTime": 0.0272,
  "EchoTrainLength": 82,
  "EffectiveEchoSpacing": 0.00049,
  "FlipAngle": 44,
  "ImageComments": "Unaliased MB8/PE3",
  "ImageOrientationPatientDICOM": [0.99536, -0.0961916, -0.00240731, 0.0961929, 0.994139, 0.0493429],
  "ImageType": [
    "ORIGINAL",
    "PRIMARY",
    "M",
    "MB",
    "ND",
    "NORM",
    "MOSAIC"
],
  "ImagingFrequency": 123.259,
  "InPlanePhaseEncodingDirectionDICOM": "COL",
  "InstitutionAddress": "Maynard 3,Hanover,NH,US,03755",
  "InstitutionName": "Dartmouth College - PBS",
  "InstitutionalDepartmentName": "Department",
  "MRAcquisitionType": "2D",
  "MagneticFieldStrength": 3,
  "Manufacturer": "Siemens",
  "ManufacturersModelName": "Prisma",
  "Modality": "MR",
  "MultibandAccelerationFactor": 8,
  "PartialFourier": 1,
  "PatientPosition": "HFS",
  "PercentPhaseFOV": 100,
  "PercentSampling": 100,
  "PhaseEncodingDirection": "j-",
  "PhaseEncodingSteps": 82,
  "PhaseResolution": 1,
  "PixelBandwidth": 3050,
  "ProcedureStepDescription": "Wager_Wager^1076_spacetop",
  "ProtocolName": "func_run-01_task-social_acq-ap-mb8",
  "PulseSequenceDetails": "%CustomerSeq%\\cmrr_mbep2d_bold",
  "ReceiveCoilActiveElements": "HEA;HEP",
  "ReceiveCoilName": "Head_32",
  "ReconMatrixPE": 82,
  "RepetitionTime": 0.46,
  "SAR": 0.116081,
  "ScanOptions": "FS",
  "ScanningSequence": "EP",
  "SequenceName": "epfid2d1_82",
  "SequenceVariant": "SK\\SS",
  "SeriesDescription": "func_run-01_task-social_acq-ap-mb8",
  "SeriesNumber": 8,
  "ShimSetting": [4229, -7757, -7232, 156, -222, -7, 72, 139],
  "SliceThickness": 2.7,
  "SliceTiming": [0, 0.2525, 0.065, 0.315, 0.1275, 0.3775, 0.19, 0, 0.2525, 0.065, 0.315, 0.1275, 0.3775, 0.19, 0, 0.2525, 0.065, 0.315, 0.1275, 0.3775, 0.19, 0, 0.2525, 0.065, 0.315, 0.1275, 0.3775, 0.19, 0, 0.2525, 0.065, 0.315, 0.1275, 0.3775, 0.19, 0, 0.2525, 0.065, 0.315, 0.1275, 0.3775, 0.19, 0, 0.2525, 0.065, 0.315, 0.1275, 0.3775, 0.19, 0, 0.2525, 0.065, 0.315, 0.1275, 0.3775, 0.19],
  "SoftwareVersions": "syngo MR E11",
  "SpacingBetweenSlices": 2.7,
  "StationName": "AWP66112",
  "TaskName": "social",
  "TotalReadoutTime": 0.03969,
  "TxRefAmp": 251.813,
  "WipMemBlock": "b2e2bfc8-c23f-4daf-923a-7a33b9d27d40||Sequence: R016 ve11e/master r/434b28f1; Aug  7 2019 18:53:46 by eja",
  "dcmmeta_affine": [
    [-2.670477867126465, 0.2580786347389221, 0.006353546865284443, 98.53409576416016],
    [0.2580750286579132, 2.6672019958496094, 0.13323278725147247, -107.0809555053711],
    [-0.006458645220845938, -0.1323833018541336, 2.6967034339904785, -57.05416488647461],
    [0.0, 0.0, 0.0, 1.0]
],
  "dcmmeta_reorient_transform": [
    [0.0, -1.0, 0.0, 81.0],
    [1.0, 0.0, 0.0, 0.0],
    [0.0, 0.0, 1.0, 0.0],
    [0.0, 0.0, 0.0, 1.0]
],
  "dcmmeta_shape": [82, 82, 56, 872],
  "dcmmeta_slice_dim": 2,
  "dcmmeta_version": 0.6,
  "global": {
    "const": {
      "AccessionNumber": "A004857",
      "AcquisitionMatrix": [82, 0, 0, 82],
      "AngioFlag": "N",
      "BitsAllocated": 16,
      "BitsStored": 16,
      "BodyPartExamined": "BRAIN",
      "Columns": 656,
      "EchoNumbers": 1,
      "EchoTime": 27.2,
      "EchoTrainLength": 82,
      "FlipAngle": 44.0,
      "HighBit": 15,
      "ImageOrientationPatient": [0.99535992506765, -0.0961916026093, -0.0024073131867, 0.09619294247183, 0.99413892364106, 0.04934286493918],
      "ImagePositionPatient": [-959.93419350745, -800.38186229822, -103.9175863011],
      "ImageType": [
        "ORIGINAL",
        "PRIMARY",
        "M",
        "MB",
        "ND",
        "NORM",
        "MOSAIC"
],
      "ImagedNucleus": "1H",
      "ImagingFrequency": 123.259037,
      "InPlanePhaseEncodingDirection": "COL",
      "MRAcquisitionType": "2D",
      "MagneticFieldStrength": 3.0,
      "Manufacturer": "SIEMENS",
      "ManufacturerModelName": "Prisma",
      "Modality": "MR",
      "NumberOfAverages": 1.0,
      "NumberOfPhaseEncodingSteps": 82,
      "PercentPhaseFieldOfView": 100.0,
      "PercentSampling": 100.0,
      "PerformedProcedureStepStartTime": "185630.315000",
      "PhotometricInterpretation": "MONOCHROME2",
      "PixelBandwidth": 3050.0,
      "PixelRepresentation": 0,
      "PixelSpacing": [2.6829268932343, 2.6829268932343],
      "ProtocolName": "func_run-01_task-social_acq-ap-mb8",
      "RepetitionTime": 460.0,
      "Rows": 656,
      "SAR": 0.11608070148624,
      "SamplesPerPixel": 1,
      "ScanOptions": "FS",
      "ScanningSequence": "EP",
      "SequenceName": "epfid2d1_82",
      "SequenceVariant": [
        "SK",
        "SS"
],
      "SeriesDescription": "func_run-01_task-social_acq-ap-mb8",
      "SeriesNumber": 8,
      "SeriesTime": "190629.981000",
      "SliceLocation": -62.036593975128,
      "SliceThickness": 2.7000000476837,
      "SmallestImagePixelValue": 0,
      "SoftwareVersions": "syngo MR E11",
      "SpacingBetweenSlices": 2.7000000446741,
      "SpecificCharacterSet": "ISO_IR 100",
      "StudyID": "1",
      "StudyTime": "185630.234000",
      "TransmitCoilName": "Body",
      "VariableFlipAngleFlag": "N",
      "WindowCenterWidthExplanation": "Algo1"
    },
    "slices": {}
  },
  "time": {
    "samples": {
      "AcquisitionNumber": [1, 2, 3, 4, 5, 6, 7, 8, 9, 10, 11, 12, 13, 14, 15, 16, 17, 18, 19, 20, 21, 22, 23, 24, 25, 26, 27, 28, 29, 30, 31, 32, 33, 34, 35, 36, 37, 38, 39, 40, 41, 42, 43, 44, 45, 46, 47, 48, 49, 50, 51, 52, 53, 54, 55, 56, 57, 58, 59, 60, 61, 62, 63, 64, 65, 66, 67, 68, 69, 70, 71, 72, 73, 74, 75, 76, 77, 78, 79, 80, 81, 82, 83, 84, 85, 86, 87, 88, 89, 90, 91, 92, 93, 94, 95, 96, 97, 98, 99, 100, 101, 102, 103, 104, 105, 106, 107, 108, 109, 110, 111, 112, 113, 114, 115, 116, 117, 118, 119, 120, 121, 122, 123, 124, 125, 126, 127, 128, 129, 130, 131, 132, 133, 134, 135, 136, 137, 138, 139, 140, 141, 142, 143, 144, 145, 146, 147, 148, 149, 150, 151, 152, 153, 154, 155, 156, 157, 158, 159, 160, 161, 162, 163, 164, 165, 166, 167, 168, 169, 170, 171, 172, 173, 174, 175, 176, 177, 178, 179, 180, 181, 182, 183, 184, 185, 186, 187, 188, 189, 190, 191, 192, 193, 194, 195, 196, 197, 198, 199, 200, 201, 202, 203, 204, 205, 206, 207, 208, 209, 210, 211, 212, 213, 214, 215, 216, 217, 218, 219, 220, 221, 222, 223, 224, 225, 226, 227, 228, 229, 230, 231, 232, 233, 234, 235, 236, 237, 238, 239, 240, 241, 242, 243, 244, 245, 246, 247, 248, 249, 250, 251, 252, 253, 254, 255, 256, 257, 258, 259, 260, 261, 262, 263, 264, 265, 266, 267, 268, 269, 270, 271, 272, 273, 274, 275, 276, 277, 278, 279, 280, 281, 282, 283, 284, 285, 286, 287, 288, 289, 290, 291, 292, 293, 294, 295, 296, 297, 298, 299, 300, 301, 302, 303, 304, 305, 306, 307, 308, 309, 310, 311, 312, 313, 314, 315, 316, 317, 318, 319, 320, 321, 322, 323, 324, 325, 326, 327, 328, 329, 330, 331, 332, 333, 334, 335, 336, 337, 338, 339, 340, 341, 342, 343, 344, 345, 346, 347, 348, 349, 350, 351, 352, 353, 354, 355, 356, 357, 358, 359, 360, 361, 362, 363, 364, 365, 366, 367, 368, 369, 370, 371, 372, 373, 374, 375, 376, 377, 378, 379, 380, 381, 382, 383, 384, 385, 386, 387, 388, 389, 390, 391, 392, 393, 394, 395, 396, 397, 398, 399, 400, 401, 402, 403, 404, 405, 406, 407, 408, 409, 410, 411, 412, 413, 414, 415, 416, 417, 418, 419, 420, 421, 422, 423, 424, 425, 426, 427, 428, 429, 430, 431, 432, 433, 434, 435, 436, 437, 438, 439, 440, 441, 442, 443, 444, 445, 446, 447, 448, 449, 450, 451, 452, 453, 454, 455, 456, 457, 458, 459, 460, 461, 462, 463, 464, 465, 466, 467, 468, 469, 470, 471, 472, 473, 474, 475, 476, 477, 478, 479, 480, 481, 482, 483, 484, 485, 486, 487, 488, 489, 490, 491, 492, 493, 494, 495, 496, 497, 498, 499, 500, 501, 502, 503, 504, 505, 506, 507, 508, 509, 510, 511, 512, 513, 514, 515, 516, 517, 518, 519, 520, 521, 522, 523, 524, 525, 526, 527, 528, 529, 530, 531, 532, 533, 534, 535, 536, 537, 538, 539, 540, 541, 542, 543, 544, 545, 546, 547, 548, 549, 550, 551, 552, 553, 554, 555, 556, 557, 558, 559, 560, 561, 562, 563, 564, 565, 566, 567, 568, 569, 570, 571, 572, 573, 574, 575, 576, 577, 578, 579, 580, 581, 582, 583, 584, 585, 586, 587, 588, 589, 590, 591, 592, 593, 594, 595, 596, 597, 598, 599, 600, 601, 602, 603, 604, 605, 606, 607, 608, 609, 610, 611, 612, 613, 614, 615, 616, 617, 618, 619, 620, 621, 622, 623, 624, 625, 626, 627, 628, 629, 630, 631, 632, 633, 634, 635, 636, 637, 638, 639, 640, 641, 642, 643, 644, 645, 646, 647, 648, 649, 650, 651, 652, 653, 654, 655, 656, 657, 658, 659, 660, 661, 662, 663, 664, 665, 666, 667, 668, 669, 670, 671, 672, 673, 674, 675, 676, 677, 678, 679, 680, 681, 682, 683, 684, 685, 686, 687, 688, 689, 690, 691, 692, 693, 694, 695, 696, 697, 698, 699, 700, 701, 702, 703, 704, 705, 706, 707, 708, 709, 710, 711, 712, 713, 714, 715, 716, 717, 718, 719, 720, 721, 722, 723, 724, 725, 726, 727, 728, 729, 730, 731, 732, 733, 734, 735, 736, 737, 738, 739, 740, 741, 742, 743, 744, 745, 746, 747, 748, 749, 750, 751, 752, 753, 754, 755, 756, 757, 758, 759, 760, 761, 762, 763, 764, 765, 766, 767, 768, 769, 770, 771, 772, 773, 774, 775, 776, 777, 778, 779, 780, 781, 782, 783, 784, 785, 786, 787, 788, 789, 790, 791, 792, 793, 794, 795, 796, 797, 798, 799, 800, 801, 802, 803, 804, 805, 806, 807, 808, 809, 810, 811, 812, 813, 814, 815, 816, 817, 818, 819, 820, 821, 822, 823, 824, 825, 826, 827, 828, 829, 830, 831, 832, 833, 834, 835, 836, 837, 838, 839, 840, 841, 842, 843, 844, 845, 846, 847, 848, 849, 850, 851, 852, 853, 854, 855, 856, 857, 858, 859, 860, 861, 862, 863, 864, 865, 866, 867, 868, 869, 870, 871, 872],
      "AcquisitionTime": ["190615.782500", "190616.242500", "190616.702500", "190617.162500", "190617.622500", "190618.082500", "190618.542500", "190619.002500", "190619.462500", "190619.922500", "190620.382500", "190620.842500", "190621.302500", "190621.762500", "190622.222500", "190622.682500", "190623.142500", "190623.602500", "190624.062500", "190624.522500", "190624.982500", "190625.442500", "190625.902500", "190626.362500", "190626.822500", "190627.282500", "190627.742500", "190628.202500", "190628.662500", "190629.122500", "190629.582500", "190630.042500", "190630.502500", "190630.962500", "190631.422500", "190631.882500", "190632.342500", "190632.802500", "190633.262500", "190633.722500", "190634.182500", "190634.642500", "190635.102500", "190635.562500", "190636.022500", "190636.482500", "190636.942500", "190637.402500", "190637.862500", "190638.322500", "190638.782500", "190639.242500", "190639.702500", "190640.162500", "190640.622500", "190641.082500", "190641.542500", "190642.002500", "190642.462500", "190642.922500", "190643.382500", "190643.842500", "190644.302500", "190644.762500", "190645.222500", "190645.682500", "190646.142500", "190646.602500", "190647.062500", "190647.522500", "190647.982500", "190648.442500", "190648.902500", "190649.362500", "190649.822500", "190650.282500", "190650.742500", "190651.202500", "190651.662500", "190652.122500", "190652.582500", "190653.042500", "190653.502500", "190653.962500", "190654.422500", "190654.882500", "190655.342500", "190655.802500", "190656.262500", "190656.722500", "190657.182500", "190657.642500", "190658.102500", "190658.562500", "190659.022500", "190659.482500", "190659.942500", "190700.402500", "190700.862500", "190701.322500", "190701.782500", "190702.242500", "190702.702500", "190703.162500", "190703.622500", "190704.082500", "190704.542500", "190705.002500", "190705.462500", "190705.922500", "190706.382500", "190706.842500", "190707.302500", "190707.762500", "190708.222500", "190708.682500", "190709.142500", "190709.602500", "190710.062500", "190710.522500", "190710.982500", "190711.442500", "190711.902500", "190712.362500", "190712.822500", "190713.282500", "190713.742500", "190714.202500", "190714.662500", "190715.122500", "190715.582500", "190716.042500", "190716.502500", "190716.962500", "190717.422500", "190717.882500", "190718.342500", "190718.802500", "190719.262500", "190719.722500", "190720.182500", "190720.642500", "190721.102500", "190721.562500", "190722.022500", "190722.482500", "190722.942500", "190723.402500", "190723.862500", "190724.322500", "190724.782500", "190725.242500", "190725.702500", "190726.162500", "190726.622500", "190727.082500", "190727.542500", "190728.002500", "190728.462500", "190728.922500", "190729.382500", "190729.842500", "190730.302500", "190730.762500", "190731.222500", "190731.682500", "190732.142500", "190732.602500", "190733.062500", "190733.522500", "190733.982500", "190734.442500", "190734.902500", "190735.362500", "190735.822500", "190736.282500", "190736.742500", "190737.202500", "190737.662500", "190738.122500", "190738.582500", "190739.042500", "190739.502500", "190739.962500", "190740.422500", "190740.882500", "190741.342500", "190741.802500", "190742.262500", "190742.722500", "190743.182500", "190743.642500", "190744.102500", "190744.562500", "190745.022500", "190745.482500", "190745.942500", "190746.402500", "190746.862500", "190747.322500", "190747.782500", "190748.242500", "190748.702500", "190749.162500", "190749.622500", "190750.082500", "190750.542500", "190751.002500", "190751.462500", "190751.922500", "190752.382500", "190752.842500", "190753.302500", "190753.762500", "190754.222500", "190754.682500", "190755.142500", "190755.602500", "190756.062500", "190756.522500", "190756.982500", "190757.442500", "190757.902500", "190758.362500", "190758.822500", "190759.282500", "190759.742500", "190800.202500", "190800.662500", "190801.122500", "190801.582500", "190802.042500", "190802.502500", "190802.962500", "190803.422500", "190803.882500", "190804.342500", "190804.802500", "190805.262500", "190805.722500", "190806.182500", "190806.642500", "190807.102500", "190807.562500", "190808.022500", "190808.482500", "190808.942500", "190809.402500", "190809.862500", "190810.322500", "190810.782500", "190811.242500", "190811.702500", "190812.162500", "190812.622500", "190813.082500", "190813.542500", "190814.002500", "190814.462500", "190814.922500", "190815.382500", "190815.842500", "190816.302500", "190816.762500", "190817.222500", "190817.682500", "190818.142500", "190818.602500", "190819.062500", "190819.522500", "190819.982500", "190820.442500", "190820.902500", "190821.362500", "190821.822500", "190822.282500", "190822.742500", "190823.202500", "190823.662500", "190824.122500", "190824.582500", "190825.042500", "190825.502500", "190825.962500", "190826.422500", "190826.882500", "190827.342500", "190827.802500", "190828.262500", "190828.722500", "190829.182500", "190829.642500", "190830.102500", "190830.562500", "190831.022500", "190831.482500", "190831.942500", "190832.402500", "190832.862500", "190833.322500", "190833.782500", "190834.242500", "190834.702500", "190835.162500", "190835.622500", "190836.082500", "190836.542500", "190837.002500", "190837.462500", "190837.922500", "190838.382500", "190838.842500", "190839.302500", "190839.762500", "190840.222500", "190840.682500", "190841.142500", "190841.602500", "190842.062500", "190842.522500", "190842.982500", "190843.442500", "190843.902500", "190844.362500", "190844.822500", "190845.282500", "190845.742500", "190846.202500", "190846.662500", "190847.122500", "190847.582500", "190848.042500", "190848.502500", "190848.962500", "190849.422500", "190849.882500", "190850.342500", "190850.802500", "190851.262500", "190851.722500", "190852.182500", "190852.642500", "190853.102500", "190853.562500", "190854.022500", "190854.482500", "190854.942500", "190855.402500", "190855.862500", "190856.322500", "190856.782500", "190857.242500", "190857.702500", "190858.162500", "190858.622500", "190859.082500", "190859.542500", "190900.002500", "190900.462500", "190900.922500", "190901.382500", "190901.842500", "190902.302500", "190902.762500", "190903.222500", "190903.682500", "190904.142500", "190904.602500", "190905.062500", "190905.522500", "190905.982500", "190906.442500", "190906.902500", "190907.362500", "190907.822500", "190908.282500", "190908.742500", "190909.202500", "190909.662500", "190910.122500", "190910.582500", "190911.042500", "190911.502500", "190911.962500", "190912.422500", "190912.882500", "190913.342500", "190913.802500", "190914.262500", "190914.722500", "190915.182500", "190915.642500", "190916.102500", "190916.562500", "190917.022500", "190917.482500", "190917.942500", "190918.402500", "190918.862500", "190919.322500", "190919.782500", "190920.242500", "190920.702500", "190921.162500", "190921.622500", "190922.082500", "190922.542500", "190923.002500", "190923.462500", "190923.922500", "190924.382500", "190924.842500", "190925.302500", "190925.762500", "190926.222500", "190926.682500", "190927.142500", "190927.602500", "190928.062500", "190928.522500", "190928.982500", "190929.442500", "190929.902500", "190930.362500", "190930.822500", "190931.282500", "190931.742500", "190932.202500", "190932.662500", "190933.122500", "190933.582500", "190934.042500", "190934.502500", "190934.962500", "190935.422500", "190935.882500", "190936.342500", "190936.802500", "190937.262500", "190937.722500", "190938.182500", "190938.642500", "190939.102500", "190939.562500", "190940.022500", "190940.482500", "190940.942500", "190941.402500", "190941.862500", "190942.322500", "190942.782500", "190943.242500", "190943.702500", "190944.162500", "190944.622500", "190945.082500", "190945.542500", "190946.002500", "190946.462500", "190946.922500", "190947.382500", "190947.842500", "190948.302500", "190948.762500", "190949.222500", "190949.682500", "190950.142500", "190950.602500", "190951.062500", "190951.522500", "190951.982500", "190952.442500", "190952.902500", "190953.362500", "190953.822500", "190954.282500", "190954.742500", "190955.202500", "190955.662500", "190956.122500", "190956.582500", "190957.042500", "190957.502500", "190957.962500", "190958.422500", "190958.882500", "190959.342500", "190959.802500", "191000.262500", "191000.722500", "191001.182500", "191001.642500", "191002.102500", "191002.562500", "191003.022500", "191003.482500", "191003.942500", "191004.402500", "191004.862500", "191005.322500", "191005.782500", "191006.242500", "191006.702500", "191007.162500", "191007.622500", "191008.082500", "191008.542500", "191009.002500", "191009.462500", "191009.922500", "191010.382500", "191010.842500", "191011.302500", "191011.762500", "191012.222500", "191012.682500", "191013.142500", "191013.602500", "191014.062500", "191014.522500", "191014.982500", "191015.442500", "191015.902500", "191016.362500", "191016.822500", "191017.282500", "191017.742500", "191018.202500", "191018.662500", "191019.122500", "191019.582500", "191020.042500", "191020.502500", "191020.962500", "191021.422500", "191021.882500", "191022.342500", "191022.802500", "191023.262500", "191023.722500", "191024.182500", "191024.642500", "191025.102500", "191025.562500", "191026.022500", "191026.482500", "191026.942500", "191027.402500", "191027.862500", "191028.322500", "191028.782500", "191029.242500", "191029.702500", "191030.162500", "191030.622500", "191031.082500", "191031.542500", "191032.002500", "191032.462500", "191032.922500", "191033.382500", "191033.842500", "191034.302500", "191034.762500", "191035.222500", "191035.682500", "191036.142500", "191036.602500", "191037.062500", "191037.522500", "191037.982500", "191038.442500", "191038.902500", "191039.362500", "191039.822500", "191040.282500", "191040.742500", "191041.202500", "191041.662500", "191042.122500", "191042.582500", "191043.042500", "191043.502500", "191043.962500", "191044.422500", "191044.882500", "191045.342500", "191045.802500", "191046.262500", "191046.722500", "191047.182500", "191047.642500", "191048.102500", "191048.562500", "191049.022500", "191049.482500", "191049.942500", "191050.402500", "191050.862500", "191051.322500", "191051.782500", "191052.242500", "191052.702500", "191053.162500", "191053.622500", "191054.082500", "191054.542500", "191055.002500", "191055.462500", "191055.922500", "191056.382500", "191056.842500", "191057.302500", "191057.762500", "191058.222500", "191058.682500", "191059.142500", "191059.602500", "191100.062500", "191100.522500", "191100.982500", "191101.442500", "191101.902500", "191102.362500", "191102.822500", "191103.282500", "191103.742500", "191104.202500", "191104.662500", "191105.122500", "191105.582500", "191106.042500", "191106.502500", "191106.962500", "191107.422500", "191107.882500", "191108.342500", "191108.802500", "191109.262500", "191109.722500", "191110.182500", "191110.642500", "191111.102500", "191111.562500", "191112.022500", "191112.482500", "191112.942500", "191113.402500", "191113.862500", "191114.322500", "191114.782500", "191115.242500", "191115.702500", "191116.162500", "191116.622500", "191117.082500", "191117.542500", "191118.002500", "191118.462500", "191118.922500", "191119.382500", "191119.842500", "191120.302500", "191120.762500", "191121.222500", "191121.682500", "191122.142500", "191122.602500", "191123.062500", "191123.522500", "191123.982500", "191124.442500", "191124.902500", "191125.362500", "191125.822500", "191126.282500", "191126.742500", "191127.202500", "191127.662500", "191128.122500", "191128.582500", "191129.042500", "191129.502500", "191129.962500", "191130.422500", "191130.882500", "191131.342500", "191131.802500", "191132.262500", "191132.722500", "191133.182500", "191133.642500", "191134.102500", "191134.562500", "191135.022500", "191135.482500", "191135.942500", "191136.402500", "191136.862500", "191137.322500", "191137.782500", "191138.242500", "191138.702500", "191139.162500", "191139.622500", "191140.082500", "191140.542500", "191141.002500", "191141.462500", "191141.922500", "191142.382500", "191142.842500", "191143.302500", "191143.762500", "191144.222500", "191144.682500", "191145.142500", "191145.602500", "191146.062500", "191146.522500", "191146.982500", "191147.442500", "191147.902500", "191148.362500", "191148.822500", "191149.282500", "191149.742500", "191150.202500", "191150.662500", "191151.122500", "191151.582500", "191152.042500", "191152.502500", "191152.962500", "191153.422500", "191153.882500", "191154.342500", "191154.802500", "191155.262500", "191155.722500", "191156.182500", "191156.642500", "191157.102500", "191157.562500", "191158.022500", "191158.482500", "191158.942500", "191159.402500", "191159.862500", "191200.322500", "191200.782500", "191201.242500", "191201.702500", "191202.162500", "191202.622500", "191203.082500", "191203.542500", "191204.002500", "191204.462500", "191204.922500", "191205.382500", "191205.842500", "191206.302500", "191206.762500", "191207.222500", "191207.682500", "191208.142500", "191208.602500", "191209.062500", "191209.522500", "191209.982500", "191210.442500", "191210.902500", "191211.362500", "191211.822500", "191212.282500", "191212.742500", "191213.202500", "191213.662500", "191214.122500", "191214.582500", "191215.042500", "191215.502500", "191215.962500", "191216.422500", "191216.882500", "191217.342500", "191217.802500", "191218.262500", "191218.722500", "191219.182500", "191219.642500", "191220.102500", "191220.562500", "191221.022500", "191221.482500", "191221.942500", "191222.402500", "191222.862500", "191223.322500", "191223.782500", "191224.242500", "191224.702500", "191225.162500", "191225.622500", "191226.082500", "191226.542500", "191227.002500", "191227.462500", "191227.922500", "191228.382500", "191228.842500", "191229.302500", "191229.762500", "191230.222500", "191230.682500", "191231.142500", "191231.602500", "191232.062500", "191232.522500", "191232.982500", "191233.442500", "191233.902500", "191234.362500", "191234.822500", "191235.282500", "191235.742500", "191236.202500", "191236.662500", "191237.122500", "191237.582500", "191238.042500", "191238.502500", "191238.962500", "191239.422500", "191239.882500", "191240.342500", "191240.802500", "191241.262500", "191241.722500", "191242.182500", "191242.642500", "191243.102500", "191243.562500", "191244.022500", "191244.482500", "191244.942500", "191245.402500", "191245.862500", "191246.322500", "191246.782500", "191247.242500", "191247.702500", "191248.162500", "191248.622500", "191249.082500", "191249.542500", "191250.002500", "191250.462500", "191250.922500", "191251.382500", "191251.842500", "191252.302500", "191252.762500", "191253.222500", "191253.682500", "191254.142500", "191254.602500", "191255.062500", "191255.522500", "191255.982500", "191256.442500"],
