{
  "AcquisitionMatrixPE": 140,
  "AcquisitionNumber": 1,
  "AcquisitionTime": "14:08:40.085000",
  "BandwidthPerPixelPhaseEncode": 10.352,
  "BaseResolution": 140,
  "BodyPartExamined": "BRAIN",
  "ConsistencyInfo": "N4_VE11E_LATEST_20181129",
  "ConversionSoftware": "dcm2niix",
  "ConversionSoftwareVersion": "v1.0.20201102",
  "DerivedVendorReportedEchoSpacing": 0.000689998,
  "DeviceSerialNumber": "66112",
  "DiffusionScheme": "Monopolar",
  "DwellTime": 2.1e-06,
  "EchoTime": 0.0884,
  "EchoTrainLength": 105,
  "EffectiveEchoSpacing": 0.000689998,
  "FlipAngle": 90,
  "ImageComments": "Unaliased MB3/PE3 SENSE1",
  "ImageOrientationPatientDICOM": [0.998294, 0.0498845, 0.0303263, -0.0533667, 0.990384, 0.127641],
  "ImageType": [
    "ORIGINAL",
    "PRIMARY",
    "DIFFUSION",
    "NONE",
    "MB",
    "ND",
    "MOSAIC"
],
  "ImagingFrequency": 123.252,
  "InPlanePhaseEncodingDirectionDICOM": "COL",
  "InstitutionAddress": "Maynard 3,Hanover,NH,US,03755",
  "InstitutionName": "Dartmouth College - PBS",
  "InstitutionalDepartmentName": "Department",
  "MRAcquisitionType": "2D",
  "MagneticFieldStrength": 3,
  "Manufacturer": "Siemens",
  "ManufacturersModelName": "Prisma",
  "Modality": "MR",
  "MultibandAccelerationFactor": 3,
  "PartialFourier": 0.75,
  "PatientPosition": "HFS",
  "PercentPhaseFOV": 100,
  "PercentSampling": 100,
  "PhaseEncodingDirection": "j-",
  "PhaseEncodingSteps": 105,
  "PhaseResolution": 1,
  "PixelBandwidth": 1700,
  "ProcedureStepDescription": "Wager_Wager^1076_spacetop",
  "ProtocolName": "dwi_acq-96dir-6b0-mb",
  "PulseSequenceDetails": "%CustomerSeq%\\cmrr_mbep2d_diff",
  "ReceiveCoilActiveElements": "HEA;HEP",
  "ReceiveCoilName": "Head_32",
  "ReconMatrixPE": 140,
  "RepetitionTime": 4.11,
  "SAR": 0.269302,
  "ScanOptions": "PFP\\FS",
  "ScanningSequence": "EP",
  "SequenceName": "ep_b5#1",
  "SequenceVariant": "SK\\SS",
  "SeriesDescription": "dwi_acq-96dir-6b0-mb",
  "SeriesNumber": 8,
  "ShimSetting": [4152, -7794, -7184, 541, -62, -231, -148, 60],
  "SliceThickness": 1.7,
  "SliceTiming": [0, 2.12, 0.1525, 2.2725, 0.3025, 2.4225, 0.455, 2.575, 0.605, 2.7275, 0.7575, 2.8775, 0.91, 3.03, 1.06, 3.18, 1.2125, 3.3325, 1.3625, 3.485, 1.515, 3.635, 1.665, 3.7875, 1.8175, 3.9375, 1.97, 0, 2.12, 0.1525, 2.2725, 0.3025, 2.4225, 0.455, 2.575, 0.605, 2.7275, 0.7575, 2.8775, 0.91, 3.03, 1.06, 3.18, 1.2125, 3.3325, 1.3625, 3.485, 1.515, 3.635, 1.665, 3.7875, 1.8175, 3.9375, 1.97, 0, 2.12, 0.1525, 2.2725, 0.3025, 2.4225, 0.455, 2.575, 0.605, 2.7275, 0.7575, 2.8775, 0.91, 3.03, 1.06, 3.18, 1.2125, 3.3325, 1.3625, 3.485, 1.515, 3.635, 1.665, 3.7875, 1.8175, 3.9375, 1.97],
  "SoftwareVersions": "syngo MR E11",
  "SpacingBetweenSlices": 1.7,
  "StationName": "AWP66112",
  "TotalReadoutTime": 0.0959097,
  "TxRefAmp": 263.489,
  "WipMemBlock": "c00fb04c-8572-435d-852f-483345c39001||Sequence: R016 ve11e/master r/434b28f1; Aug  7 2019 19:06:17 by eja",
  "dcmmeta_affine": [
    [-1.7113620042800903, -0.09148572385311127, 0.0402345135807991, 128.1493682861328],
    [-0.08551624417304993, 1.6978005170822144, 0.21937133371829987, -95.47972106933594],
    [0.05198795348405838, -0.21881356835365295, 1.6853063106536865, -30.796472549438477],
    [0.0, 0.0, 0.0, 1.0]
],
  "dcmmeta_reorient_transform": [
    [0.0, -1.0, 0.0, 139.0],
    [1.0, 0.0, 0.0, 0.0],
    [0.0, 0.0, 1.0, 0.0],
    [0.0, 0.0, 0.0, 1.0]
],
  "dcmmeta_shape": [140, 140, 81, 103],
  "dcmmeta_slice_dim": 2,
  "dcmmeta_version": 0.6,
  "global": {
    "const": {
      "AccessionNumber": "A004186",
      "AcquisitionMatrix": [140, 0, 0, 140],
      "AngioFlag": "N",
      "BitsAllocated": 16,
      "BitsStored": 16,
      "BodyPartExamined": "BRAIN",
      "Columns": 1260,
      "EchoNumbers": 1,
      "EchoTime": 88.4,
      "EchoTrainLength": 105,
      "FlipAngle": 90.0,
      "HighBit": 15,
      "ImageOrientationPatient": [0.99829447277605, 0.04988447406392, 0.03032630660272, -0.0533666717994, 0.99038361779575, 0.12764124702797],
      "ImagePositionPatient": [-1022.5635450595, -1139.1719300919, -212.86041081834],
      "ImageType": [
        "ORIGINAL",
        "PRIMARY",
        "DIFFUSION",
        "NONE",
        "MB",
        "ND",
        "MOSAIC"
],
      "ImagedNucleus": "1H",
      "ImagingFrequency": 123.252134,
      "InPlanePhaseEncodingDirection": "COL",
      "MRAcquisitionType": "2D",
      "MagneticFieldStrength": 3.0,
      "Manufacturer": "SIEMENS",
      "ManufacturerModelName": "Prisma",
      "Modality": "MR",
      "NumberOfAverages": 1.0,
      "NumberOfPhaseEncodingSteps": 105,
      "PercentPhaseFieldOfView": 100.0,
      "PercentSampling": 100.0,
      "PerformedProcedureStepStartTime": "135301.859000",
      "PhotometricInterpretation": "MONOCHROME2",
      "PixelBandwidth": 1700.0,
      "PixelRepresentation": 0,
      "PixelSpacing": [1.7142857313156, 1.7142857313156],
      "ProtocolName": "dwi_acq-96dir-6b0-mb",
      "RepetitionTime": 4110.0,
      "Rows": 1260,
      "SAR": 0.26930175877624,
      "SamplesPerPixel": 1,
      "ScanOptions": [
        "PFP",
        "FS"
],
      "ScanningSequence": "EP",
      "SequenceVariant": [
        "SK",
        "SS"
],
      "SeriesDescription": "dwi_acq-96dir-6b0-mb",
      "SeriesNumber": 8,
      "SeriesTime": "141007.549000",
      "SliceLocation": -39.818220714795,
      "SliceThickness": 1.7000000476837,
      "SmallestImagePixelValue": 0,
      "SoftwareVersions": "syngo MR E11",
      "SpacingBetweenSlices": 1.6999999874124,
      "SpecificCharacterSet": "ISO_IR 100",
      "StudyID": "1",
      "StudyTime": "135301.796000",
      "TransmitCoilName": "Body",
      "VariableFlipAngleFlag": "N",
      "WindowCenterWidthExplanation": "Algo1"
    },
    "slices": {}
  },
  "time": {
    "samples": {
      "AcquisitionNumber": [1, 2, 3, 4, 5, 6, 7, 8, 9, 10, 11, 12, 13, 14, 15, 16, 17, 18, 19, 20, 21, 22, 23, 24, 25, 26, 27, 28, 29, 30, 31, 32, 33, 34, 35, 36, 37, 38, 39, 40, 41, 42, 43, 44, 45, 46, 47, 48, 49, 50, 51, 52, 53, 54, 55, 56, 57, 58, 59, 60, 61, 62, 63, 64, 65, 66, 67, 68, 69, 70, 71, 72, 73, 74, 75, 76, 77, 78, 79, 80, 81, 82, 83, 84, 85, 86, 87, 88, 89, 90, 91, 92, 93, 94, 95, 96, 97, 98, 99, 100, 101, 102, 103],
      "AcquisitionTime": ["140840.085000", "140844.195000", "140848.305000", "140852.415000", "140856.525000", "140900.635000", "140904.745000", "140908.855000", "140912.965000", "140917.075000", "140921.185000", "140925.295000", "140929.405000", "140933.515000", "140937.625000", "140941.735000", "140945.845000", "140949.955000", "140954.065000", "140958.175000", "141002.285000", "141006.395000", "141010.505000", "141014.615000", "141018.725000", "141022.835000", "141026.945000", "141031.055000", "141035.165000", "141039.275000", "141043.385000", "141047.495000", "141051.605000", "141055.715000", "141059.825000", "141103.935000", "141108.045000", "141112.155000", "141116.265000", "141120.375000", "141124.485000", "141128.595000", "141132.705000", "141136.815000", "141140.925000", "141145.035000", "141149.145000", "141153.255000", "141157.365000", "141201.475000", "141205.585000", "141209.695000", "141213.805000", "141217.915000", "141222.025000", "141226.135000", "141230.245000", "141234.355000", "141238.465000", "141242.575000", "141246.685000", "141250.795000", "141254.905000", "141259.015000", "141303.125000", "141307.235000", "141311.345000", "141315.455000", "141319.565000", "141323.675000", "141327.785000", "141331.895000", "141336.005000", "141340.115000", "141344.225000", "141348.335000", "141352.445000", "141356.555000", "141400.665000", "141404.775000", "141408.885000", "141412.995000", "141417.105000", "141421.215000", "141425.325000", "141429.435000", "141433.545000", "141437.655000", "141441.765000", "141445.875000", "141449.985000", "141454.095000", "141458.205000", "141502.315000", "141506.425000", "141510.535000", "141514.645000", "141518.755000", "141522.865000", "141526.975000", "141531.085000", "141535.195000", "141539.305000"],
      "ContentTime": ["141007.553000", "141007.556000", "141007.559000", "141007.562000", "141007.566000", "141007.569000", "141007.572000", "141007.575000", "141007.578000", "141007.581000", "141007.584000", "141007.587000", "141007.590000", "141007.593000", "141007.604000", "141007.607000", "141007.610000", "141007.613000", "141007.616000", "141007.619000", "141007.622000", "141147.547000", "141147.550000", "141147.553000", "141147.556000", "141147.567000", "141147.570000", "141147.573000", "141147.576000", "141147.579000", "141147.582000", "141147.585000", "141147.589000", "141147.591000", "141147.595000", "141147.598000", "141147.601000", "141147.604000", "141147.607000", "141147.610000", "141147.613000", "141147.616000", "141147.619000", "141147.622000", "141147.625000", "141207.548000", "141207.551000", "141207.554000", "141207.557000", "141207.560000", "141347.547000", "141347.558000", "141347.561000", "141347.564000", "141347.567000", "141347.570000", "141347.573000", "141347.577000", "141347.580000", "141347.583000", "141347.586000", "141347.589000", "141347.592000", "141347.596000", "141347.599000", "141347.601000", "141347.604000", "141347.607000", "141347.611000", "141347.613000", "141347.616000", "141347.619000", "141347.622000", "141347.625000", "141507.548000", "141507.551000", "141507.554000", "141507.558000", "141507.561000", "141507.564000", "141507.567000", "141507.570000", "141507.576000", "141507.580000", "141507.583000", "141507.586000", "141507.589000", "141507.592000", "141507.595000", "141507.599000", "141507.602000", "141507.605000", "141507.608000", "141507.611000", "141543.969000", "141543.973000", "141543.976000", "141543.979000", "141543.982000", "141543.985000", "141543.988000", "141543.991000", "141543.994000"],
      "InstanceCreationTime": ["141007.553000", "141007.556000", "141007.559000", "141007.562000", "141007.566000", "141007.569000", "141007.572000", "141007.575000", "141007.578000", "141007.581000", "141007.584000", "141007.587000", "141007.590000", "141007.593000", "141007.604000", "141007.607000", "141007.610000", "141007.613000", "141007.616000", "141007.619000", "141007.622000", "141147.547000", "141147.550000", "141147.553000", "141147.556000", "141147.567000", "141147.570000", "141147.573000", "141147.576000", "141147.579000", "141147.582000", "141147.585000", "141147.589000", "141147.591000", "141147.595000", "141147.598000", "141147.601000", "141147.604000", "141147.607000", "141147.610000", "141147.613000", "141147.616000", "141147.619000", "141147.622000", "141147.625000", "141207.548000", "141207.551000", "141207.554000", "141207.557000", "141207.560000", "141347.547000", "141347.558000", "141347.561000", "141347.564000", "141347.567000", "141347.570000", "141347.573000", "141347.577000", "141347.580000", "141347.583000", "141347.586000", "141347.589000", "141347.592000", "141347.596000", "141347.599000", "141347.601000", "141347.604000", "141347.607000", "141347.611000", "141347.613000", "141347.616000", "141347.619000", "141347.622000", "141347.625000", "141507.548000", "141507.551000", "141507.554000", "141507.558000", "141507.561000", "141507.564000", "141507.567000", "141507.570000", "141507.576000", "141507.580000", "141507.583000", "141507.586000", "141507.589000", "141507.592000", "141507.595000", "141507.599000", "141507.602000", "141507.605000", "141507.608000", "141507.611000", "141543.969000", "141543.973000", "141543.976000", "141543.979000", "141543.982000", "141543.985000", "141543.988000", "141543.991000", "141543.994000"],
      "InstanceNumber": [1, 2, 3, 4, 5, 6, 7, 8, 9, 10, 11, 12, 13, 14, 15, 16, 17, 18, 19, 20, 21, 22, 23, 24, 25, 26, 27, 28, 29, 30, 31, 32, 33, 34, 35, 36, 37, 38, 39, 40, 41, 42, 43, 44, 45, 46, 47, 48, 49, 50, 51, 52, 53, 54, 55, 56, 57, 58, 59, 60, 61, 62, 63, 64, 65, 66, 67, 68, 69, 70, 71, 72, 73, 74, 75, 76, 77, 78, 79, 80, 81, 82, 83, 84, 85, 86, 87, 88, 89, 90, 91, 92, 93, 94, 95, 96, 97, 98, 99, 100, 101, 102, 103],
      "LargestImagePixelValue": [65535, 65535, 65535, 65535, 63702, 64477, 62824, 64489, 65535, 43945, 46213, 45624, 42861, 46197, 44949, 43471, 42507, 45043, 42743, 43543, 43723, 43650, 45572, 43980, 65535, 20951, 23049, 22174, 21170, 22327, 24436, 21707, 25922, 21172, 23190, 23288, 20921, 23284, 22742, 23489, 65535, 11826, 14947, 14222, 15084, 11907, 11955, 13409, 13081, 11600, 14203, 14840, 11725, 11911, 12857, 12170, 12624, 13065, 14245, 14052, 12698, 14800, 13246, 12610, 12616, 13293, 12447, 13192, 13754, 12946, 12602, 12636, 13732, 65535, 14954, 13041, 12332, 12260, 13306, 13660, 12566, 15491, 12568, 12989, 13081, 12768, 15401, 12235, 13447, 14556, 12647, 14642, 15479, 12261, 14162, 13020, 12664, 13466, 14056, 13206, 12792, 13424, 65535],
      "SequenceName": [
 "ep_b5#1",
 "ep_b5#1",
 "ep_b500#2",
 "ep_b500#3",
 "ep_b500#4",
 "ep_b505#5",
 "ep_b495#6",
 "ep_b500#7",
 "ep_b5#8",
 "ep_b1000#9",
 "ep_b1005#10",
 "ep_b995#11",
 "ep_b1005#12",
 "ep_b995#13",
 "ep_b995#14",
 "ep_b1005#15",
 "ep_b1000#16",
 "ep_b1000#17",
 "ep_b995#18",
 "ep_b1000#19",
 "ep_b995#20",
 "ep_b1000#21",
 "ep_b1005#22",
 "ep_b1005#23",
 "ep_b5#24",
 "ep_b2000#25",
 "ep_b1995#26",
 "ep_b1990#27",
 "ep_b1995#28",
 "ep_b2005#29",
 "ep_b2010#30",
 "ep_b2005#31",
 "ep_b2005#32",
 "ep_b1995#33",
 "ep_b1995#34",
 "ep_b1995#35",
 "ep_b2005#36",
 "ep_b2000#37",
 "ep_b2010#38",
 "ep_b1995#39",
 "ep_b5#40",
 "ep_b3000#41",
 "ep_b3005#42",
 "ep_b3010#43",
 "ep_b3010#44",
 "ep_b3000#45",
 "ep_b3000#46",
 "ep_b2990#47",
 "ep_b3005#48",
 "ep_b3000#49",
 "ep_b2990#50",
 "ep_b2990#51",
 "ep_b2995#52",
 "ep_b2995#53",
 "ep_b3010#54",
 "ep_b3000#55",
 "ep_b2995#56",
 "ep_b3000#57",
 "ep_b2990#58",
 "ep_b2990#59",
 "ep_b3000#60",
 "ep_b2990#61",
 "ep_b2990#62",
 "ep_b2995#63",
 "ep_b3005#64",
 "ep_b3010#65",
 "ep_b3000#66",
 "ep_b3005#67",
 "ep_b3010#68",
 "ep_b3005#69",
 "ep_b3005#70",
 "ep_b3005#71",
 "ep_b2990#72",
 "ep_b5#73",
 "ep_b3010#74",
 "ep_b3000#75",
 "ep_b3005#76",
 "ep_b3005#77",
 "ep_b2995#78",
 "ep_b3005#79",
 "ep_b2995#80",
 "ep_b3010#81",
 "ep_b3010#82",
 "ep_b3005#83",
 "ep_b3000#84",
 "ep_b3000#85",
 "ep_b3010#86",
 "ep_b3010#87",
 "ep_b2990#88",
 "ep_b3010#89",
 "ep_b2995#90",
 "ep_b2995#91",
 "ep_b2995#92",
 "ep_b2995#93",
 "ep_b3005#94",
 "ep_b3005#95",
 "ep_b2995#96",
 "ep_b3000#97",
 "ep_b2990#98",
 "ep_b3000#99",
 "ep_b2995#100",
 "ep_b2995#101",
 "ep_b5#102"
],
      "WindowCenter": [10186.0, 10199.0, 7414.0, 7488.0, 7438.0, 7399.0, 7453.0, 7467.0, 10194.0, 5582.0, 5593.0, 5653.0, 5571.0, 5631.0, 5592.0, 5565.0, 5638.0, 5634.0, 5605.0, 5589.0, 5639.0, 5594.0, 5609.0, 5632.0, 10185.0, 3469.0, 3543.0, 3489.0, 3592.0, 3474.0, 3507.0, 3503.0, 3529.0, 3495.0, 3599.0, 3574.0, 3444.0, 3528.0, 3538.0, 3522.0, 10188.0, 2374.0, 2443.0, 2469.0, 2480.0, 2387.0, 2430.0, 2467.0, 2392.0, 2359.0, 2423.0, 2451.0, 2431.0, 2438.0, 2458.0, 2381.0, 2430.0, 2421.0, 2494.0, 2455.0, 2423.0, 2478.0, 2523.0, 2469.0, 2455.0, 2496.0, 2412.0, 2453.0, 2452.0, 2411.0, 2369.0, 2497.0, 2492.0, 10126.0, 2450.0, 2434.0, 2362.0, 2410.0, 2406.0, 2433.0, 2364.0, 2448.0, 2444.0, 2392.0, 2408.0, 2409.0, 2430.0, 2355.0, 2406.0, 2434.0, 2415.0, 2440.0, 2470.0, 2428.0, 2446.0, 2441.0, 2482.0, 2417.0, 2451.0, 2388.0, 2427.0, 2509.0, 10118.0],
      "WindowWidth": [22718.0, 22759.0, 15676.0, 15815.0, 15731.0, 15690.0, 15778.0, 15788.0, 22742.0, 11979.0, 12056.0, 12119.0, 11990.0, 12090.0, 12011.0, 11971.0, 12088.0, 12092.0, 12031.0, 11992.0, 12107.0, 11986.0, 12061.0, 12072.0, 22724.0, 7874.0, 8016.0, 7946.0, 8110.0, 7909.0, 7991.0, 7929.0, 8009.0, 7938.0, 8129.0, 8084.0, 7843.0, 7987.0, 8021.0, 7964.0, 22731.0, 5740.0, 5850.0, 5924.0, 5939.0, 5771.0, 5859.0, 5910.0, 5758.0, 5709.0, 5820.0, 5878.0, 5859.0, 5889.0, 5910.0, 5742.0, 5857.0, 5818.0, 5962.0, 5893.0, 5821.0, 5930.0, 6027.0, 5926.0, 5901.0, 5977.0, 5812.0, 5895.0, 5887.0, 5810.0, 5728.0, 5986.0, 5957.0, 22571.0, 5875.0, 5841.0, 5692.0, 5798.0, 5783.0, 5843.0, 5697.0, 5875.0, 5886.0, 5762.0, 5794.0, 5797.0, 5831.0, 5694.0, 5784.0, 5842.0, 5825.0, 5835.0, 5900.0, 5850.0, 5868.0, 5878.0, 5956.0, 5804.0, 5880.0, 5737.0, 5845.0, 6006.0, 22541.0]
    },
    "slices": {}
  }
}