{
  "AcquisitionMatrixPE": 82,
  "AcquisitionNumber": 1,
  "AcquisitionTime": "10:57:57.842500",
  "BandwidthPerPixelPhaseEncode": 24.888,
  "BaseResolution": 82,
  "BodyPartExamined": "BRAIN",
  "ConsistencyInfo": "N4_VE11E_LATEST_20181129",
  "ConversionSoftware": "dcm2niix",
  "ConversionSoftwareVersion": "v1.0.20201102",
  "DerivedVendorReportedEchoSpacing": 0.00049,
  "DeviceSerialNumber": "66112",
  "DwellTime": 2e-06,
  "EchoTime": 0.0272,
  "EchoTrainLength": 82,
  "EffectiveEchoSpacing": 0.00049,
  "FlipAngle": 44,
  "ImageComments": "Unaliased MB8/PE3",
  "ImageOrientationPatientDICOM": [0.999525, -0.0153686, -0.0267039, 0.0188429, 0.990646, 0.135152],
  "ImageType": [
    "ORIGINAL",
    "PRIMARY",
    "M",
    "MB",
    "ND",
    "NORM",
    "MOSAIC"
],
  "ImagingFrequency": 123.259,
  "InPlanePhaseEncodingDirectionDICOM": "COL",
  "InstitutionAddress": "Maynard 3,Hanover,NH,US,03755",
  "InstitutionName": "Dartmouth College - PBS",
  "InstitutionalDepartmentName": "Department",
  "MRAcquisitionType": "2D",
  "MagneticFieldStrength": 3,
  "Manufacturer": "Siemens",
  "ManufacturersModelName": "Prisma",
  "Modality": "MR",
  "MultibandAccelerationFactor": 8,
  "PartialFourier": 1,
  "PatientPosition": "HFS",
  "PercentPhaseFOV": 100,
  "PercentSampling": 100,
  "PhaseEncodingDirection": "j-",
  "PhaseEncodingSteps": 82,
  "PhaseResolution": 1,
  "PixelBandwidth": 3050,
  "ProcedureStepDescription": "Wager_Wager^1076_spacetop",
  "ProtocolName": "func_run-01_task-social_acq-ap-mb8",
  "PulseSequenceDetails": "%CustomerSeq%\\cmrr_mbep2d_bold",
  "ReceiveCoilActiveElements": "HEA;HEP",
  "ReceiveCoilName": "Head_32",
  "ReconMatrixPE": 82,
  "RepetitionTime": 0.46,
  "SAR": 0.14141,
  "ScanOptions": "FS",
  "ScanningSequence": "EP",
  "SequenceName": "epfid2d1_82",
  "SequenceVariant": "SK\\SS",
  "SeriesDescription": "func_run-01_task-social_acq-ap-mb8",
  "SeriesNumber": 12,
  "ShimSetting": [4238, -7807, -7217, 308, -68, -21, 34, 76],
  "SliceThickness": 2.7,
  "SliceTiming": [0, 0.2525, 0.0625, 0.315, 0.1275, 0.3775, 0.19, 0, 0.2525, 0.0625, 0.315, 0.1275, 0.3775, 0.19, 0, 0.2525, 0.0625, 0.315, 0.1275, 0.3775, 0.19, 0, 0.2525, 0.0625, 0.315, 0.1275, 0.3775, 0.19, 0, 0.2525, 0.0625, 0.315, 0.1275, 0.3775, 0.19, 0, 0.2525, 0.0625, 0.315, 0.1275, 0.3775, 0.19, 0, 0.2525, 0.0625, 0.315, 0.1275, 0.3775, 0.19, 0, 0.2525, 0.0625, 0.315, 0.1275, 0.3775, 0.19],
  "SoftwareVersions": "syngo MR E11",
  "SpacingBetweenSlices": 2.7,
  "StationName": "AWP66112",
  "TaskName": "social",
  "TotalReadoutTime": 0.03969,
  "TxRefAmp": 302.649,
  "WipMemBlock": "4622c2fa-1875-43a4-bf45-1ac3e376b029||Sequence: R016 ve11e/master r/434b28f1; Aug  7 2019 18:53:46 by eja",
  "dcmmeta_affine": [
    [-2.6816532611846924, 0.05055401101708412, -0.06581804156303406, 113.044189453125],
    [0.04123278707265854, 2.657829999923706, 0.3660956919193268, -107.50492095947266],
    [-0.07164473086595535, -0.3626028895378113, 2.67425537109375, -32.792057037353516],
    [0.0, 0.0, 0.0, 1.0]
],
  "dcmmeta_reorient_transform": [
    [0.0, -1.0, 0.0, 81.0],
    [1.0, 0.0, 0.0, 0.0],
    [0.0, 0.0, 1.0, 0.0],
    [0.0, 0.0, 0.0, 1.0]
],
  "dcmmeta_shape": [82, 82, 56, 872],
  "dcmmeta_slice_dim": 2,
  "dcmmeta_version": 0.6,
  "global": {
    "const": {
      "AccessionNumber": "A004540",
      "AcquisitionMatrix": [82, 0, 0, 82],
      "AngioFlag": "N",
      "BitsAllocated": 16,
      "BitsStored": 16,
      "BodyPartExamined": "BRAIN",
      "Columns": 656,
      "EchoNumbers": 1,
      "EchoTime": 27.2,
      "EchoTrainLength": 82,
      "FlipAngle": 44.0,
      "HighBit": 15,
      "ImageOrientationPatient": [0.9995252403074, -0.0153685834687, -0.0267039441019, 0.01884285780678, 0.99064569276604, 0.13515198153848],
      "ImagePositionPatient": [-901.28251565027, -858.74270150845, -145.66788346538],
      "ImageType": [
        "ORIGINAL",
        "PRIMARY",
        "M",
        "MB",
        "ND",
        "NORM",
        "MOSAIC"
],
      "ImagedNucleus": "1H",
      "ImagingFrequency": 123.258998,
      "InPlanePhaseEncodingDirection": "COL",
      "MRAcquisitionType": "2D",
      "MagneticFieldStrength": 3.0,
      "Manufacturer": "SIEMENS",
      "ManufacturerModelName": "Prisma",
      "Modality": "MR",
      "NumberOfAverages": 1.0,
      "NumberOfPhaseEncodingSteps": 82,
      "PercentPhaseFieldOfView": 100.0,
      "PercentSampling": 100.0,
      "PerformedProcedureStepStartTime": "103655.341000",
      "PhotometricInterpretation": "MONOCHROME2",
      "PixelBandwidth": 3050.0,
      "PixelRepresentation": 0,
      "PixelSpacing": [2.6829268932343, 2.6829268932343],
      "ProtocolName": "func_run-01_task-social_acq-ap-mb8",
      "RepetitionTime": 460.0,
      "Rows": 656,
      "SAR": 0.14140981502229,
      "SamplesPerPixel": 1,
      "ScanOptions": "FS",
      "ScanningSequence": "EP",
      "SequenceName": "epfid2d1_82",
      "SequenceVariant": [
        "SK",
        "SS"
],
      "SeriesDescription": "func_run-01_task-social_acq-ap-mb8",
      "SeriesNumber": 12,
      "SeriesTime": "105811.832000",
      "SliceLocation": -49.811768330643,
      "SliceThickness": 2.7000000476837,
      "SmallestImagePixelValue": 0,
      "SoftwareVersions": "syngo MR E11",
      "SpacingBetweenSlices": 2.7000000442384,
      "SpecificCharacterSet": "ISO_IR 100",
      "StudyID": "1",
      "StudyTime": "103655.278000",
      "TransmitCoilName": "Body",
      "VariableFlipAngleFlag": "N",
      "WindowCenterWidthExplanation": "Algo1"
    },
    "slices": {}
  },
  "time": {
    "samples": {
      "AcquisitionNumber": [1, 2, 3, 4, 5, 6, 7, 8, 9, 10, 11, 12, 13, 14, 15, 16, 17, 18, 19, 20, 21, 22, 23, 24, 25, 26, 27, 28, 29, 30, 31, 32, 33, 34, 35, 36, 37, 38, 39, 40, 41, 42, 43, 44, 45, 46, 47, 48, 49, 50, 51, 52, 53, 54, 55, 56, 57, 58, 59, 60, 61, 62, 63, 64, 65, 66, 67, 68, 69, 70, 71, 72, 73, 74, 75, 76, 77, 78, 79, 80, 81, 82, 83, 84, 85, 86, 87, 88, 89, 90, 91, 92, 93, 94, 95, 96, 97, 98, 99, 100, 101, 102, 103, 104, 105, 106, 107, 108, 109, 110, 111, 112, 113, 114, 115, 116, 117, 118, 119, 120, 121, 122, 123, 124, 125, 126, 127, 128, 129, 130, 131, 132, 133, 134, 135, 136, 137, 138, 139, 140, 141, 142, 143, 144, 145, 146, 147, 148, 149, 150, 151, 152, 153, 154, 155, 156, 157, 158, 159, 160, 161, 162, 163, 164, 165, 166, 167, 168, 169, 170, 171, 172, 173, 174, 175, 176, 177, 178, 179, 180, 181, 182, 183, 184, 185, 186, 187, 188, 189, 190, 191, 192, 193, 194, 195, 196, 197, 198, 199, 200, 201, 202, 203, 204, 205, 206, 207, 208, 209, 210, 211, 212, 213, 214, 215, 216, 217, 218, 219, 220, 221, 222, 223, 224, 225, 226, 227, 228, 229, 230, 231, 232, 233, 234, 235, 236, 237, 238, 239, 240, 241, 242, 243, 244, 245, 246, 247, 248, 249, 250, 251, 252, 253, 254, 255, 256, 257, 258, 259, 260, 261, 262, 263, 264, 265, 266, 267, 268, 269, 270, 271, 272, 273, 274, 275, 276, 277, 278, 279, 280, 281, 282, 283, 284, 285, 286, 287, 288, 289, 290, 291, 292, 293, 294, 295, 296, 297, 298, 299, 300, 301, 302, 303, 304, 305, 306, 307, 308, 309, 310, 311, 312, 313, 314, 315, 316, 317, 318, 319, 320, 321, 322, 323, 324, 325, 326, 327, 328, 329, 330, 331, 332, 333, 334, 335, 336, 337, 338, 339, 340, 341, 342, 343, 344, 345, 346, 347, 348, 349, 350, 351, 352, 353, 354, 355, 356, 357, 358, 359, 360, 361, 362, 363, 364, 365, 366, 367, 368, 369, 370, 371, 372, 373, 374, 375, 376, 377, 378, 379, 380, 381, 382, 383, 384, 385, 386, 387, 388, 389, 390, 391, 392, 393, 394, 395, 396, 397, 398, 399, 400, 401, 402, 403, 404, 405, 406, 407, 408, 409, 410, 411, 412, 413, 414, 415, 416, 417, 418, 419, 420, 421, 422, 423, 424, 425, 426, 427, 428, 429, 430, 431, 432, 433, 434, 435, 436, 437, 438, 439, 440, 441, 442, 443, 444, 445, 446, 447, 448, 449, 450, 451, 452, 453, 454, 455, 456, 457, 458, 459, 460, 461, 462, 463, 464, 465, 466, 467, 468, 469, 470, 471, 472, 473, 474, 475, 476, 477, 478, 479, 480, 481, 482, 483, 484, 485, 486, 487, 488, 489, 490, 491, 492, 493, 494, 495, 496, 497, 498, 499, 500, 501, 502, 503, 504, 505, 506, 507, 508, 509, 510, 511, 512, 513, 514, 515, 516, 517, 518, 519, 520, 521, 522, 523, 524, 525, 526, 527, 528, 529, 530, 531, 532, 533, 534, 535, 536, 537, 538, 539, 540, 541, 542, 543, 544, 545, 546, 547, 548, 549, 550, 551, 552, 553, 554, 555, 556, 557, 558, 559, 560, 561, 562, 563, 564, 565, 566, 567, 568, 569, 570, 571, 572, 573, 574, 575, 576, 577, 578, 579, 580, 581, 582, 583, 584, 585, 586, 587, 588, 589, 590, 591, 592, 593, 594, 595, 596, 597, 598, 599, 600, 601, 602, 603, 604, 605, 606, 607, 608, 609, 610, 611, 612, 613, 614, 615, 616, 617, 618, 619, 620, 621, 622, 623, 624, 625, 626, 627, 628, 629, 630, 631, 632, 633, 634, 635, 636, 637, 638, 639, 640, 641, 642, 643, 644, 645, 646, 647, 648, 649, 650, 651, 652, 653, 654, 655, 656, 657, 658, 659, 660, 661, 662, 663, 664, 665, 666, 667, 668, 669, 670, 671, 672, 673, 674, 675, 676, 677, 678, 679, 680, 681, 682, 683, 684, 685, 686, 687, 688, 689, 690, 691, 692, 693, 694, 695, 696, 697, 698, 699, 700, 701, 702, 703, 704, 705, 706, 707, 708, 709, 710, 711, 712, 713, 714, 715, 716, 717, 718, 719, 720, 721, 722, 723, 724, 725, 726, 727, 728, 729, 730, 731, 732, 733, 734, 735, 736, 737, 738, 739, 740, 741, 742, 743, 744, 745, 746, 747, 748, 749, 750, 751, 752, 753, 754, 755, 756, 757, 758, 759, 760, 761, 762, 763, 764, 765, 766, 767, 768, 769, 770, 771, 772, 773, 774, 775, 776, 777, 778, 779, 780, 781, 782, 783, 784, 785, 786, 787, 788, 789, 790, 791, 792, 793, 794, 795, 796, 797, 798, 799, 800, 801, 802, 803, 804, 805, 806, 807, 808, 809, 810, 811, 812, 813, 814, 815, 816, 817, 818, 819, 820, 821, 822, 823, 824, 825, 826, 827, 828, 829, 830, 831, 832, 833, 834, 835, 836, 837, 838, 839, 840, 841, 842, 843, 844, 845, 846, 847, 848, 849, 850, 851, 852, 853, 854, 855, 856, 857, 858, 859, 860, 861, 862, 863, 864, 865, 866, 867, 868, 869, 870, 871, 872],
      "AcquisitionTime": ["105757.842500", "105758.302500", "105758.762500", "105759.222500", "105759.682500", "105800.142500", "105800.602500", "105801.062500", "105801.522500", "105801.982500", "105802.442500", "105802.902500", "105803.362500", "105803.822500", "105804.282500", "105804.742500", "105805.202500", "105805.662500", "105806.122500", "105806.582500", "105807.042500", "105807.502500", "105807.962500", "105808.422500", "105808.882500", "105809.342500", "105809.802500", "105810.262500", "105810.722500", "105811.182500", "105811.642500", "105812.102500", "105812.562500", "105813.022500", "105813.482500", "105813.942500", "105814.402500", "105814.862500", "105815.322500", "105815.782500", "105816.242500", "105816.702500", "105817.162500", "105817.622500", "105818.082500", "105818.542500", "105819.002500", "105819.462500", "105819.922500", "105820.382500", "105820.842500", "105821.302500", "105821.762500", "105822.222500", "105822.682500", "105823.142500", "105823.602500", "105824.062500", "105824.522500", "105824.982500", "105825.442500", "105825.902500", "105826.362500", "105826.822500", "105827.282500", "105827.742500", "105828.202500", "105828.662500", "105829.122500", "105829.582500", "105830.042500", "105830.502500", "105830.962500", "105831.422500", "105831.882500", "105832.342500", "105832.802500", "105833.262500", "105833.722500", "105834.182500", "105834.642500", "105835.102500", "105835.562500", "105836.022500", "105836.482500", "105836.942500", "105837.402500", "105837.862500", "105838.322500", "105838.782500", "105839.242500", "105839.702500", "105840.162500", "105840.622500", "105841.082500", "105841.542500", "105842.002500", "105842.462500", "105842.922500", "105843.382500", "105843.842500", "105844.302500", "105844.762500", "105845.222500", "105845.682500", "105846.142500", "105846.602500", "105847.062500", "105847.522500", "105847.982500", "105848.442500", "105848.902500", "105849.362500", "105849.822500", "105850.282500", "105850.742500", "105851.202500", "105851.662500", "105852.122500", "105852.582500", "105853.042500", "105853.502500", "105853.962500", "105854.422500", "105854.882500", "105855.342500", "105855.802500", "105856.262500", "105856.722500", "105857.182500", "105857.642500", "105858.102500", "105858.562500", "105859.022500", "105859.482500", "105859.942500", "105900.402500", "105900.862500", "105901.322500", "105901.782500", "105902.242500", "105902.702500", "105903.162500", "105903.622500", "105904.082500", "105904.542500", "105905.002500", "105905.462500", "105905.922500", "105906.382500", "105906.842500", "105907.302500", "105907.762500", "105908.222500", "105908.682500", "105909.142500", "105909.602500", "105910.062500", "105910.522500", "105910.982500", "105911.442500", "105911.902500", "105912.362500", "105912.822500", "105913.282500", "105913.742500", "105914.202500", "105914.662500", "105915.122500", "105915.582500", "105916.042500", "105916.502500", "105916.962500", "105917.422500", "105917.882500", "105918.342500", "105918.802500", "105919.262500", "105919.722500", "105920.182500", "105920.642500", "105921.102500", "105921.562500", "105922.022500", "105922.482500", "105922.942500", "105923.402500", "105923.862500", "105924.322500", "105924.782500", "105925.242500", "105925.702500", "105926.162500", "105926.622500", "105927.082500", "105927.542500", "105928.002500", "105928.462500", "105928.922500", "105929.382500", "105929.842500", "105930.302500", "105930.762500", "105931.222500", "105931.682500", "105932.142500", "105932.602500", "105933.062500", "105933.522500", "105933.982500", "105934.442500", "105934.902500", "105935.362500", "105935.822500", "105936.282500", "105936.742500", "105937.202500", "105937.662500", "105938.122500", "105938.582500", "105939.042500", "105939.502500", "105939.962500", "105940.422500", "105940.882500", "105941.342500", "105941.802500", "105942.262500", "105942.722500", "105943.182500", "105943.642500", "105944.102500", "105944.562500", "105945.022500", "105945.482500", "105945.942500", "105946.402500", "105946.862500", "105947.322500", "105947.782500", "105948.242500", "105948.702500", "105949.162500", "105949.622500", "105950.082500", "105950.542500", "105951.002500", "105951.462500", "105951.922500", "105952.382500", "105952.842500", "105953.302500", "105953.762500", "105954.222500", "105954.682500", "105955.142500", "105955.602500", "105956.062500", "105956.522500", "105956.982500", "105957.442500", "105957.902500", "105958.362500", "105958.822500", "105959.282500", "105959.742500", "110000.202500", "110000.662500", "110001.122500", "110001.582500", "110002.042500", "110002.502500", "110002.962500", "110003.422500", "110003.882500", "110004.342500", "110004.802500", "110005.262500", "110005.722500", "110006.182500", "110006.642500", "110007.102500", "110007.562500", "110008.022500", "110008.482500", "110008.942500", "110009.402500", "110009.862500", "110010.322500", "110010.782500", "110011.242500", "110011.702500", "110012.162500", "110012.622500", "110013.082500", "110013.542500", "110014.002500", "110014.462500", "110014.922500", "110015.382500", "110015.842500", "110016.302500", "110016.762500", "110017.222500", "110017.682500", "110018.142500", "110018.602500", "110019.062500", "110019.522500", "110019.982500", "110020.442500", "110020.902500", "110021.362500", "110021.822500", "110022.282500", "110022.742500", "110023.202500", "110023.662500", "110024.122500", "110024.582500", "110025.042500", "110025.502500", "110025.962500", "110026.422500", "110026.882500", "110027.342500", "110027.802500", "110028.262500", "110028.722500", "110029.182500", "110029.642500", "110030.102500", "110030.562500", "110031.022500", "110031.482500", "110031.942500", "110032.402500", "110032.862500", "110033.322500", "110033.782500", "110034.242500", "110034.702500", "110035.162500", "110035.622500", "110036.082500", "110036.542500", "110037.002500", "110037.462500", "110037.922500", "110038.382500", "110038.842500", "110039.302500", "110039.762500", "110040.222500", "110040.682500", "110041.142500", "110041.602500", "110042.062500", "110042.522500", "110042.982500", "110043.442500", "110043.902500", "110044.362500", "110044.822500", "110045.282500", "110045.742500", "110046.202500", "110046.662500", "110047.122500", "110047.582500", "110048.042500", "110048.502500", "110048.962500", "110049.422500", "110049.882500", "110050.342500", "110050.802500", "110051.262500", "110051.722500", "110052.182500", "110052.642500", "110053.102500", "110053.562500", "110054.022500", "110054.482500", "110054.942500", "110055.402500", "110055.862500", "110056.322500", "110056.782500", "110057.242500", "110057.702500", "110058.162500", "110058.622500", "110059.082500", "110059.542500", "110100.002500", "110100.462500", "110100.922500", "110101.382500", "110101.842500", "110102.302500", "110102.762500", "110103.222500", "110103.682500", "110104.142500", "110104.602500", "110105.062500", "110105.522500", "110105.982500", "110106.442500", "110106.902500", "110107.362500", "110107.822500", "110108.282500", "110108.742500", "110109.202500", "110109.662500", "110110.122500", "110110.582500", "110111.042500", "110111.502500", "110111.962500", "110112.422500", "110112.882500", "110113.342500", "110113.802500", "110114.262500", "110114.722500", "110115.182500", "110115.642500", "110116.102500", "110116.562500", "110117.022500", "110117.482500", "110117.942500", "110118.402500", "110118.862500", "110119.322500", "110119.782500", "110120.242500", "110120.702500", "110121.162500", "110121.622500", "110122.082500", "110122.542500", "110123.002500", "110123.462500", "110123.922500", "110124.382500", "110124.842500", "110125.302500", "110125.762500", "110126.222500", "110126.682500", "110127.142500", "110127.602500", "110128.062500", "110128.522500", "110128.982500", "110129.442500", "110129.902500", "110130.362500", "110130.822500", "110131.282500", "110131.742500", "110132.202500", "110132.662500", "110133.122500", "110133.582500", "110134.042500", "110134.502500", "110134.962500", "110135.422500", "110135.882500", "110136.342500", "110136.802500", "110137.262500", "110137.722500", "110138.182500", "110138.642500", "110139.102500", "110139.562500", "110140.022500", "110140.482500", "110140.942500", "110141.402500", "110141.862500", "110142.322500", "110142.782500", "110143.242500", "110143.702500", "110144.162500", "110144.622500", "110145.082500", "110145.542500", "110146.002500", "110146.462500", "110146.922500", "110147.382500", "110147.842500", "110148.302500", "110148.762500", "110149.222500", "110149.682500", "110150.142500", "110150.602500", "110151.062500", "110151.522500", "110151.982500", "110152.442500", "110152.902500", "110153.362500", "110153.822500", "110154.282500", "110154.742500", "110155.202500", "110155.662500", "110156.122500", "110156.582500", "110157.042500", "110157.502500", "110157.962500", "110158.422500", "110158.882500", "110159.342500", "110159.802500", "110200.262500", "110200.722500", "110201.182500", "110201.642500", "110202.102500", "110202.562500", "110203.022500", "110203.482500", "110203.942500", "110204.402500", "110204.862500", "110205.322500", "110205.782500", "110206.242500", "110206.702500", "110207.162500", "110207.622500", "110208.082500", "110208.542500", "110209.002500", "110209.462500", "110209.922500", "110210.382500", "110210.842500", "110211.302500", "110211.762500", "110212.222500", "110212.682500", "110213.142500", "110213.602500", "110214.062500", "110214.522500", "110214.982500", "110215.442500", "110215.902500", "110216.362500", "110216.822500", "110217.282500", "110217.742500", "110218.202500", "110218.662500", "110219.122500", "110219.582500", "110220.042500", "110220.502500", "110220.962500", "110221.422500", "110221.882500", "110222.342500", "110222.802500", "110223.262500", "110223.722500", "110224.182500", "110224.642500", "110225.102500", "110225.562500", "110226.022500", "110226.482500", "110226.942500", "110227.402500", "110227.862500", "110228.322500", "110228.782500", "110229.242500", "110229.702500", "110230.162500", "110230.622500", "110231.082500", "110231.542500", "110232.002500", "110232.462500", "110232.922500", "110233.382500", "110233.842500", "110234.302500", "110234.762500", "110235.222500", "110235.682500", "110236.142500", "110236.602500", "110237.062500", "110237.522500", "110237.982500", "110238.442500", "110238.902500", "110239.362500", "110239.822500", "110240.282500", "110240.742500", "110241.202500", "110241.662500", "110242.122500", "110242.582500", "110243.042500", "110243.502500", "110243.962500", "110244.422500", "110244.882500", "110245.342500", "110245.802500", "110246.262500", "110246.722500", "110247.182500", "110247.642500", "110248.102500", "110248.562500", "110249.022500", "110249.482500", "110249.942500", "110250.402500", "110250.862500", "110251.322500", "110251.782500", "110252.242500", "110252.702500", "110253.162500", "110253.622500", "110254.082500", "110254.542500", "110255.002500", "110255.462500", "110255.922500", "110256.382500", "110256.842500", "110257.302500", "110257.762500", "110258.222500", "110258.682500", "110259.142500", "110259.602500", "110300.062500", "110300.522500", "110300.982500", "110301.442500", "110301.902500", "110302.362500", "110302.822500", "110303.282500", "110303.742500", "110304.202500", "110304.662500", "110305.122500", "110305.582500", "110306.042500", "110306.502500", "110306.962500", "110307.422500", "110307.882500", "110308.342500", "110308.802500", "110309.262500", "110309.722500", "110310.182500", "110310.642500", "110311.102500", "110311.562500", "110312.022500", "110312.482500", "110312.942500", "110313.402500", "110313.862500", "110314.322500", "110314.782500", "110315.242500", "110315.702500", "110316.162500", "110316.622500", "110317.082500", "110317.542500", "110318.002500", "110318.462500", "110318.922500", "110319.382500", "110319.842500", "110320.302500", "110320.762500", "110321.222500", "110321.682500", "110322.142500", "110322.602500", "110323.062500", "110323.522500", "110323.982500", "110324.442500", "110324.902500", "110325.362500", "110325.822500", "110326.282500", "110326.742500", "110327.202500", "110327.662500", "110328.122500", "110328.582500", "110329.042500", "110329.502500", "110329.962500", "110330.422500", "110330.882500", "110331.342500", "110331.802500", "110332.262500", "110332.722500", "110333.182500", "110333.642500", "110334.102500", "110334.562500", "110335.022500", "110335.482500", "110335.942500", "110336.402500", "110336.862500", "110337.322500", "110337.782500", "110338.242500", "110338.702500", "110339.162500", "110339.622500", "110340.082500", "110340.542500", "110341.002500", "110341.462500", "110341.922500", "110342.382500", "110342.842500", "110343.302500", "110343.762500", "110344.222500", "110344.682500", "110345.142500", "110345.602500", "110346.062500", "110346.522500", "110346.982500", "110347.442500", "110347.902500", "110348.362500", "110348.822500", "110349.282500", "110349.742500", "110350.202500", "110350.662500", "110351.122500", "110351.582500", "110352.042500", "110352.502500", "110352.962500", "110353.422500", "110353.882500", "110354.342500", "110354.802500", "110355.262500", "110355.722500", "110356.182500", "110356.642500", "110357.102500", "110357.562500", "110358.022500", "110358.482500", "110358.942500", "110359.402500", "110359.862500", "110400.322500", "110400.782500", "110401.242500", "110401.702500", "110402.162500", "110402.622500", "110403.082500", "110403.542500", "110404.002500", "110404.462500", "110404.922500", "110405.382500", "110405.842500", "110406.302500", "110406.762500", "110407.222500", "110407.682500", "110408.142500", "110408.602500", "110409.062500", "110409.522500", "110409.982500", "110410.442500", "110410.902500", "110411.362500", "110411.822500", "110412.282500", "110412.742500", "110413.202500", "110413.662500", "110414.122500", "110414.582500", "110415.042500", "110415.502500", "110415.962500", "110416.422500", "110416.882500", "110417.342500", "110417.802500", "110418.262500", "110418.722500", "110419.182500", "110419.642500", "110420.102500", "110420.562500", "110421.022500", "110421.482500", "110421.942500", "110422.402500", "110422.862500", "110423.322500", "110423.782500", "110424.242500", "110424.702500", "110425.162500", "110425.622500", "110426.082500", "110426.542500", "110427.002500", "110427.462500", "110427.922500", "110428.382500", "110428.842500", "110429.302500", "110429.762500", "110430.222500", "110430.682500", "110431.142500", "110431.602500", "110432.062500", "110432.522500", "110432.982500", "110433.442500", "110433.902500", "110434.362500", "110434.822500", "110435.282500", "110435.742500", "110436.202500", "110436.662500", "110437.122500", "110437.582500", "110438.042500", "110438.502500"],
