{
  "AcquisitionMatrixPE": 82,
  "AcquisitionNumber": 1,
  "AcquisitionTime": "11:06:55.270000",
  "BandwidthPerPixelPhaseEncode": 24.888,
  "BaseResolution": 82,
  "BodyPartExamined": "BRAIN",
  "ConsistencyInfo": "N4_VE11E_LATEST_20181129",
  "ConversionSoftware": "dcm2niix",
  "ConversionSoftwareVersion": "v1.0.20201102",
  "DerivedVendorReportedEchoSpacing": 0.00049,
  "DeviceSerialNumber": "66112",
  "DwellTime": 2e-06,
  "EchoTime": 0.0272,
  "EchoTrainLength": 82,
  "EffectiveEchoSpacing": 0.00049,
  "FlipAngle": 44,
  "ImageComments": "Unaliased MB8/PE3",
  "ImageOrientationPatientDICOM": [0.999525, -0.0153686, -0.0267039, 0.0188429, 0.990646, 0.135152],
  "ImageType": [
    "ORIGINAL",
    "PRIMARY",
    "M",
    "MB",
    "ND",
    "NORM",
    "MOSAIC"
],
  "ImagingFrequency": 123.259,
  "InPlanePhaseEncodingDirectionDICOM": "COL",
  "InstitutionAddress": "Maynard 3,Hanover,NH,US,03755",
  "InstitutionName": "Dartmouth College - PBS",
  "InstitutionalDepartmentName": "Department",
  "MRAcquisitionType": "2D",
  "MagneticFieldStrength": 3,
  "Manufacturer": "Siemens",
  "ManufacturersModelName": "Prisma",
  "Modality": "MR",
  "MultibandAccelerationFactor": 8,
  "PartialFourier": 1,
  "PatientPosition": "HFS",
  "PercentPhaseFOV": 100,
  "PercentSampling": 100,
  "PhaseEncodingDirection": "j-",
  "PhaseEncodingSteps": 82,
  "PhaseResolution": 1,
  "PixelBandwidth": 3050,
  "ProcedureStepDescription": "Wager_Wager^1076_spacetop",
  "ProtocolName": "func_run-02_task-social_acq-ap-mb8",
  "PulseSequenceDetails": "%CustomerSeq%\\cmrr_mbep2d_bold",
  "ReceiveCoilActiveElements": "HEA;HEP",
  "ReceiveCoilName": "Head_32",
  "ReconMatrixPE": 82,
  "RepetitionTime": 0.46,
  "SAR": 0.14141,
  "ScanOptions": "FS",
  "ScanningSequence": "EP",
  "SequenceName": "epfid2d1_82",
  "SequenceVariant": "SK\\SS",
  "SeriesDescription": "func_run-02_task-social_acq-ap-mb8",
  "SeriesNumber": 14,
  "ShimSetting": [4238, -7807, -7217, 308, -68, -21, 34, 76],
  "SliceThickness": 2.7,
  "SliceTiming": [0, 0.2525, 0.0625, 0.315, 0.125, 0.3775, 0.19, 0, 0.2525, 0.0625, 0.315, 0.125, 0.3775, 0.19, 0, 0.2525, 0.0625, 0.315, 0.125, 0.3775, 0.19, 0, 0.2525, 0.0625, 0.315, 0.125, 0.3775, 0.19, 0, 0.2525, 0.0625, 0.315, 0.125, 0.3775, 0.19, 0, 0.2525, 0.0625, 0.315, 0.125, 0.3775, 0.19, 0, 0.2525, 0.0625, 0.315, 0.125, 0.3775, 0.19, 0, 0.2525, 0.0625, 0.315, 0.125, 0.3775, 0.19],
  "SoftwareVersions": "syngo MR E11",
  "SpacingBetweenSlices": 2.7,
  "StationName": "AWP66112",
  "TaskName": "social",
  "TotalReadoutTime": 0.03969,
  "TxRefAmp": 302.649,
  "WipMemBlock": "30f14ab4-02c9-4efd-9277-67fa488fa2c6||Sequence: R016 ve11e/master r/434b28f1; Aug  7 2019 18:53:46 by eja",
  "dcmmeta_affine": [
    [-2.6816532611846924, 0.05055401101708412, -0.06581804156303406, 113.044189453125],
    [0.04123278707265854, 2.657829999923706, 0.3660956919193268, -107.50492095947266],
    [-0.07164473086595535, -0.3626028895378113, 2.67425537109375, -32.792057037353516],
    [0.0, 0.0, 0.0, 1.0]
],
  "dcmmeta_reorient_transform": [
    [0.0, -1.0, 0.0, 81.0],
    [1.0, 0.0, 0.0, 0.0],
    [0.0, 0.0, 1.0, 0.0],
    [0.0, 0.0, 0.0, 1.0]
],
  "dcmmeta_shape": [82, 82, 56, 872],
  "dcmmeta_slice_dim": 2,
  "dcmmeta_version": 0.6,
  "global": {
    "const": {
      "AccessionNumber": "A004540",
      "AcquisitionMatrix": [82, 0, 0, 82],
      "AngioFlag": "N",
      "BitsAllocated": 16,
      "BitsStored": 16,
      "BodyPartExamined": "BRAIN",
      "Columns": 656,
      "EchoNumbers": 1,
      "EchoTime": 27.2,
      "EchoTrainLength": 82,
      "FlipAngle": 44.0,
      "HighBit": 15,
      "ImageOrientationPatient": [0.9995252403074, -0.0153685834687, -0.0267039441019, 0.01884285780678, 0.99064569276604, 0.13515198153848],
      "ImagePositionPatient": [-901.28251565027, -858.74270150845, -145.66788346538],
      "ImageType": [
        "ORIGINAL",
        "PRIMARY",
        "M",
        "MB",
        "ND",
        "NORM",
        "MOSAIC"
],
      "ImagedNucleus": "1H",
      "ImagingFrequency": 123.259007,
      "InPlanePhaseEncodingDirection": "COL",
      "MRAcquisitionType": "2D",
      "MagneticFieldStrength": 3.0,
      "Manufacturer": "SIEMENS",
      "ManufacturerModelName": "Prisma",
      "Modality": "MR",
      "NumberOfAverages": 1.0,
      "NumberOfPhaseEncodingSteps": 82,
      "PercentPhaseFieldOfView": 100.0,
      "PercentSampling": 100.0,
      "PerformedProcedureStepStartTime": "103655.341000",
      "PhotometricInterpretation": "MONOCHROME2",
      "PixelBandwidth": 3050.0,
      "PixelRepresentation": 0,
      "PixelSpacing": [2.6829268932343, 2.6829268932343],
      "ProtocolName": "func_run-02_task-social_acq-ap-mb8",
      "RepetitionTime": 460.0,
      "Rows": 656,
      "SAR": 0.14140981502229,
      "SamplesPerPixel": 1,
      "ScanOptions": "FS",
      "ScanningSequence": "EP",
      "SequenceName": "epfid2d1_82",
      "SequenceVariant": [
        "SK",
        "SS"
],
      "SeriesDescription": "func_run-02_task-social_acq-ap-mb8",
      "SeriesNumber": 14,
      "SeriesTime": "110711.658000",
      "SliceLocation": -49.811768330643,
      "SliceThickness": 2.7000000476837,
      "SmallestImagePixelValue": 0,
      "SoftwareVersions": "syngo MR E11",
      "SpacingBetweenSlices": 2.7000000442384,
      "SpecificCharacterSet": "ISO_IR 100",
      "StudyID": "1",
      "StudyTime": "103655.278000",
      "TransmitCoilName": "Body",
      "VariableFlipAngleFlag": "N",
      "WindowCenterWidthExplanation": "Algo1"
    },
    "slices": {}
  },
  "time": {
    "samples": {
      "AcquisitionNumber": [1, 2, 3, 4, 5, 6, 7, 8, 9, 10, 11, 12, 13, 14, 15, 16, 17, 18, 19, 20, 21, 22, 23, 24, 25, 26, 27, 28, 29, 30, 31, 32, 33, 34, 35, 36, 37, 38, 39, 40, 41, 42, 43, 44, 45, 46, 47, 48, 49, 50, 51, 52, 53, 54, 55, 56, 57, 58, 59, 60, 61, 62, 63, 64, 65, 66, 67, 68, 69, 70, 71, 72, 73, 74, 75, 76, 77, 78, 79, 80, 81, 82, 83, 84, 85, 86, 87, 88, 89, 90, 91, 92, 93, 94, 95, 96, 97, 98, 99, 100, 101, 102, 103, 104, 105, 106, 107, 108, 109, 110, 111, 112, 113, 114, 115, 116, 117, 118, 119, 120, 121, 122, 123, 124, 125, 126, 127, 128, 129, 130, 131, 132, 133, 134, 135, 136, 137, 138, 139, 140, 141, 142, 143, 144, 145, 146, 147, 148, 149, 150, 151, 152, 153, 154, 155, 156, 157, 158, 159, 160, 161, 162, 163, 164, 165, 166, 167, 168, 169, 170, 171, 172, 173, 174, 175, 176, 177, 178, 179, 180, 181, 182, 183, 184, 185, 186, 187, 188, 189, 190, 191, 192, 193, 194, 195, 196, 197, 198, 199, 200, 201, 202, 203, 204, 205, 206, 207, 208, 209, 210, 211, 212, 213, 214, 215, 216, 217, 218, 219, 220, 221, 222, 223, 224, 225, 226, 227, 228, 229, 230, 231, 232, 233, 234, 235, 236, 237, 238, 239, 240, 241, 242, 243, 244, 245, 246, 247, 248, 249, 250, 251, 252, 253, 254, 255, 256, 257, 258, 259, 260, 261, 262, 263, 264, 265, 266, 267, 268, 269, 270, 271, 272, 273, 274, 275, 276, 277, 278, 279, 280, 281, 282, 283, 284, 285, 286, 287, 288, 289, 290, 291, 292, 293, 294, 295, 296, 297, 298, 299, 300, 301, 302, 303, 304, 305, 306, 307, 308, 309, 310, 311, 312, 313, 314, 315, 316, 317, 318, 319, 320, 321, 322, 323, 324, 325, 326, 327, 328, 329, 330, 331, 332, 333, 334, 335, 336, 337, 338, 339, 340, 341, 342, 343, 344, 345, 346, 347, 348, 349, 350, 351, 352, 353, 354, 355, 356, 357, 358, 359, 360, 361, 362, 363, 364, 365, 366, 367, 368, 369, 370, 371, 372, 373, 374, 375, 376, 377, 378, 379, 380, 381, 382, 383, 384, 385, 386, 387, 388, 389, 390, 391, 392, 393, 394, 395, 396, 397, 398, 399, 400, 401, 402, 403, 404, 405, 406, 407, 408, 409, 410, 411, 412, 413, 414, 415, 416, 417, 418, 419, 420, 421, 422, 423, 424, 425, 426, 427, 428, 429, 430, 431, 432, 433, 434, 435, 436, 437, 438, 439, 440, 441, 442, 443, 444, 445, 446, 447, 448, 449, 450, 451, 452, 453, 454, 455, 456, 457, 458, 459, 460, 461, 462, 463, 464, 465, 466, 467, 468, 469, 470, 471, 472, 473, 474, 475, 476, 477, 478, 479, 480, 481, 482, 483, 484, 485, 486, 487, 488, 489, 490, 491, 492, 493, 494, 495, 496, 497, 498, 499, 500, 501, 502, 503, 504, 505, 506, 507, 508, 509, 510, 511, 512, 513, 514, 515, 516, 517, 518, 519, 520, 521, 522, 523, 524, 525, 526, 527, 528, 529, 530, 531, 532, 533, 534, 535, 536, 537, 538, 539, 540, 541, 542, 543, 544, 545, 546, 547, 548, 549, 550, 551, 552, 553, 554, 555, 556, 557, 558, 559, 560, 561, 562, 563, 564, 565, 566, 567, 568, 569, 570, 571, 572, 573, 574, 575, 576, 577, 578, 579, 580, 581, 582, 583, 584, 585, 586, 587, 588, 589, 590, 591, 592, 593, 594, 595, 596, 597, 598, 599, 600, 601, 602, 603, 604, 605, 606, 607, 608, 609, 610, 611, 612, 613, 614, 615, 616, 617, 618, 619, 620, 621, 622, 623, 624, 625, 626, 627, 628, 629, 630, 631, 632, 633, 634, 635, 636, 637, 638, 639, 640, 641, 642, 643, 644, 645, 646, 647, 648, 649, 650, 651, 652, 653, 654, 655, 656, 657, 658, 659, 660, 661, 662, 663, 664, 665, 666, 667, 668, 669, 670, 671, 672, 673, 674, 675, 676, 677, 678, 679, 680, 681, 682, 683, 684, 685, 686, 687, 688, 689, 690, 691, 692, 693, 694, 695, 696, 697, 698, 699, 700, 701, 702, 703, 704, 705, 706, 707, 708, 709, 710, 711, 712, 713, 714, 715, 716, 717, 718, 719, 720, 721, 722, 723, 724, 725, 726, 727, 728, 729, 730, 731, 732, 733, 734, 735, 736, 737, 738, 739, 740, 741, 742, 743, 744, 745, 746, 747, 748, 749, 750, 751, 752, 753, 754, 755, 756, 757, 758, 759, 760, 761, 762, 763, 764, 765, 766, 767, 768, 769, 770, 771, 772, 773, 774, 775, 776, 777, 778, 779, 780, 781, 782, 783, 784, 785, 786, 787, 788, 789, 790, 791, 792, 793, 794, 795, 796, 797, 798, 799, 800, 801, 802, 803, 804, 805, 806, 807, 808, 809, 810, 811, 812, 813, 814, 815, 816, 817, 818, 819, 820, 821, 822, 823, 824, 825, 826, 827, 828, 829, 830, 831, 832, 833, 834, 835, 836, 837, 838, 839, 840, 841, 842, 843, 844, 845, 846, 847, 848, 849, 850, 851, 852, 853, 854, 855, 856, 857, 858, 859, 860, 861, 862, 863, 864, 865, 866, 867, 868, 869, 870, 871, 872],
      "AcquisitionTime": ["110655.270000", "110655.730000", "110656.190000", "110656.650000", "110657.110000", "110657.570000", "110658.030000", "110658.490000", "110658.950000", "110659.410000", "110659.870000", "110700.330000", "110700.790000", "110701.250000", "110701.710000", "110702.170000", "110702.630000", "110703.090000", "110703.550000", "110704.010000", "110704.470000", "110704.930000", "110705.390000", "110705.850000", "110706.310000", "110706.770000", "110707.230000", "110707.690000", "110708.150000", "110708.610000", "110709.070000", "110709.530000", "110709.990000", "110710.450000", "110710.910000", "110711.370000", "110711.830000", "110712.290000", "110712.750000", "110713.210000", "110713.670000", "110714.130000", "110714.590000", "110715.050000", "110715.510000", "110715.970000", "110716.430000", "110716.890000", "110717.350000", "110717.810000", "110718.270000", "110718.730000", "110719.190000", "110719.650000", "110720.110000", "110720.570000", "110721.030000", "110721.490000", "110721.950000", "110722.410000", "110722.870000", "110723.330000", "110723.790000", "110724.250000", "110724.710000", "110725.170000", "110725.630000", "110726.090000", "110726.550000", "110727.010000", "110727.470000", "110727.930000", "110728.390000", "110728.850000", "110729.310000", "110729.770000", "110730.230000", "110730.690000", "110731.150000", "110731.610000", "110732.070000", "110732.530000", "110732.990000", "110733.450000", "110733.910000", "110734.370000", "110734.830000", "110735.290000", "110735.750000", "110736.210000", "110736.670000", "110737.130000", "110737.590000", "110738.050000", "110738.510000", "110738.970000", "110739.430000", "110739.890000", "110740.350000", "110740.810000", "110741.270000", "110741.730000", "110742.190000", "110742.650000", "110743.110000", "110743.570000", "110744.030000", "110744.490000", "110744.950000", "110745.410000", "110745.870000", "110746.330000", "110746.790000", "110747.250000", "110747.710000", "110748.170000", "110748.630000", "110749.090000", "110749.550000", "110750.010000", "110750.470000", "110750.930000", "110751.390000", "110751.850000", "110752.310000", "110752.770000", "110753.230000", "110753.690000", "110754.150000", "110754.610000", "110755.070000", "110755.530000", "110755.990000", "110756.450000", "110756.910000", "110757.370000", "110757.830000", "110758.290000", "110758.750000", "110759.210000", "110759.670000", "110800.130000", "110800.590000", "110801.050000", "110801.510000", "110801.970000", "110802.430000", "110802.890000", "110803.350000", "110803.810000", "110804.270000", "110804.730000", "110805.190000", "110805.650000", "110806.110000", "110806.570000", "110807.030000", "110807.490000", "110807.950000", "110808.410000", "110808.870000", "110809.330000", "110809.790000", "110810.250000", "110810.710000", "110811.170000", "110811.630000", "110812.090000", "110812.550000", "110813.010000", "110813.470000", "110813.930000", "110814.390000", "110814.850000", "110815.310000", "110815.770000", "110816.230000", "110816.690000", "110817.150000", "110817.610000", "110818.070000", "110818.530000", "110818.990000", "110819.450000", "110819.910000", "110820.370000", "110820.830000", "110821.290000", "110821.750000", "110822.210000", "110822.670000", "110823.130000", "110823.590000", "110824.050000", "110824.510000", "110824.970000", "110825.430000", "110825.890000", "110826.350000", "110826.810000", "110827.270000", "110827.730000", "110828.190000", "110828.650000", "110829.110000", "110829.570000", "110830.030000", "110830.490000", "110830.950000", "110831.410000", "110831.870000", "110832.330000", "110832.790000", "110833.250000", "110833.710000", "110834.170000", "110834.630000", "110835.090000", "110835.550000", "110836.010000", "110836.470000", "110836.930000", "110837.390000", "110837.850000", "110838.310000", "110838.770000", "110839.230000", "110839.690000", "110840.150000", "110840.610000", "110841.070000", "110841.530000", "110841.990000", "110842.450000", "110842.910000", "110843.370000", "110843.830000", "110844.290000", "110844.750000", "110845.210000", "110845.670000", "110846.130000", "110846.590000", "110847.050000", "110847.510000", "110847.970000", "110848.430000", "110848.890000", "110849.350000", "110849.810000", "110850.270000", "110850.730000", "110851.190000", "110851.650000", "110852.110000", "110852.570000", "110853.030000", "110853.490000", "110853.950000", "110854.410000", "110854.870000", "110855.330000", "110855.790000", "110856.250000", "110856.710000", "110857.170000", "110857.630000", "110858.090000", "110858.550000", "110859.010000", "110859.470000", "110859.930000", "110900.390000", "110900.850000", "110901.310000", "110901.770000", "110902.230000", "110902.690000", "110903.150000", "110903.610000", "110904.070000", "110904.530000", "110904.990000", "110905.450000", "110905.910000", "110906.370000", "110906.830000", "110907.290000", "110907.750000", "110908.210000", "110908.670000", "110909.130000", "110909.590000", "110910.050000", "110910.510000", "110910.970000", "110911.430000", "110911.890000", "110912.350000", "110912.810000", "110913.270000", "110913.730000", "110914.190000", "110914.650000", "110915.110000", "110915.570000", "110916.030000", "110916.490000", "110916.950000", "110917.410000", "110917.870000", "110918.330000", "110918.790000", "110919.250000", "110919.710000", "110920.170000", "110920.630000", "110921.090000", "110921.550000", "110922.010000", "110922.470000", "110922.930000", "110923.390000", "110923.850000", "110924.310000", "110924.770000", "110925.230000", "110925.690000", "110926.150000", "110926.610000", "110927.070000", "110927.530000", "110927.990000", "110928.450000", "110928.910000", "110929.370000", "110929.830000", "110930.290000", "110930.750000", "110931.210000", "110931.670000", "110932.130000", "110932.590000", "110933.050000", "110933.510000", "110933.970000", "110934.430000", "110934.890000", "110935.350000", "110935.810000", "110936.270000", "110936.730000", "110937.190000", "110937.650000", "110938.110000", "110938.570000", "110939.030000", "110939.490000", "110939.950000", "110940.410000", "110940.870000", "110941.330000", "110941.790000", "110942.250000", "110942.710000", "110943.170000", "110943.630000", "110944.090000", "110944.550000", "110945.010000", "110945.470000", "110945.930000", "110946.390000", "110946.850000", "110947.310000", "110947.770000", "110948.230000", "110948.690000", "110949.150000", "110949.610000", "110950.070000", "110950.530000", "110950.990000", "110951.450000", "110951.910000", "110952.370000", "110952.830000", "110953.290000", "110953.750000", "110954.210000", "110954.670000", "110955.130000", "110955.590000", "110956.050000", "110956.510000", "110956.970000", "110957.430000", "110957.890000", "110958.350000", "110958.810000", "110959.270000", "110959.730000", "111000.190000", "111000.650000", "111001.110000", "111001.570000", "111002.030000", "111002.490000", "111002.950000", "111003.410000", "111003.870000", "111004.330000", "111004.790000", "111005.250000", "111005.710000", "111006.170000", "111006.630000", "111007.090000", "111007.550000", "111008.010000", "111008.470000", "111008.930000", "111009.390000", "111009.850000", "111010.310000", "111010.770000", "111011.230000", "111011.690000", "111012.150000", "111012.610000", "111013.070000", "111013.530000", "111013.990000", "111014.450000", "111014.910000", "111015.370000", "111015.830000", "111016.290000", "111016.750000", "111017.210000", "111017.670000", "111018.130000", "111018.590000", "111019.050000", "111019.510000", "111019.970000", "111020.430000", "111020.890000", "111021.350000", "111021.810000", "111022.270000", "111022.730000", "111023.190000", "111023.650000", "111024.110000", "111024.570000", "111025.030000", "111025.490000", "111025.950000", "111026.410000", "111026.870000", "111027.330000", "111027.790000", "111028.250000", "111028.710000", "111029.170000", "111029.630000", "111030.090000", "111030.550000", "111031.010000", "111031.470000", "111031.930000", "111032.390000", "111032.850000", "111033.310000", "111033.770000", "111034.230000", "111034.690000", "111035.150000", "111035.610000", "111036.070000", "111036.530000", "111036.990000", "111037.450000", "111037.910000", "111038.370000", "111038.830000", "111039.290000", "111039.750000", "111040.210000", "111040.670000", "111041.130000", "111041.590000", "111042.050000", "111042.510000", "111042.970000", "111043.430000", "111043.890000", "111044.350000", "111044.810000", "111045.270000", "111045.730000", "111046.190000", "111046.650000", "111047.110000", "111047.570000", "111048.030000", "111048.490000", "111048.950000", "111049.410000", "111049.870000", "111050.330000", "111050.790000", "111051.250000", "111051.710000", "111052.170000", "111052.630000", "111053.090000", "111053.550000", "111054.010000", "111054.470000", "111054.930000", "111055.390000", "111055.850000", "111056.310000", "111056.770000", "111057.230000", "111057.690000", "111058.150000", "111058.610000", "111059.070000", "111059.530000", "111059.990000", "111100.450000", "111100.910000", "111101.370000", "111101.830000", "111102.290000", "111102.750000", "111103.210000", "111103.670000", "111104.130000", "111104.590000", "111105.050000", "111105.510000", "111105.970000", "111106.430000", "111106.890000", "111107.350000", "111107.810000", "111108.270000", "111108.730000", "111109.190000", "111109.650000", "111110.110000", "111110.570000", "111111.030000", "111111.490000", "111111.950000", "111112.410000", "111112.870000", "111113.330000", "111113.790000", "111114.250000", "111114.710000", "111115.170000", "111115.630000", "111116.090000", "111116.550000", "111117.010000", "111117.470000", "111117.930000", "111118.390000", "111118.850000", "111119.310000", "111119.770000", "111120.230000", "111120.690000", "111121.150000", "111121.610000", "111122.070000", "111122.530000", "111122.990000", "111123.450000", "111123.910000", "111124.370000", "111124.830000", "111125.290000", "111125.750000", "111126.210000", "111126.670000", "111127.130000", "111127.590000", "111128.050000", "111128.510000", "111128.970000", "111129.430000", "111129.890000", "111130.350000", "111130.810000", "111131.270000", "111131.730000", "111132.190000", "111132.650000", "111133.110000", "111133.570000", "111134.030000", "111134.490000", "111134.950000", "111135.410000", "111135.870000", "111136.330000", "111136.790000", "111137.250000", "111137.710000", "111138.170000", "111138.630000", "111139.090000", "111139.550000", "111140.010000", "111140.470000", "111140.930000", "111141.390000", "111141.850000", "111142.310000", "111142.770000", "111143.230000", "111143.690000", "111144.150000", "111144.610000", "111145.070000", "111145.530000", "111145.990000", "111146.450000", "111146.910000", "111147.370000", "111147.830000", "111148.290000", "111148.750000", "111149.210000", "111149.670000", "111150.130000", "111150.590000", "111151.050000", "111151.510000", "111151.970000", "111152.430000", "111152.890000", "111153.350000", "111153.810000", "111154.270000", "111154.730000", "111155.190000", "111155.650000", "111156.110000", "111156.570000", "111157.030000", "111157.490000", "111157.950000", "111158.410000", "111158.870000", "111159.330000", "111159.790000", "111200.250000", "111200.710000", "111201.170000", "111201.630000", "111202.090000", "111202.550000", "111203.010000", "111203.470000", "111203.930000", "111204.390000", "111204.850000", "111205.310000", "111205.770000", "111206.230000", "111206.690000", "111207.150000", "111207.610000", "111208.070000", "111208.530000", "111208.990000", "111209.450000", "111209.910000", "111210.370000", "111210.830000", "111211.290000", "111211.750000", "111212.210000", "111212.670000", "111213.130000", "111213.590000", "111214.050000", "111214.510000", "111214.970000", "111215.430000", "111215.890000", "111216.350000", "111216.810000", "111217.270000", "111217.730000", "111218.190000", "111218.650000", "111219.110000", "111219.570000", "111220.030000", "111220.490000", "111220.950000", "111221.410000", "111221.870000", "111222.330000", "111222.790000", "111223.250000", "111223.710000", "111224.170000", "111224.630000", "111225.090000", "111225.550000", "111226.010000", "111226.470000", "111226.930000", "111227.390000", "111227.850000", "111228.310000", "111228.770000", "111229.230000", "111229.690000", "111230.150000", "111230.610000", "111231.070000", "111231.530000", "111231.990000", "111232.450000", "111232.910000", "111233.370000", "111233.830000", "111234.290000", "111234.750000", "111235.210000", "111235.670000", "111236.130000", "111236.590000", "111237.050000", "111237.510000", "111237.970000", "111238.430000", "111238.890000", "111239.350000", "111239.810000", "111240.270000", "111240.730000", "111241.190000", "111241.650000", "111242.110000", "111242.570000", "111243.030000", "111243.490000", "111243.950000", "111244.410000", "111244.870000", "111245.330000", "111245.790000", "111246.250000", "111246.710000", "111247.170000", "111247.630000", "111248.090000", "111248.550000", "111249.010000", "111249.470000", "111249.930000", "111250.390000", "111250.850000", "111251.310000", "111251.770000", "111252.230000", "111252.690000", "111253.150000", "111253.610000", "111254.070000", "111254.530000", "111254.990000", "111255.450000", "111255.910000", "111256.370000", "111256.830000", "111257.290000", "111257.750000", "111258.210000", "111258.670000", "111259.130000", "111259.590000", "111300.050000", "111300.510000", "111300.970000", "111301.430000", "111301.890000", "111302.350000", "111302.810000", "111303.270000", "111303.730000", "111304.190000", "111304.650000", "111305.110000", "111305.570000", "111306.030000", "111306.490000", "111306.950000", "111307.410000", "111307.870000", "111308.330000", "111308.790000", "111309.250000", "111309.710000", "111310.170000", "111310.630000", "111311.090000", "111311.550000", "111312.010000", "111312.470000", "111312.930000", "111313.390000", "111313.850000", "111314.310000", "111314.770000", "111315.230000", "111315.690000", "111316.150000", "111316.610000", "111317.070000", "111317.530000", "111317.990000", "111318.450000", "111318.910000", "111319.370000", "111319.830000", "111320.290000", "111320.750000", "111321.210000", "111321.670000", "111322.130000", "111322.590000", "111323.050000", "111323.510000", "111323.970000", "111324.430000", "111324.890000", "111325.350000", "111325.810000", "111326.270000", "111326.730000", "111327.190000", "111327.650000", "111328.110000", "111328.570000", "111329.030000", "111329.490000", "111329.950000", "111330.410000", "111330.870000", "111331.330000", "111331.790000", "111332.250000", "111332.710000", "111333.170000", "111333.630000", "111334.090000", "111334.550000", "111335.010000", "111335.470000", "111335.930000"],
