{
  "AcquisitionMatrixPE": 82,
  "AcquisitionNumber": 1,
  "AcquisitionTime": "11:36:55.122500",
  "BandwidthPerPixelPhaseEncode": 24.888,
  "BaseResolution": 82,
  "BodyPartExamined": "BRAIN",
  "ConsistencyInfo": "N4_VE11E_LATEST_20181129",
  "ConversionSoftware": "dcm2niix",
  "ConversionSoftwareVersion": "v1.0.20201102",
  "DerivedVendorReportedEchoSpacing": 0.00049,
  "DeviceSerialNumber": "66112",
  "DwellTime": 2e-06,
  "EchoTime": 0.0272,
  "EchoTrainLength": 82,
  "EffectiveEchoSpacing": 0.00049,
  "FlipAngle": 44,
  "ImageComments": "Unaliased MB8/PE3",
  "ImageOrientationPatientDICOM": [0.999525, -0.0153686, -0.0267039, 0.0188429, 0.990646, 0.135152],
  "ImageType": [
    "ORIGINAL",
    "PRIMARY",
    "M",
    "MB",
    "ND",
    "NORM",
    "MOSAIC"
],
  "ImagingFrequency": 123.259,
  "InPlanePhaseEncodingDirectionDICOM": "COL",
  "InstitutionAddress": "Maynard 3,Hanover,NH,US,03755",
  "InstitutionName": "Dartmouth College - PBS",
  "InstitutionalDepartmentName": "Department",
  "MRAcquisitionType": "2D",
  "MagneticFieldStrength": 3,
  "Manufacturer": "Siemens",
  "ManufacturersModelName": "Prisma",
  "Modality": "MR",
  "MultibandAccelerationFactor": 8,
  "PartialFourier": 1,
  "PatientPosition": "HFS",
  "PercentPhaseFOV": 100,
  "PercentSampling": 100,
  "PhaseEncodingDirection": "j-",
  "PhaseEncodingSteps": 82,
  "PhaseResolution": 1,
  "PixelBandwidth": 3050,
  "ProcedureStepDescription": "Wager_Wager^1076_spacetop",
  "ProtocolName": "func_run-06_task-social_acq-ap-mb8",
  "PulseSequenceDetails": "%CustomerSeq%\\cmrr_mbep2d_bold",
  "ReceiveCoilActiveElements": "HEA;HEP",
  "ReceiveCoilName": "Head_32",
  "ReconMatrixPE": 82,
  "RepetitionTime": 0.46,
  "SAR": 0.14141,
  "ScanOptions": "FS",
  "ScanningSequence": "EP",
  "SequenceName": "epfid2d1_82",
  "SequenceVariant": "SK\\SS",
  "SeriesDescription": "func_run-06_task-social_acq-ap-mb8",
  "SeriesNumber": 22,
  "ShimSetting": [4238, -7807, -7217, 308, -68, -21, 34, 76],
  "SliceThickness": 2.7,
  "SliceTiming": [0, 0.2525, 0.0625, 0.315, 0.125, 0.3775, 0.19, 0, 0.2525, 0.0625, 0.315, 0.125, 0.3775, 0.19, 0, 0.2525, 0.0625, 0.315, 0.125, 0.3775, 0.19, 0, 0.2525, 0.0625, 0.315, 0.125, 0.3775, 0.19, 0, 0.2525, 0.0625, 0.315, 0.125, 0.3775, 0.19, 0, 0.2525, 0.0625, 0.315, 0.125, 0.3775, 0.19, 0, 0.2525, 0.0625, 0.315, 0.125, 0.3775, 0.19, 0, 0.2525, 0.0625, 0.315, 0.125, 0.3775, 0.19],
  "SoftwareVersions": "syngo MR E11",
  "SpacingBetweenSlices": 2.7,
  "StationName": "AWP66112",
  "TaskName": "social",
  "TotalReadoutTime": 0.03969,
  "TxRefAmp": 302.649,
  "WipMemBlock": "5d739624-4c40-4ae1-a266-8c1626b4b5fb||Sequence: R016 ve11e/master r/434b28f1; Aug  7 2019 18:53:46 by eja",
  "dcmmeta_affine": [
    [-2.6816532611846924, 0.05055401101708412, -0.06581804156303406, 113.044189453125],
    [0.04123278707265854, 2.657829999923706, 0.3660956919193268, -107.50492095947266],
    [-0.07164473086595535, -0.3626028895378113, 2.67425537109375, -32.792057037353516],
    [0.0, 0.0, 0.0, 1.0]
],
  "dcmmeta_reorient_transform": [
    [0.0, -1.0, 0.0, 81.0],
    [1.0, 0.0, 0.0, 0.0],
    [0.0, 0.0, 1.0, 0.0],
    [0.0, 0.0, 0.0, 1.0]
],
  "dcmmeta_shape": [82, 82, 56, 872],
  "dcmmeta_slice_dim": 2,
  "dcmmeta_version": 0.6,
  "global": {
    "const": {
      "AccessionNumber": "A004540",
      "AcquisitionMatrix": [82, 0, 0, 82],
      "AngioFlag": "N",
      "BitsAllocated": 16,
      "BitsStored": 16,
      "BodyPartExamined": "BRAIN",
      "Columns": 656,
      "EchoNumbers": 1,
      "EchoTime": 27.2,
      "EchoTrainLength": 82,
      "FlipAngle": 44.0,
      "HighBit": 15,
      "ImageOrientationPatient": [0.9995252403074, -0.0153685834687, -0.0267039441019, 0.01884285780678, 0.99064569276604, 0.13515198153848],
      "ImagePositionPatient": [-901.28251565027, -858.74270150845, -145.66788346538],
      "ImageType": [
        "ORIGINAL",
        "PRIMARY",
        "M",
        "MB",
        "ND",
        "NORM",
        "MOSAIC"
],
      "ImagedNucleus": "1H",
      "ImagingFrequency": 123.259018,
      "InPlanePhaseEncodingDirection": "COL",
      "MRAcquisitionType": "2D",
      "MagneticFieldStrength": 3.0,
      "Manufacturer": "SIEMENS",
      "ManufacturerModelName": "Prisma",
      "Modality": "MR",
      "NumberOfAverages": 1.0,
      "NumberOfPhaseEncodingSteps": 82,
      "PercentPhaseFieldOfView": 100.0,
      "PercentSampling": 100.0,
      "PerformedProcedureStepStartTime": "103655.341000",
      "PhotometricInterpretation": "MONOCHROME2",
      "PixelBandwidth": 3050.0,
      "PixelRepresentation": 0,
      "PixelSpacing": [2.6829268932343, 2.6829268932343],
      "ProtocolName": "func_run-06_task-social_acq-ap-mb8",
      "RepetitionTime": 460.0,
      "Rows": 656,
      "SAR": 0.14140981502229,
      "SamplesPerPixel": 1,
      "ScanOptions": "FS",
      "ScanningSequence": "EP",
      "SequenceName": "epfid2d1_82",
      "SequenceVariant": [
        "SK",
        "SS"
],
      "SeriesDescription": "func_run-06_task-social_acq-ap-mb8",
      "SeriesNumber": 22,
      "SeriesTime": "113711.768000",
      "SliceLocation": -49.811768330643,
      "SliceThickness": 2.7000000476837,
      "SmallestImagePixelValue": 0,
      "SoftwareVersions": "syngo MR E11",
      "SpacingBetweenSlices": 2.7000000442384,
      "SpecificCharacterSet": "ISO_IR 100",
      "StudyID": "1",
      "StudyTime": "103655.278000",
      "TransmitCoilName": "Body",
      "VariableFlipAngleFlag": "N",
      "WindowCenterWidthExplanation": "Algo1"
    },
    "slices": {}
  },
  "time": {
    "samples": {
      "AcquisitionNumber": [1, 2, 3, 4, 5, 6, 7, 8, 9, 10, 11, 12, 13, 14, 15, 16, 17, 18, 19, 20, 21, 22, 23, 24, 25, 26, 27, 28, 29, 30, 31, 32, 33, 34, 35, 36, 37, 38, 39, 40, 41, 42, 43, 44, 45, 46, 47, 48, 49, 50, 51, 52, 53, 54, 55, 56, 57, 58, 59, 60, 61, 62, 63, 64, 65, 66, 67, 68, 69, 70, 71, 72, 73, 74, 75, 76, 77, 78, 79, 80, 81, 82, 83, 84, 85, 86, 87, 88, 89, 90, 91, 92, 93, 94, 95, 96, 97, 98, 99, 100, 101, 102, 103, 104, 105, 106, 107, 108, 109, 110, 111, 112, 113, 114, 115, 116, 117, 118, 119, 120, 121, 122, 123, 124, 125, 126, 127, 128, 129, 130, 131, 132, 133, 134, 135, 136, 137, 138, 139, 140, 141, 142, 143, 144, 145, 146, 147, 148, 149, 150, 151, 152, 153, 154, 155, 156, 157, 158, 159, 160, 161, 162, 163, 164, 165, 166, 167, 168, 169, 170, 171, 172, 173, 174, 175, 176, 177, 178, 179, 180, 181, 182, 183, 184, 185, 186, 187, 188, 189, 190, 191, 192, 193, 194, 195, 196, 197, 198, 199, 200, 201, 202, 203, 204, 205, 206, 207, 208, 209, 210, 211, 212, 213, 214, 215, 216, 217, 218, 219, 220, 221, 222, 223, 224, 225, 226, 227, 228, 229, 230, 231, 232, 233, 234, 235, 236, 237, 238, 239, 240, 241, 242, 243, 244, 245, 246, 247, 248, 249, 250, 251, 252, 253, 254, 255, 256, 257, 258, 259, 260, 261, 262, 263, 264, 265, 266, 267, 268, 269, 270, 271, 272, 273, 274, 275, 276, 277, 278, 279, 280, 281, 282, 283, 284, 285, 286, 287, 288, 289, 290, 291, 292, 293, 294, 295, 296, 297, 298, 299, 300, 301, 302, 303, 304, 305, 306, 307, 308, 309, 310, 311, 312, 313, 314, 315, 316, 317, 318, 319, 320, 321, 322, 323, 324, 325, 326, 327, 328, 329, 330, 331, 332, 333, 334, 335, 336, 337, 338, 339, 340, 341, 342, 343, 344, 345, 346, 347, 348, 349, 350, 351, 352, 353, 354, 355, 356, 357, 358, 359, 360, 361, 362, 363, 364, 365, 366, 367, 368, 369, 370, 371, 372, 373, 374, 375, 376, 377, 378, 379, 380, 381, 382, 383, 384, 385, 386, 387, 388, 389, 390, 391, 392, 393, 394, 395, 396, 397, 398, 399, 400, 401, 402, 403, 404, 405, 406, 407, 408, 409, 410, 411, 412, 413, 414, 415, 416, 417, 418, 419, 420, 421, 422, 423, 424, 425, 426, 427, 428, 429, 430, 431, 432, 433, 434, 435, 436, 437, 438, 439, 440, 441, 442, 443, 444, 445, 446, 447, 448, 449, 450, 451, 452, 453, 454, 455, 456, 457, 458, 459, 460, 461, 462, 463, 464, 465, 466, 467, 468, 469, 470, 471, 472, 473, 474, 475, 476, 477, 478, 479, 480, 481, 482, 483, 484, 485, 486, 487, 488, 489, 490, 491, 492, 493, 494, 495, 496, 497, 498, 499, 500, 501, 502, 503, 504, 505, 506, 507, 508, 509, 510, 511, 512, 513, 514, 515, 516, 517, 518, 519, 520, 521, 522, 523, 524, 525, 526, 527, 528, 529, 530, 531, 532, 533, 534, 535, 536, 537, 538, 539, 540, 541, 542, 543, 544, 545, 546, 547, 548, 549, 550, 551, 552, 553, 554, 555, 556, 557, 558, 559, 560, 561, 562, 563, 564, 565, 566, 567, 568, 569, 570, 571, 572, 573, 574, 575, 576, 577, 578, 579, 580, 581, 582, 583, 584, 585, 586, 587, 588, 589, 590, 591, 592, 593, 594, 595, 596, 597, 598, 599, 600, 601, 602, 603, 604, 605, 606, 607, 608, 609, 610, 611, 612, 613, 614, 615, 616, 617, 618, 619, 620, 621, 622, 623, 624, 625, 626, 627, 628, 629, 630, 631, 632, 633, 634, 635, 636, 637, 638, 639, 640, 641, 642, 643, 644, 645, 646, 647, 648, 649, 650, 651, 652, 653, 654, 655, 656, 657, 658, 659, 660, 661, 662, 663, 664, 665, 666, 667, 668, 669, 670, 671, 672, 673, 674, 675, 676, 677, 678, 679, 680, 681, 682, 683, 684, 685, 686, 687, 688, 689, 690, 691, 692, 693, 694, 695, 696, 697, 698, 699, 700, 701, 702, 703, 704, 705, 706, 707, 708, 709, 710, 711, 712, 713, 714, 715, 716, 717, 718, 719, 720, 721, 722, 723, 724, 725, 726, 727, 728, 729, 730, 731, 732, 733, 734, 735, 736, 737, 738, 739, 740, 741, 742, 743, 744, 745, 746, 747, 748, 749, 750, 751, 752, 753, 754, 755, 756, 757, 758, 759, 760, 761, 762, 763, 764, 765, 766, 767, 768, 769, 770, 771, 772, 773, 774, 775, 776, 777, 778, 779, 780, 781, 782, 783, 784, 785, 786, 787, 788, 789, 790, 791, 792, 793, 794, 795, 796, 797, 798, 799, 800, 801, 802, 803, 804, 805, 806, 807, 808, 809, 810, 811, 812, 813, 814, 815, 816, 817, 818, 819, 820, 821, 822, 823, 824, 825, 826, 827, 828, 829, 830, 831, 832, 833, 834, 835, 836, 837, 838, 839, 840, 841, 842, 843, 844, 845, 846, 847, 848, 849, 850, 851, 852, 853, 854, 855, 856, 857, 858, 859, 860, 861, 862, 863, 864, 865, 866, 867, 868, 869, 870, 871, 872],
      "AcquisitionTime": ["113655.122500", "113655.582500", "113656.042500", "113656.502500", "113656.962500", "113657.422500", "113657.882500", "113658.342500", "113658.802500", "113659.262500", "113659.722500", "113700.182500", "113700.642500", "113701.102500", "113701.562500", "113702.022500", "113702.482500", "113702.942500", "113703.402500", "113703.862500", "113704.322500", "113704.782500", "113705.242500", "113705.702500", "113706.162500", "113706.622500", "113707.082500", "113707.542500", "113708.002500", "113708.462500", "113708.922500", "113709.382500", "113709.842500", "113710.302500", "113710.762500", "113711.222500", "113711.682500", "113712.142500", "113712.602500", "113713.062500", "113713.522500", "113713.982500", "113714.442500", "113714.902500", "113715.362500", "113715.822500", "113716.282500", "113716.742500", "113717.202500", "113717.662500", "113718.122500", "113718.582500", "113719.042500", "113719.502500", "113719.962500", "113720.422500", "113720.882500", "113721.342500", "113721.802500", "113722.262500", "113722.722500", "113723.182500", "113723.642500", "113724.102500", "113724.562500", "113725.022500", "113725.482500", "113725.942500", "113726.402500", "113726.862500", "113727.322500", "113727.782500", "113728.242500", "113728.702500", "113729.162500", "113729.622500", "113730.082500", "113730.542500", "113731.002500", "113731.462500", "113731.922500", "113732.382500", "113732.842500", "113733.302500", "113733.762500", "113734.222500", "113734.682500", "113735.142500", "113735.602500", "113736.062500", "113736.522500", "113736.982500", "113737.442500", "113737.902500", "113738.362500", "113738.822500", "113739.282500", "113739.742500", "113740.202500", "113740.662500", "113741.122500", "113741.582500", "113742.042500", "113742.502500", "113742.962500", "113743.422500", "113743.882500", "113744.342500", "113744.802500", "113745.262500", "113745.722500", "113746.182500", "113746.642500", "113747.102500", "113747.562500", "113748.022500", "113748.482500", "113748.942500", "113749.402500", "113749.862500", "113750.322500", "113750.782500", "113751.242500", "113751.702500", "113752.162500", "113752.622500", "113753.082500", "113753.542500", "113754.002500", "113754.462500", "113754.922500", "113755.382500", "113755.842500", "113756.302500", "113756.762500", "113757.222500", "113757.682500", "113758.142500", "113758.602500", "113759.062500", "113759.522500", "113759.982500", "113800.442500", "113800.902500", "113801.362500", "113801.822500", "113802.282500", "113802.742500", "113803.202500", "113803.662500", "113804.122500", "113804.582500", "113805.042500", "113805.502500", "113805.962500", "113806.422500", "113806.882500", "113807.342500", "113807.802500", "113808.262500", "113808.722500", "113809.182500", "113809.642500", "113810.102500", "113810.562500", "113811.022500", "113811.482500", "113811.942500", "113812.402500", "113812.862500", "113813.322500", "113813.782500", "113814.242500", "113814.702500", "113815.162500", "113815.622500", "113816.082500", "113816.542500", "113817.002500", "113817.462500", "113817.922500", "113818.382500", "113818.842500", "113819.302500", "113819.762500", "113820.222500", "113820.682500", "113821.142500", "113821.602500", "113822.062500", "113822.522500", "113822.982500", "113823.442500", "113823.902500", "113824.362500", "113824.822500", "113825.282500", "113825.742500", "113826.202500", "113826.662500", "113827.122500", "113827.582500", "113828.042500", "113828.502500", "113828.962500", "113829.422500", "113829.882500", "113830.342500", "113830.802500", "113831.262500", "113831.722500", "113832.182500", "113832.642500", "113833.102500", "113833.562500", "113834.022500", "113834.482500", "113834.942500", "113835.402500", "113835.862500", "113836.322500", "113836.782500", "113837.242500", "113837.702500", "113838.162500", "113838.622500", "113839.082500", "113839.542500", "113840.002500", "113840.462500", "113840.922500", "113841.382500", "113841.842500", "113842.302500", "113842.762500", "113843.222500", "113843.682500", "113844.142500", "113844.602500", "113845.062500", "113845.522500", "113845.982500", "113846.442500", "113846.902500", "113847.362500", "113847.822500", "113848.282500", "113848.742500", "113849.202500", "113849.662500", "113850.122500", "113850.582500", "113851.042500", "113851.502500", "113851.962500", "113852.422500", "113852.882500", "113853.342500", "113853.802500", "113854.262500", "113854.722500", "113855.182500", "113855.642500", "113856.102500", "113856.562500", "113857.022500", "113857.482500", "113857.942500", "113858.402500", "113858.862500", "113859.322500", "113859.782500", "113900.242500", "113900.702500", "113901.162500", "113901.622500", "113902.082500", "113902.542500", "113903.002500", "113903.462500", "113903.922500", "113904.382500", "113904.842500", "113905.302500", "113905.762500", "113906.222500", "113906.682500", "113907.142500", "113907.602500", "113908.062500", "113908.522500", "113908.982500", "113909.442500", "113909.902500", "113910.362500", "113910.822500", "113911.282500", "113911.742500", "113912.202500", "113912.662500", "113913.122500", "113913.582500", "113914.042500", "113914.502500", "113914.962500", "113915.422500", "113915.882500", "113916.342500", "113916.802500", "113917.262500", "113917.722500", "113918.182500", "113918.642500", "113919.102500", "113919.562500", "113920.022500", "113920.482500", "113920.942500", "113921.402500", "113921.862500", "113922.322500", "113922.782500", "113923.242500", "113923.702500", "113924.162500", "113924.622500", "113925.082500", "113925.542500", "113926.002500", "113926.462500", "113926.922500", "113927.382500", "113927.842500", "113928.302500", "113928.762500", "113929.222500", "113929.682500", "113930.142500", "113930.602500", "113931.062500", "113931.522500", "113931.982500", "113932.442500", "113932.902500", "113933.362500", "113933.822500", "113934.282500", "113934.742500", "113935.202500", "113935.662500", "113936.122500", "113936.582500", "113937.042500", "113937.502500", "113937.962500", "113938.422500", "113938.882500", "113939.342500", "113939.802500", "113940.262500", "113940.722500", "113941.182500", "113941.642500", "113942.102500", "113942.562500", "113943.022500", "113943.482500", "113943.942500", "113944.402500", "113944.862500", "113945.322500", "113945.782500", "113946.242500", "113946.702500", "113947.162500", "113947.622500", "113948.082500", "113948.542500", "113949.002500", "113949.462500", "113949.922500", "113950.382500", "113950.842500", "113951.302500", "113951.762500", "113952.222500", "113952.682500", "113953.142500", "113953.602500", "113954.062500", "113954.522500", "113954.982500", "113955.442500", "113955.902500", "113956.362500", "113956.822500", "113957.282500", "113957.742500", "113958.202500", "113958.662500", "113959.122500", "113959.582500", "114000.042500", "114000.502500", "114000.962500", "114001.422500", "114001.882500", "114002.342500", "114002.802500", "114003.262500", "114003.722500", "114004.182500", "114004.642500", "114005.102500", "114005.562500", "114006.022500", "114006.482500", "114006.942500", "114007.402500", "114007.862500", "114008.322500", "114008.782500", "114009.242500", "114009.702500", "114010.162500", "114010.622500", "114011.082500", "114011.542500", "114012.002500", "114012.462500", "114012.922500", "114013.382500", "114013.842500", "114014.302500", "114014.762500", "114015.222500", "114015.682500", "114016.142500", "114016.602500", "114017.062500", "114017.522500", "114017.982500", "114018.442500", "114018.902500", "114019.362500", "114019.822500", "114020.282500", "114020.742500", "114021.202500", "114021.662500", "114022.122500", "114022.582500", "114023.042500", "114023.502500", "114023.962500", "114024.422500", "114024.882500", "114025.342500", "114025.802500", "114026.262500", "114026.722500", "114027.182500", "114027.642500", "114028.102500", "114028.562500", "114029.022500", "114029.482500", "114029.942500", "114030.402500", "114030.862500", "114031.322500", "114031.782500", "114032.242500", "114032.702500", "114033.162500", "114033.622500", "114034.082500", "114034.542500", "114035.002500", "114035.462500", "114035.922500", "114036.382500", "114036.842500", "114037.302500", "114037.762500", "114038.222500", "114038.682500", "114039.142500", "114039.602500", "114040.062500", "114040.522500", "114040.982500", "114041.442500", "114041.902500", "114042.362500", "114042.822500", "114043.282500", "114043.742500", "114044.202500", "114044.662500", "114045.122500", "114045.582500", "114046.042500", "114046.502500", "114046.962500", "114047.422500", "114047.882500", "114048.342500", "114048.802500", "114049.262500", "114049.722500", "114050.182500", "114050.642500", "114051.102500", "114051.562500", "114052.022500", "114052.482500", "114052.942500", "114053.402500", "114053.862500", "114054.322500", "114054.782500", "114055.242500", "114055.702500", "114056.162500", "114056.622500", "114057.082500", "114057.542500", "114058.002500", "114058.462500", "114058.922500", "114059.382500", "114059.842500", "114100.302500", "114100.762500", "114101.222500", "114101.682500", "114102.142500", "114102.602500", "114103.062500", "114103.522500", "114103.982500", "114104.442500", "114104.902500", "114105.362500", "114105.822500", "114106.282500", "114106.742500", "114107.202500", "114107.662500", "114108.122500", "114108.582500", "114109.042500", "114109.502500", "114109.962500", "114110.422500", "114110.882500", "114111.342500", "114111.802500", "114112.262500", "114112.722500", "114113.182500", "114113.642500", "114114.102500", "114114.562500", "114115.022500", "114115.482500", "114115.942500", "114116.402500", "114116.862500", "114117.322500", "114117.782500", "114118.242500", "114118.702500", "114119.162500", "114119.622500", "114120.082500", "114120.542500", "114121.002500", "114121.462500", "114121.922500", "114122.382500", "114122.842500", "114123.302500", "114123.762500", "114124.222500", "114124.682500", "114125.142500", "114125.602500", "114126.062500", "114126.522500", "114126.982500", "114127.442500", "114127.902500", "114128.362500", "114128.822500", "114129.282500", "114129.742500", "114130.202500", "114130.662500", "114131.122500", "114131.582500", "114132.042500", "114132.502500", "114132.962500", "114133.422500", "114133.882500", "114134.342500", "114134.802500", "114135.262500", "114135.722500", "114136.182500", "114136.642500", "114137.102500", "114137.562500", "114138.022500", "114138.482500", "114138.942500", "114139.402500", "114139.862500", "114140.322500", "114140.782500", "114141.242500", "114141.702500", "114142.162500", "114142.622500", "114143.082500", "114143.542500", "114144.002500", "114144.462500", "114144.922500", "114145.382500", "114145.842500", "114146.302500", "114146.762500", "114147.222500", "114147.682500", "114148.142500", "114148.602500", "114149.062500", "114149.522500", "114149.982500", "114150.442500", "114150.902500", "114151.362500", "114151.822500", "114152.282500", "114152.742500", "114153.202500", "114153.662500", "114154.122500", "114154.582500", "114155.042500", "114155.502500", "114155.962500", "114156.422500", "114156.882500", "114157.342500", "114157.802500", "114158.262500", "114158.722500", "114159.182500", "114159.642500", "114200.102500", "114200.562500", "114201.022500", "114201.482500", "114201.942500", "114202.402500", "114202.862500", "114203.322500", "114203.782500", "114204.242500", "114204.702500", "114205.162500", "114205.622500", "114206.082500", "114206.542500", "114207.002500", "114207.462500", "114207.922500", "114208.382500", "114208.842500", "114209.302500", "114209.762500", "114210.222500", "114210.682500", "114211.142500", "114211.602500", "114212.062500", "114212.522500", "114212.982500", "114213.442500", "114213.902500", "114214.362500", "114214.822500", "114215.282500", "114215.742500", "114216.202500", "114216.662500", "114217.122500", "114217.582500", "114218.042500", "114218.502500", "114218.962500", "114219.422500", "114219.882500", "114220.342500", "114220.802500", "114221.262500", "114221.722500", "114222.182500", "114222.642500", "114223.102500", "114223.562500", "114224.022500", "114224.482500", "114224.942500", "114225.402500", "114225.862500", "114226.322500", "114226.782500", "114227.242500", "114227.702500", "114228.162500", "114228.622500", "114229.082500", "114229.542500", "114230.002500", "114230.462500", "114230.922500", "114231.382500", "114231.842500", "114232.302500", "114232.762500", "114233.222500", "114233.682500", "114234.142500", "114234.602500", "114235.062500", "114235.522500", "114235.982500", "114236.442500", "114236.902500", "114237.362500", "114237.822500", "114238.282500", "114238.742500", "114239.202500", "114239.662500", "114240.122500", "114240.582500", "114241.042500", "114241.502500", "114241.962500", "114242.422500", "114242.882500", "114243.342500", "114243.802500", "114244.262500", "114244.722500", "114245.182500", "114245.642500", "114246.102500", "114246.562500", "114247.022500", "114247.482500", "114247.942500", "114248.402500", "114248.862500", "114249.322500", "114249.782500", "114250.242500", "114250.702500", "114251.162500", "114251.622500", "114252.082500", "114252.542500", "114253.002500", "114253.462500", "114253.922500", "114254.382500", "114254.842500", "114255.302500", "114255.762500", "114256.222500", "114256.682500", "114257.142500", "114257.602500", "114258.062500", "114258.522500", "114258.982500", "114259.442500", "114259.902500", "114300.362500", "114300.822500", "114301.282500", "114301.742500", "114302.202500", "114302.662500", "114303.122500", "114303.582500", "114304.042500", "114304.502500", "114304.962500", "114305.422500", "114305.882500", "114306.342500", "114306.802500", "114307.262500", "114307.722500", "114308.182500", "114308.642500", "114309.102500", "114309.562500", "114310.022500", "114310.482500", "114310.942500", "114311.402500", "114311.862500", "114312.322500", "114312.782500", "114313.242500", "114313.702500", "114314.162500", "114314.622500", "114315.082500", "114315.542500", "114316.002500", "114316.462500", "114316.922500", "114317.382500", "114317.842500", "114318.302500", "114318.762500", "114319.222500", "114319.682500", "114320.142500", "114320.602500", "114321.062500", "114321.522500", "114321.982500", "114322.442500", "114322.902500", "114323.362500", "114323.822500", "114324.282500", "114324.742500", "114325.202500", "114325.662500", "114326.122500", "114326.582500", "114327.042500", "114327.502500", "114327.962500", "114328.422500", "114328.882500", "114329.342500", "114329.802500", "114330.262500", "114330.722500", "114331.182500", "114331.642500", "114332.102500", "114332.562500", "114333.022500", "114333.482500", "114333.942500", "114334.402500", "114334.862500", "114335.322500", "114335.782500"],
