{
  "AcquisitionMatrixPE": 82,
  "AcquisitionNumber": 1,
  "AcquisitionTime": "12:05:49.280000",
  "BandwidthPerPixelPhaseEncode": 24.888,
  "BaseResolution": 82,
  "BodyPartExamined": "BRAIN",
  "ConsistencyInfo": "N4_VE11E_LATEST_20181129",
  "ConversionSoftware": "dcm2niix",
  "ConversionSoftwareVersion": "v1.0.20201102",
  "DerivedVendorReportedEchoSpacing": 0.00049,
  "DeviceSerialNumber": "66112",
  "DwellTime": 2e-06,
  "EchoTime": 0.0272,
  "EchoTrainLength": 82,
  "EffectiveEchoSpacing": 0.00049,
  "FlipAngle": 44,
  "ImageComments": "Unaliased MB8/PE3",
  "ImageOrientationPatientDICOM": [0.99974, -0.00714784, -0.0216639, 0.00977166, 0.992291, 0.123541],
  "ImageType": [
    "ORIGINAL",
    "PRIMARY",
    "M",
    "MB",
    "ND",
    "NORM",
    "MOSAIC"
],
  "ImagingFrequency": 123.259,
  "InPlanePhaseEncodingDirectionDICOM": "COL",
  "InstitutionAddress": "Maynard 3,Hanover,NH,US,03755",
  "InstitutionName": "Dartmouth College - PBS",
  "InstitutionalDepartmentName": "Department",
  "MRAcquisitionType": "2D",
  "MagneticFieldStrength": 3,
  "Manufacturer": "Siemens",
  "ManufacturersModelName": "Prisma",
  "Modality": "MR",
  "MultibandAccelerationFactor": 8,
  "PartialFourier": 1,
  "PatientPosition": "HFS",
  "PercentPhaseFOV": 100,
  "PercentSampling": 100,
  "PhaseEncodingDirection": "j-",
  "PhaseEncodingSteps": 82,
  "PhaseResolution": 1,
  "PixelBandwidth": 3050,
  "ProcedureStepDescription": "Wager_Wager^1076_spacetop",
  "ProtocolName": "func_run-03_task-alignvideo_acq-ap-mb8",
  "PulseSequenceDetails": "%CustomerSeq%\\cmrr_mbep2d_bold",
  "ReceiveCoilActiveElements": "HEA;HEP",
  "ReceiveCoilName": "Head_32",
  "ReconMatrixPE": 82,
  "RepetitionTime": 0.46,
  "SAR": 0.141534,
  "ScanOptions": "FS",
  "ScanningSequence": "EP",
  "SequenceName": "epfid2d1_82",
  "SequenceVariant": "SK\\SS",
  "SeriesDescription": "func_run-03_task-alignvideo_acq-ap-mb8",
  "SeriesNumber": 34,
  "ShimSetting": [4238, -7807, -7218, 305, -67, -21, 34, 75],
  "SliceThickness": 2.7,
  "SliceTiming": [0, 0.2525, 0.0625, 0.315, 0.1275, 0.3775, 0.19, 0, 0.2525, 0.0625, 0.315, 0.1275, 0.3775, 0.19, 0, 0.2525, 0.0625, 0.315, 0.1275, 0.3775, 0.19, 0, 0.2525, 0.0625, 0.315, 0.1275, 0.3775, 0.19, 0, 0.2525, 0.0625, 0.315, 0.1275, 0.3775, 0.19, 0, 0.2525, 0.0625, 0.315, 0.1275, 0.3775, 0.19, 0, 0.2525, 0.0625, 0.315, 0.1275, 0.3775, 0.19, 0, 0.2525, 0.0625, 0.315, 0.1275, 0.3775, 0.19],
  "SoftwareVersions": "syngo MR E11",
  "SpacingBetweenSlices": 2.7,
  "StationName": "AWP66112",
  "TaskName": "alignvideo",
  "TotalReadoutTime": 0.03969,
  "TxRefAmp": 302.649,
  "WipMemBlock": "25cdc53d-f995-4f46-8117-60f09ee8611e||Sequence: R016 ve11e/master r/434b28f1; Aug  7 2019 18:53:46 by eja",
  "dcmmeta_affine": [
    [-2.6822285652160645, 0.026216639205813408, -0.055657386779785156, 113.16731262207031],
    [0.01917712390422821, 2.662245273590088, 0.33404508233070374, -107.17112731933594],
    [-0.058122649788856506, -0.33145108819007874, 2.678678035736084, -35.32230758666992],
    [0.0, 0.0, 0.0, 1.0]
],
  "dcmmeta_reorient_transform": [
    [0.0, -1.0, 0.0, 81.0],
    [1.0, 0.0, 0.0, 0.0],
    [0.0, 0.0, 1.0, 0.0],
    [0.0, 0.0, 0.0, 1.0]
],
  "dcmmeta_shape": [82, 82, 56, 1016],
  "dcmmeta_slice_dim": 2,
  "dcmmeta_version": 0.6,
  "global": {
    "const": {
      "AccessionNumber": "A004540",
      "AcquisitionMatrix": [82, 0, 0, 82],
      "AngioFlag": "N",
      "BitsAllocated": 16,
      "BitsStored": 16,
      "BodyPartExamined": "BRAIN",
      "Columns": 656,
      "EchoNumbers": 1,
      "EchoTime": 27.2,
      "EchoTrainLength": 82,
      "FlipAngle": 44.0,
      "HighBit": 15,
      "ImageOrientationPatient": [0.99973975815731, -0.007147836834, -0.02166389596, 0.00977165622013, 0.99229137352652, 0.12354086271177],
      "ImagePositionPatient": [-892.61467137377, -867.03127909506, -140.61511178531],
      "ImageType": [
        "ORIGINAL",
        "PRIMARY",
        "M",
        "MB",
        "ND",
        "NORM",
        "MOSAIC"
],
      "ImagedNucleus": "1H",
      "ImagingFrequency": 123.259025,
      "InPlanePhaseEncodingDirection": "COL",
      "MRAcquisitionType": "2D",
      "MagneticFieldStrength": 3.0,
      "Manufacturer": "SIEMENS",
      "ManufacturerModelName": "Prisma",
      "Modality": "MR",
      "NumberOfAverages": 1.0,
      "NumberOfPhaseEncodingSteps": 82,
      "PercentPhaseFieldOfView": 100.0,
      "PercentSampling": 100.0,
      "PerformedProcedureStepStartTime": "103655.341000",
      "PhotometricInterpretation": "MONOCHROME2",
      "PixelBandwidth": 3050.0,
      "PixelRepresentation": 0,
      "PixelSpacing": [2.6829268932343, 2.6829268932343],
      "ProtocolName": "func_run-03_task-alignvideo_acq-ap-mb8",
      "RepetitionTime": 460.0,
      "Rows": 656,
      "SAR": 0.14153449122905,
      "SamplesPerPixel": 1,
      "ScanOptions": "FS",
      "ScanningSequence": "EP",
      "SequenceName": "epfid2d1_82",
      "SequenceVariant": [
        "SK",
        "SS"
],
      "SeriesDescription": "func_run-03_task-alignvideo_acq-ap-mb8",
      "SeriesNumber": 34,
      "SeriesTime": "120611.793000",
      "SliceLocation": -50.635433958766,
      "SliceThickness": 2.7000000476837,
      "SmallestImagePixelValue": 0,
      "SoftwareVersions": "syngo MR E11",
      "SpacingBetweenSlices": 2.7000000061332,
      "SpecificCharacterSet": "ISO_IR 100",
      "StudyID": "1",
      "StudyTime": "103655.278000",
      "TransmitCoilName": "Body",
      "VariableFlipAngleFlag": "N",
      "WindowCenterWidthExplanation": "Algo1"
    },
    "slices": {}
  },
  "time": {
    "samples": {
      "AcquisitionNumber": [1, 2, 3, 4, 5, 6, 7, 8, 9, 10, 11, 12, 13, 14, 15, 16, 17, 18, 19, 20, 21, 22, 23, 24, 25, 26, 27, 28, 29, 30, 31, 32, 33, 34, 35, 36, 37, 38, 39, 40, 41, 42, 43, 44, 45, 46, 47, 48, 49, 50, 51, 52, 53, 54, 55, 56, 57, 58, 59, 60, 61, 62, 63, 64, 65, 66, 67, 68, 69, 70, 71, 72, 73, 74, 75, 76, 77, 78, 79, 80, 81, 82, 83, 84, 85, 86, 87, 88, 89, 90, 91, 92, 93, 94, 95, 96, 97, 98, 99, 100, 101, 102, 103, 104, 105, 106, 107, 108, 109, 110, 111, 112, 113, 114, 115, 116, 117, 118, 119, 120, 121, 122, 123, 124, 125, 126, 127, 128, 129, 130, 131, 132, 133, 134, 135, 136, 137, 138, 139, 140, 141, 142, 143, 144, 145, 146, 147, 148, 149, 150, 151, 152, 153, 154, 155, 156, 157, 158, 159, 160, 161, 162, 163, 164, 165, 166, 167, 168, 169, 170, 171, 172, 173, 174, 175, 176, 177, 178, 179, 180, 181, 182, 183, 184, 185, 186, 187, 188, 189, 190, 191, 192, 193, 194, 195, 196, 197, 198, 199, 200, 201, 202, 203, 204, 205, 206, 207, 208, 209, 210, 211, 212, 213, 214, 215, 216, 217, 218, 219, 220, 221, 222, 223, 224, 225, 226, 227, 228, 229, 230, 231, 232, 233, 234, 235, 236, 237, 238, 239, 240, 241, 242, 243, 244, 245, 246, 247, 248, 249, 250, 251, 252, 253, 254, 255, 256, 257, 258, 259, 260, 261, 262, 263, 264, 265, 266, 267, 268, 269, 270, 271, 272, 273, 274, 275, 276, 277, 278, 279, 280, 281, 282, 283, 284, 285, 286, 287, 288, 289, 290, 291, 292, 293, 294, 295, 296, 297, 298, 299, 300, 301, 302, 303, 304, 305, 306, 307, 308, 309, 310, 311, 312, 313, 314, 315, 316, 317, 318, 319, 320, 321, 322, 323, 324, 325, 326, 327, 328, 329, 330, 331, 332, 333, 334, 335, 336, 337, 338, 339, 340, 341, 342, 343, 344, 345, 346, 347, 348, 349, 350, 351, 352, 353, 354, 355, 356, 357, 358, 359, 360, 361, 362, 363, 364, 365, 366, 367, 368, 369, 370, 371, 372, 373, 374, 375, 376, 377, 378, 379, 380, 381, 382, 383, 384, 385, 386, 387, 388, 389, 390, 391, 392, 393, 394, 395, 396, 397, 398, 399, 400, 401, 402, 403, 404, 405, 406, 407, 408, 409, 410, 411, 412, 413, 414, 415, 416, 417, 418, 419, 420, 421, 422, 423, 424, 425, 426, 427, 428, 429, 430, 431, 432, 433, 434, 435, 436, 437, 438, 439, 440, 441, 442, 443, 444, 445, 446, 447, 448, 449, 450, 451, 452, 453, 454, 455, 456, 457, 458, 459, 460, 461, 462, 463, 464, 465, 466, 467, 468, 469, 470, 471, 472, 473, 474, 475, 476, 477, 478, 479, 480, 481, 482, 483, 484, 485, 486, 487, 488, 489, 490, 491, 492, 493, 494, 495, 496, 497, 498, 499, 500, 501, 502, 503, 504, 505, 506, 507, 508, 509, 510, 511, 512, 513, 514, 515, 516, 517, 518, 519, 520, 521, 522, 523, 524, 525, 526, 527, 528, 529, 530, 531, 532, 533, 534, 535, 536, 537, 538, 539, 540, 541, 542, 543, 544, 545, 546, 547, 548, 549, 550, 551, 552, 553, 554, 555, 556, 557, 558, 559, 560, 561, 562, 563, 564, 565, 566, 567, 568, 569, 570, 571, 572, 573, 574, 575, 576, 577, 578, 579, 580, 581, 582, 583, 584, 585, 586, 587, 588, 589, 590, 591, 592, 593, 594, 595, 596, 597, 598, 599, 600, 601, 602, 603, 604, 605, 606, 607, 608, 609, 610, 611, 612, 613, 614, 615, 616, 617, 618, 619, 620, 621, 622, 623, 624, 625, 626, 627, 628, 629, 630, 631, 632, 633, 634, 635, 636, 637, 638, 639, 640, 641, 642, 643, 644, 645, 646, 647, 648, 649, 650, 651, 652, 653, 654, 655, 656, 657, 658, 659, 660, 661, 662, 663, 664, 665, 666, 667, 668, 669, 670, 671, 672, 673, 674, 675, 676, 677, 678, 679, 680, 681, 682, 683, 684, 685, 686, 687, 688, 689, 690, 691, 692, 693, 694, 695, 696, 697, 698, 699, 700, 701, 702, 703, 704, 705, 706, 707, 708, 709, 710, 711, 712, 713, 714, 715, 716, 717, 718, 719, 720, 721, 722, 723, 724, 725, 726, 727, 728, 729, 730, 731, 732, 733, 734, 735, 736, 737, 738, 739, 740, 741, 742, 743, 744, 745, 746, 747, 748, 749, 750, 751, 752, 753, 754, 755, 756, 757, 758, 759, 760, 761, 762, 763, 764, 765, 766, 767, 768, 769, 770, 771, 772, 773, 774, 775, 776, 777, 778, 779, 780, 781, 782, 783, 784, 785, 786, 787, 788, 789, 790, 791, 792, 793, 794, 795, 796, 797, 798, 799, 800, 801, 802, 803, 804, 805, 806, 807, 808, 809, 810, 811, 812, 813, 814, 815, 816, 817, 818, 819, 820, 821, 822, 823, 824, 825, 826, 827, 828, 829, 830, 831, 832, 833, 834, 835, 836, 837, 838, 839, 840, 841, 842, 843, 844, 845, 846, 847, 848, 849, 850, 851, 852, 853, 854, 855, 856, 857, 858, 859, 860, 861, 862, 863, 864, 865, 866, 867, 868, 869, 870, 871, 872, 873, 874, 875, 876, 877, 878, 879, 880, 881, 882, 883, 884, 885, 886, 887, 888, 889, 890, 891, 892, 893, 894, 895, 896, 897, 898, 899, 900, 901, 902, 903, 904, 905, 906, 907, 908, 909, 910, 911, 912, 913, 914, 915, 916, 917, 918, 919, 920, 921, 922, 923, 924, 925, 926, 927, 928, 929, 930, 931, 932, 933, 934, 935, 936, 937, 938, 939, 940, 941, 942, 943, 944, 945, 946, 947, 948, 949, 950, 951, 952, 953, 954, 955, 956, 957, 958, 959, 960, 961, 962, 963, 964, 965, 966, 967, 968, 969, 970, 971, 972, 973, 974, 975, 976, 977, 978, 979, 980, 981, 982, 983, 984, 985, 986, 987, 988, 989, 990, 991, 992, 993, 994, 995, 996, 997, 998, 999, 1000, 1001, 1002, 1003, 1004, 1005, 1006, 1007, 1008, 1009, 1010, 1011, 1012, 1013, 1014, 1015, 1016],
      "AcquisitionTime": ["120549.280000", "120549.740000", "120550.200000", "120550.660000", "120551.120000", "120551.580000", "120552.040000", "120552.500000", "120552.960000", "120553.420000", "120553.880000", "120554.340000", "120554.800000", "120555.260000", "120555.720000", "120556.180000", "120556.640000", "120557.100000", "120557.560000", "120558.020000", "120558.480000", "120558.940000", "120559.400000", "120559.860000", "120600.320000", "120600.780000", "120601.240000", "120601.700000", "120602.160000", "120602.620000", "120603.080000", "120603.540000", "120604.000000", "120604.460000", "120604.920000", "120605.380000", "120605.840000", "120606.300000", "120606.760000", "120607.220000", "120607.680000", "120608.140000", "120608.600000", "120609.060000", "120609.520000", "120609.980000", "120610.440000", "120610.900000", "120611.360000", "120611.820000", "120612.280000", "120612.740000", "120613.200000", "120613.660000", "120614.120000", "120614.580000", "120615.040000", "120615.500000", "120615.960000", "120616.420000", "120616.880000", "120617.340000", "120617.800000", "120618.260000", "120618.720000", "120619.180000", "120619.640000", "120620.100000", "120620.560000", "120621.020000", "120621.480000", "120621.940000", "120622.400000", "120622.860000", "120623.320000", "120623.780000", "120624.240000", "120624.700000", "120625.160000", "120625.620000", "120626.080000", "120626.540000", "120627.000000", "120627.460000", "120627.920000", "120628.380000", "120628.840000", "120629.300000", "120629.760000", "120630.220000", "120630.680000", "120631.140000", "120631.600000", "120632.060000", "120632.520000", "120632.980000", "120633.440000", "120633.900000", "120634.360000", "120634.820000", "120635.280000", "120635.740000", "120636.200000", "120636.660000", "120637.120000", "120637.580000", "120638.040000", "120638.500000", "120638.960000", "120639.420000", "120639.880000", "120640.340000", "120640.800000", "120641.260000", "120641.720000", "120642.180000", "120642.640000", "120643.100000", "120643.560000", "120644.020000", "120644.480000", "120644.940000", "120645.400000", "120645.860000", "120646.320000", "120646.780000", "120647.240000", "120647.700000", "120648.160000", "120648.620000", "120649.080000", "120649.540000", "120650.000000", "120650.460000", "120650.920000", "120651.380000", "120651.840000", "120652.300000", "120652.760000", "120653.220000", "120653.680000", "120654.140000", "120654.600000", "120655.060000", "120655.520000", "120655.980000", "120656.440000", "120656.900000", "120657.360000", "120657.820000", "120658.280000", "120658.740000", "120659.200000", "120659.660000", "120700.120000", "120700.580000", "120701.040000", "120701.500000", "120701.960000", "120702.420000", "120702.880000", "120703.340000", "120703.800000", "120704.260000", "120704.720000", "120705.180000", "120705.640000", "120706.100000", "120706.560000", "120707.020000", "120707.480000", "120707.940000", "120708.400000", "120708.860000", "120709.320000", "120709.780000", "120710.240000", "120710.700000", "120711.160000", "120711.620000", "120712.080000", "120712.540000", "120713.000000", "120713.460000", "120713.920000", "120714.380000", "120714.840000", "120715.300000", "120715.760000", "120716.220000", "120716.680000", "120717.140000", "120717.600000", "120718.060000", "120718.520000", "120718.980000", "120719.440000", "120719.900000", "120720.360000", "120720.820000", "120721.280000", "120721.740000", "120722.200000", "120722.660000", "120723.120000", "120723.580000", "120724.040000", "120724.500000", "120724.960000", "120725.420000", "120725.880000", "120726.340000", "120726.800000", "120727.260000", "120727.720000", "120728.180000", "120728.640000", "120729.100000", "120729.560000", "120730.020000", "120730.480000", "120730.940000", "120731.400000", "120731.860000", "120732.320000", "120732.780000", "120733.240000", "120733.700000", "120734.160000", "120734.620000", "120735.080000", "120735.540000", "120736.000000", "120736.460000", "120736.920000", "120737.380000", "120737.840000", "120738.300000", "120738.760000", "120739.220000", "120739.680000", "120740.140000", "120740.600000", "120741.060000", "120741.520000", "120741.980000", "120742.440000", "120742.900000", "120743.360000", "120743.820000", "120744.280000", "120744.740000", "120745.200000", "120745.660000", "120746.120000", "120746.580000", "120747.040000", "120747.500000", "120747.960000", "120748.420000", "120748.880000", "120749.340000", "120749.800000", "120750.260000", "120750.720000", "120751.180000", "120751.640000", "120752.100000", "120752.560000", "120753.020000", "120753.480000", "120753.940000", "120754.400000", "120754.860000", "120755.320000", "120755.780000", "120756.240000", "120756.700000", "120757.160000", "120757.620000", "120758.080000", "120758.540000", "120759.000000", "120759.460000", "120759.920000", "120800.380000", "120800.840000", "120801.300000", "120801.760000", "120802.220000", "120802.680000", "120803.140000", "120803.600000", "120804.060000", "120804.520000", "120804.980000", "120805.440000", "120805.900000", "120806.360000", "120806.820000", "120807.280000", "120807.740000", "120808.200000", "120808.660000", "120809.120000", "120809.580000", "120810.040000", "120810.500000", "120810.960000", "120811.420000", "120811.880000", "120812.340000", "120812.800000", "120813.260000", "120813.720000", "120814.180000", "120814.640000", "120815.100000", "120815.560000", "120816.020000", "120816.480000", "120816.940000", "120817.400000", "120817.860000", "120818.320000", "120818.780000", "120819.240000", "120819.700000", "120820.160000", "120820.620000", "120821.080000", "120821.540000", "120822.000000", "120822.460000", "120822.920000", "120823.380000", "120823.840000", "120824.300000", "120824.760000", "120825.220000", "120825.680000", "120826.140000", "120826.600000", "120827.060000", "120827.520000", "120827.980000", "120828.440000", "120828.900000", "120829.360000", "120829.820000", "120830.280000", "120830.740000", "120831.200000", "120831.660000", "120832.120000", "120832.580000", "120833.040000", "120833.500000", "120833.960000", "120834.420000", "120834.880000", "120835.340000", "120835.800000", "120836.260000", "120836.720000", "120837.180000", "120837.640000", "120838.100000", "120838.560000", "120839.020000", "120839.480000", "120839.940000", "120840.400000", "120840.860000", "120841.320000", "120841.780000", "120842.240000", "120842.700000", "120843.160000", "120843.620000", "120844.080000", "120844.540000", "120845.000000", "120845.460000", "120845.920000", "120846.380000", "120846.840000", "120847.300000", "120847.760000", "120848.220000", "120848.680000", "120849.140000", "120849.600000", "120850.060000", "120850.520000", "120850.980000", "120851.440000", "120851.900000", "120852.360000", "120852.820000", "120853.280000", "120853.740000", "120854.200000", "120854.660000", "120855.120000", "120855.580000", "120856.040000", "120856.500000", "120856.960000", "120857.420000", "120857.880000", "120858.340000", "120858.800000", "120859.260000", "120859.720000", "120900.180000", "120900.640000", "120901.100000", "120901.560000", "120902.020000", "120902.480000", "120902.940000", "120903.400000", "120903.860000", "120904.320000", "120904.780000", "120905.240000", "120905.700000", "120906.160000", "120906.620000", "120907.080000", "120907.540000", "120908.000000", "120908.460000", "120908.920000", "120909.380000", "120909.840000", "120910.300000", "120910.760000", "120911.220000", "120911.680000", "120912.140000", "120912.600000", "120913.060000", "120913.520000", "120913.980000", "120914.440000", "120914.900000", "120915.360000", "120915.820000", "120916.280000", "120916.740000", "120917.200000", "120917.660000", "120918.120000", "120918.580000", "120919.040000", "120919.500000", "120919.960000", "120920.420000", "120920.880000", "120921.340000", "120921.800000", "120922.260000", "120922.720000", "120923.180000", "120923.640000", "120924.100000", "120924.560000", "120925.020000", "120925.480000", "120925.940000", "120926.400000", "120926.860000", "120927.320000", "120927.780000", "120928.240000", "120928.700000", "120929.160000", "120929.620000", "120930.080000", "120930.540000", "120931.000000", "120931.460000", "120931.920000", "120932.380000", "120932.840000", "120933.300000", "120933.760000", "120934.220000", "120934.680000", "120935.140000", "120935.600000", "120936.060000", "120936.520000", "120936.980000", "120937.440000", "120937.900000", "120938.360000", "120938.820000", "120939.280000", "120939.740000", "120940.200000", "120940.660000", "120941.120000", "120941.580000", "120942.040000", "120942.500000", "120942.960000", "120943.420000", "120943.880000", "120944.340000", "120944.800000", "120945.260000", "120945.720000", "120946.180000", "120946.640000", "120947.100000", "120947.560000", "120948.020000", "120948.480000", "120948.940000", "120949.400000", "120949.860000", "120950.320000", "120950.780000", "120951.240000", "120951.700000", "120952.160000", "120952.620000", "120953.080000", "120953.540000", "120954.000000", "120954.460000", "120954.920000", "120955.380000", "120955.840000", "120956.300000", "120956.760000", "120957.220000", "120957.680000", "120958.140000", "120958.600000", "120959.060000", "120959.520000", "120959.980000", "121000.440000", "121000.900000", "121001.360000", "121001.820000", "121002.280000", "121002.740000", "121003.200000", "121003.660000", "121004.120000", "121004.580000", "121005.040000", "121005.500000", "121005.960000", "121006.420000", "121006.880000", "121007.340000", "121007.800000", "121008.260000", "121008.720000", "121009.180000", "121009.640000", "121010.100000", "121010.560000", "121011.020000", "121011.480000", "121011.940000", "121012.400000", "121012.860000", "121013.320000", "121013.780000", "121014.240000", "121014.700000", "121015.160000", "121015.620000", "121016.080000", "121016.540000", "121017.000000", "121017.460000", "121017.920000", "121018.380000", "121018.840000", "121019.300000", "121019.760000", "121020.220000", "121020.680000", "121021.140000", "121021.600000", "121022.060000", "121022.520000", "121022.980000", "121023.440000", "121023.900000", "121024.360000", "121024.820000", "121025.280000", "121025.740000", "121026.200000", "121026.660000", "121027.120000", "121027.580000", "121028.040000", "121028.500000", "121028.960000", "121029.420000", "121029.880000", "121030.340000", "121030.800000", "121031.260000", "121031.720000", "121032.180000", "121032.640000", "121033.100000", "121033.560000", "121034.020000", "121034.480000", "121034.940000", "121035.400000", "121035.860000", "121036.320000", "121036.780000", "121037.240000", "121037.700000", "121038.160000", "121038.620000", "121039.080000", "121039.540000", "121040.000000", "121040.460000", "121040.920000", "121041.380000", "121041.840000", "121042.300000", "121042.760000", "121043.220000", "121043.680000", "121044.140000", "121044.600000", "121045.060000", "121045.520000", "121045.980000", "121046.440000", "121046.900000", "121047.360000", "121047.820000", "121048.280000", "121048.740000", "121049.200000", "121049.660000", "121050.120000", "121050.580000", "121051.040000", "121051.500000", "121051.960000", "121052.420000", "121052.880000", "121053.340000", "121053.800000", "121054.260000", "121054.720000", "121055.180000", "121055.640000", "121056.100000", "121056.560000", "121057.020000", "121057.480000", "121057.940000", "121058.400000", "121058.860000", "121059.320000", "121059.780000", "121100.240000", "121100.700000", "121101.160000", "121101.620000", "121102.080000", "121102.540000", "121103.000000", "121103.460000", "121103.920000", "121104.380000", "121104.840000", "121105.300000", "121105.760000", "121106.220000", "121106.680000", "121107.140000", "121107.600000", "121108.060000", "121108.520000", "121108.980000", "121109.440000", "121109.900000", "121110.360000", "121110.820000", "121111.280000", "121111.740000", "121112.200000", "121112.660000", "121113.120000", "121113.580000", "121114.040000", "121114.500000", "121114.960000", "121115.420000", "121115.880000", "121116.340000", "121116.800000", "121117.260000", "121117.720000", "121118.180000", "121118.640000", "121119.100000", "121119.560000", "121120.020000", "121120.480000", "121120.940000", "121121.400000", "121121.860000", "121122.320000", "121122.780000", "121123.240000", "121123.700000", "121124.160000", "121124.620000", "121125.080000", "121125.540000", "121126.000000", "121126.460000", "121126.920000", "121127.380000", "121127.840000", "121128.300000", "121128.760000", "121129.220000", "121129.680000", "121130.140000", "121130.600000", "121131.060000", "121131.520000", "121131.980000", "121132.440000", "121132.900000", "121133.360000", "121133.820000", "121134.280000", "121134.740000", "121135.200000", "121135.660000", "121136.120000", "121136.580000", "121137.040000", "121137.500000", "121137.960000", "121138.420000", "121138.880000", "121139.340000", "121139.800000", "121140.260000", "121140.720000", "121141.180000", "121141.640000", "121142.100000", "121142.560000", "121143.020000", "121143.480000", "121143.940000", "121144.400000", "121144.860000", "121145.320000", "121145.780000", "121146.240000", "121146.700000", "121147.160000", "121147.620000", "121148.080000", "121148.540000", "121149.000000", "121149.460000", "121149.920000", "121150.380000", "121150.840000", "121151.300000", "121151.760000", "121152.220000", "121152.680000", "121153.140000", "121153.600000", "121154.060000", "121154.520000", "121154.980000", "121155.440000", "121155.900000", "121156.360000", "121156.820000", "121157.280000", "121157.740000", "121158.200000", "121158.660000", "121159.120000", "121159.580000", "121200.040000", "121200.500000", "121200.960000", "121201.420000", "121201.880000", "121202.340000", "121202.800000", "121203.260000", "121203.720000", "121204.180000", "121204.640000", "121205.100000", "121205.560000", "121206.020000", "121206.480000", "121206.940000", "121207.400000", "121207.860000", "121208.320000", "121208.780000", "121209.240000", "121209.700000", "121210.160000", "121210.620000", "121211.080000", "121211.540000", "121212.000000", "121212.460000", "121212.920000", "121213.380000", "121213.840000", "121214.300000", "121214.760000", "121215.220000", "121215.680000", "121216.140000", "121216.600000", "121217.060000", "121217.520000", "121217.980000", "121218.440000", "121218.900000", "121219.360000", "121219.820000", "121220.280000", "121220.740000", "121221.200000", "121221.660000", "121222.120000", "121222.580000", "121223.040000", "121223.500000", "121223.960000", "121224.420000", "121224.880000", "121225.340000", "121225.800000", "121226.260000", "121226.720000", "121227.180000", "121227.640000", "121228.100000", "121228.560000", "121229.020000", "121229.480000", "121229.940000", "121230.400000", "121230.860000", "121231.320000", "121231.780000", "121232.240000", "121232.700000", "121233.160000", "121233.620000", "121234.080000", "121234.540000", "121235.000000", "121235.460000", "121235.920000", "121236.380000", "121236.840000", "121237.300000", "121237.760000", "121238.220000", "121238.680000", "121239.140000", "121239.600000", "121240.060000", "121240.520000", "121240.980000", "121241.440000", "121241.900000", "121242.360000", "121242.820000", "121243.280000", "121243.740000", "121244.200000", "121244.660000", "121245.120000", "121245.580000", "121246.040000", "121246.500000", "121246.960000", "121247.420000", "121247.880000", "121248.340000", "121248.800000", "121249.260000", "121249.720000", "121250.180000", "121250.640000", "121251.100000", "121251.560000", "121252.020000", "121252.480000", "121252.940000", "121253.400000", "121253.860000", "121254.320000", "121254.780000", "121255.240000", "121255.700000", "121256.160000", "121256.620000", "121257.080000", "121257.540000", "121258.000000", "121258.460000", "121258.920000", "121259.380000", "121259.840000", "121300.300000", "121300.760000", "121301.220000", "121301.680000", "121302.140000", "121302.600000", "121303.060000", "121303.520000", "121303.980000", "121304.440000", "121304.900000", "121305.360000", "121305.820000", "121306.280000", "121306.740000", "121307.200000", "121307.660000", "121308.120000", "121308.580000", "121309.040000", "121309.500000", "121309.960000", "121310.420000", "121310.880000", "121311.340000", "121311.800000", "121312.260000", "121312.720000", "121313.180000", "121313.640000", "121314.100000", "121314.560000", "121315.020000", "121315.480000", "121315.940000", "121316.400000", "121316.860000", "121317.320000", "121317.780000", "121318.240000", "121318.700000", "121319.160000", "121319.620000", "121320.080000", "121320.540000", "121321.000000", "121321.460000", "121321.920000", "121322.380000", "121322.840000", "121323.300000", "121323.760000", "121324.220000", "121324.680000", "121325.140000", "121325.600000", "121326.060000", "121326.520000", "121326.980000", "121327.440000", "121327.900000", "121328.360000", "121328.820000", "121329.280000", "121329.740000", "121330.200000", "121330.660000", "121331.120000", "121331.580000", "121332.040000", "121332.500000", "121332.960000", "121333.420000", "121333.880000", "121334.340000", "121334.800000", "121335.260000", "121335.720000", "121336.180000"],
