{
  "AcquisitionMatrixPE": 82,
  "AcquisitionNumber": 1,
  "AcquisitionTime": "12:23:49.250000",
  "BandwidthPerPixelPhaseEncode": 24.888,
  "BaseResolution": 82,
  "BodyPartExamined": "BRAIN",
  "ConsistencyInfo": "N4_VE11C_LATEST_20160120",
  "ConversionSoftware": "dcm2niix",
  "ConversionSoftwareVersion": "v1.0.20201102",
  "DerivedVendorReportedEchoSpacing": 0.00049,
  "DeviceSerialNumber": "66112",
  "DwellTime": 2e-06,
  "EchoTime": 0.0272,
  "EchoTrainLength": 82,
  "EffectiveEchoSpacing": 0.00049,
  "FlipAngle": 44,
  "ImageComments": "Unaliased MB8/PE3",
  "ImageOrientationPatientDICOM": [0.999199, -0.0339544, -0.0211742, 0.0357659, 0.995113, 0.0920324],
  "ImageType": [
    "ORIGINAL",
    "PRIMARY",
    "M",
    "MB",
    "ND",
    "NORM",
    "MOSAIC"
],
  "ImagingFrequency": 123.252,
  "InPlanePhaseEncodingDirectionDICOM": "COL",
  "InstitutionAddress": "Maynard 3,Hanover,NH,US,03755",
  "InstitutionName": "Dartmouth College - PBS",
  "InstitutionalDepartmentName": "Department",
  "MRAcquisitionType": "2D",
  "MagneticFieldStrength": 3,
  "Manufacturer": "Siemens",
  "ManufacturersModelName": "Prisma",
  "Modality": "MR",
  "MultibandAccelerationFactor": 8,
  "PartialFourier": 1,
  "PatientPosition": "HFS",
  "PercentPhaseFOV": 100,
  "PercentSampling": 100,
  "PhaseEncodingDirection": "j-",
  "PhaseEncodingSteps": 82,
  "PhaseResolution": 1,
  "PixelBandwidth": 3050,
  "ProcedureStepDescription": "Wager_Wager^1076_spacetop",
  "ProtocolName": "func_run-02_task-faces_acq-ap-mb8",
  "PulseSequenceDetails": "%CustomerSeq%\\cmrr_mbep2d_bold",
  "ReceiveCoilActiveElements": "HEA;HEP",
  "ReceiveCoilName": "Head_32",
  "ReconMatrixPE": 82,
  "RepetitionTime": 0.46,
  "SAR": 0.121982,
  "ScanOptions": "FS",
  "ScanningSequence": "EP",
  "SequenceName": "epfid2d1_82",
  "SequenceVariant": "SK\\SS",
  "SeriesDescription": "func_run-02_task-faces_acq-ap-mb8",
  "SeriesNumber": 18,
  "ShimSetting": [4134, -7795, -7204, 570, -35, -220, -27, 52],
  "SliceThickness": 2.7,
  "SliceTiming": [0, 0.25, 0.0625, 0.3125, 0.125, 0.375, 0.1875, 0, 0.25, 0.0625, 0.3125, 0.125, 0.375, 0.1875, 0, 0.25, 0.0625, 0.3125, 0.125, 0.375, 0.1875, 0, 0.25, 0.0625, 0.3125, 0.125, 0.375, 0.1875, 0, 0.25, 0.0625, 0.3125, 0.125, 0.375, 0.1875, 0, 0.25, 0.0625, 0.3125, 0.125, 0.375, 0.1875, 0, 0.25, 0.0625, 0.3125, 0.125, 0.375, 0.1875, 0, 0.25, 0.0625, 0.3125, 0.125, 0.375, 0.1875],
  "SoftwareVersions": "syngo MR E11",
  "SpacingBetweenSlices": 2.7,
  "StationName": "AWP66112",
  "TaskName": "faces",
  "TotalReadoutTime": 0.03969,
  "TxRefAmp": 256.998,
  "WipMemBlock": "cb44ecaa-72a5-4001-b478-a713e36552df||Sequence: R016 ve11c/master r/e634e98; Dec 19 2017 11:00:25 by eja",
  "dcmmeta_affine": [
    [-2.6807780265808105, 0.09595724940299988, -0.04845375195145607, 112.40705871582031],
    [0.09109728038311005, 2.669816732406616, 0.250333309173584, -93.83434295654297],
    [-0.05680886283516884, -0.24691632390022278, 2.6879332065582275, -24.729276657104492],
    [0.0, 0.0, 0.0, 1.0]
],
  "dcmmeta_reorient_transform": [
    [0.0, -1.0, 0.0, 81.0],
    [1.0, 0.0, 0.0, 0.0],
    [0.0, 0.0, 1.0, 0.0],
    [0.0, 0.0, 0.0, 1.0]
],
  "dcmmeta_shape": [82, 82, 56, 914],
  "dcmmeta_slice_dim": 2,
  "dcmmeta_version": 0.6,
  "global": {
    "const": {
      "AccessionNumber": "A003746",
      "AcquisitionMatrix": [82, 0, 0, 82],
      "AngioFlag": "N",
      "BitsAllocated": 16,
      "BitsStored": 16,
      "BodyPartExamined": "BRAIN",
      "Columns": 656,
      "EchoNumbers": 1,
      "EchoTime": 27.2,
      "EchoTrainLength": 82,
      "FlipAngle": 44.0,
      "HighBit": 15,
      "ImageOrientationPatient": [0.99919905359823, -0.0339544403972, -0.021174212281, 0.03576588230584, 0.99511347628682, 0.09203244523123],
      "ImagePositionPatient": [-917.10261896526, -862.5132891621, -99.290339408922],
      "ImageType": [
        "ORIGINAL",
        "PRIMARY",
        "M",
        "MB",
        "ND",
        "NORM",
        "MOSAIC"
],
      "ImagedNucleus": "1H",
      "ImagingFrequency": 123.252243,
      "InPlanePhaseEncodingDirection": "COL",
      "MRAcquisitionType": "2D",
      "MagneticFieldStrength": 3.0,
      "Manufacturer": "SIEMENS",
      "ManufacturerModelName": "Prisma",
      "Modality": "MR",
      "NumberOfAverages": 1.0,
      "NumberOfPhaseEncodingSteps": 82,
      "PercentPhaseFieldOfView": 100.0,
      "PercentSampling": 100.0,
      "PerformedProcedureStepStartTime": "112726.357000",
      "PhotometricInterpretation": "MONOCHROME2",
      "PixelBandwidth": 3050.0,
      "PixelRepresentation": 0,
      "PixelSpacing": [2.6829268932343, 2.6829268932343],
      "ProtocolName": "func_run-02_task-faces_acq-ap-mb8",
      "RepetitionTime": 460.0,
      "Rows": 656,
      "SAR": 0.12198233834003,
      "SamplesPerPixel": 1,
      "ScanOptions": "FS",
      "ScanningSequence": "EP",
      "SequenceName": "epfid2d1_82",
      "SequenceVariant": [
        "SK",
        "SS"
],
      "SeriesDescription": "func_run-02_task-faces_acq-ap-mb8",
      "SeriesNumber": 18,
      "SeriesTime": "122358.531000",
      "SliceLocation": -35.335945324599,
      "SliceThickness": 2.7000000476837,
      "SmallestImagePixelValue": 0,
      "SoftwareVersions": "syngo MR E11",
      "SpacingBetweenSlices": 2.6999999750145,
      "SpecificCharacterSet": "ISO_IR 100",
      "StudyID": "2",
      "StudyTime": "112726.317000",
      "TransmitCoilName": "Body",
      "VariableFlipAngleFlag": "N",
      "WindowCenterWidthExplanation": "Algo1",
      "dBdt": 0.0},
    "slices": {}
  },
  "time": {
    "samples": {
      "AcquisitionNumber": [1, 2, 3, 4, 5, 6, 7, 8, 9, 10, 11, 12, 13, 14, 15, 16, 17, 18, 19, 20, 21, 22, 23, 24, 25, 26, 27, 28, 29, 30, 31, 32, 33, 34, 35, 36, 37, 38, 39, 40, 41, 42, 43, 44, 45, 46, 47, 48, 49, 50, 51, 52, 53, 54, 55, 56, 57, 58, 59, 60, 61, 62, 63, 64, 65, 66, 67, 68, 69, 70, 71, 72, 73, 74, 75, 76, 77, 78, 79, 80, 81, 82, 83, 84, 85, 86, 87, 88, 89, 90, 91, 92, 93, 94, 95, 96, 97, 98, 99, 100, 101, 102, 103, 104, 105, 106, 107, 108, 109, 110, 111, 112, 113, 114, 115, 116, 117, 118, 119, 120, 121, 122, 123, 124, 125, 126, 127, 128, 129, 130, 131, 132, 133, 134, 135, 136, 137, 138, 139, 140, 141, 142, 143, 144, 145, 146, 147, 148, 149, 150, 151, 152, 153, 154, 155, 156, 157, 158, 159, 160, 161, 162, 163, 164, 165, 166, 167, 168, 169, 170, 171, 172, 173, 174, 175, 176, 177, 178, 179, 180, 181, 182, 183, 184, 185, 186, 187, 188, 189, 190, 191, 192, 193, 194, 195, 196, 197, 198, 199, 200, 201, 202, 203, 204, 205, 206, 207, 208, 209, 210, 211, 212, 213, 214, 215, 216, 217, 218, 219, 220, 221, 222, 223, 224, 225, 226, 227, 228, 229, 230, 231, 232, 233, 234, 235, 236, 237, 238, 239, 240, 241, 242, 243, 244, 245, 246, 247, 248, 249, 250, 251, 252, 253, 254, 255, 256, 257, 258, 259, 260, 261, 262, 263, 264, 265, 266, 267, 268, 269, 270, 271, 272, 273, 274, 275, 276, 277, 278, 279, 280, 281, 282, 283, 284, 285, 286, 287, 288, 289, 290, 291, 292, 293, 294, 295, 296, 297, 298, 299, 300, 301, 302, 303, 304, 305, 306, 307, 308, 309, 310, 311, 312, 313, 314, 315, 316, 317, 318, 319, 320, 321, 322, 323, 324, 325, 326, 327, 328, 329, 330, 331, 332, 333, 334, 335, 336, 337, 338, 339, 340, 341, 342, 343, 344, 345, 346, 347, 348, 349, 350, 351, 352, 353, 354, 355, 356, 357, 358, 359, 360, 361, 362, 363, 364, 365, 366, 367, 368, 369, 370, 371, 372, 373, 374, 375, 376, 377, 378, 379, 380, 381, 382, 383, 384, 385, 386, 387, 388, 389, 390, 391, 392, 393, 394, 395, 396, 397, 398, 399, 400, 401, 402, 403, 404, 405, 406, 407, 408, 409, 410, 411, 412, 413, 414, 415, 416, 417, 418, 419, 420, 421, 422, 423, 424, 425, 426, 427, 428, 429, 430, 431, 432, 433, 434, 435, 436, 437, 438, 439, 440, 441, 442, 443, 444, 445, 446, 447, 448, 449, 450, 451, 452, 453, 454, 455, 456, 457, 458, 459, 460, 461, 462, 463, 464, 465, 466, 467, 468, 469, 470, 471, 472, 473, 474, 475, 476, 477, 478, 479, 480, 481, 482, 483, 484, 485, 486, 487, 488, 489, 490, 491, 492, 493, 494, 495, 496, 497, 498, 499, 500, 501, 502, 503, 504, 505, 506, 507, 508, 509, 510, 511, 512, 513, 514, 515, 516, 517, 518, 519, 520, 521, 522, 523, 524, 525, 526, 527, 528, 529, 530, 531, 532, 533, 534, 535, 536, 537, 538, 539, 540, 541, 542, 543, 544, 545, 546, 547, 548, 549, 550, 551, 552, 553, 554, 555, 556, 557, 558, 559, 560, 561, 562, 563, 564, 565, 566, 567, 568, 569, 570, 571, 572, 573, 574, 575, 576, 577, 578, 579, 580, 581, 582, 583, 584, 585, 586, 587, 588, 589, 590, 591, 592, 593, 594, 595, 596, 597, 598, 599, 600, 601, 602, 603, 604, 605, 606, 607, 608, 609, 610, 611, 612, 613, 614, 615, 616, 617, 618, 619, 620, 621, 622, 623, 624, 625, 626, 627, 628, 629, 630, 631, 632, 633, 634, 635, 636, 637, 638, 639, 640, 641, 642, 643, 644, 645, 646, 647, 648, 649, 650, 651, 652, 653, 654, 655, 656, 657, 658, 659, 660, 661, 662, 663, 664, 665, 666, 667, 668, 669, 670, 671, 672, 673, 674, 675, 676, 677, 678, 679, 680, 681, 682, 683, 684, 685, 686, 687, 688, 689, 690, 691, 692, 693, 694, 695, 696, 697, 698, 699, 700, 701, 702, 703, 704, 705, 706, 707, 708, 709, 710, 711, 712, 713, 714, 715, 716, 717, 718, 719, 720, 721, 722, 723, 724, 725, 726, 727, 728, 729, 730, 731, 732, 733, 734, 735, 736, 737, 738, 739, 740, 741, 742, 743, 744, 745, 746, 747, 748, 749, 750, 751, 752, 753, 754, 755, 756, 757, 758, 759, 760, 761, 762, 763, 764, 765, 766, 767, 768, 769, 770, 771, 772, 773, 774, 775, 776, 777, 778, 779, 780, 781, 782, 783, 784, 785, 786, 787, 788, 789, 790, 791, 792, 793, 794, 795, 796, 797, 798, 799, 800, 801, 802, 803, 804, 805, 806, 807, 808, 809, 810, 811, 812, 813, 814, 815, 816, 817, 818, 819, 820, 821, 822, 823, 824, 825, 826, 827, 828, 829, 830, 831, 832, 833, 834, 835, 836, 837, 838, 839, 840, 841, 842, 843, 844, 845, 846, 847, 848, 849, 850, 851, 852, 853, 854, 855, 856, 857, 858, 859, 860, 861, 862, 863, 864, 865, 866, 867, 868, 869, 870, 871, 872, 873, 874, 875, 876, 877, 878, 879, 880, 881, 882, 883, 884, 885, 886, 887, 888, 889, 890, 891, 892, 893, 894, 895, 896, 897, 898, 899, 900, 901, 902, 903, 904, 905, 906, 907, 908, 909, 910, 911, 912, 913, 914],
      "AcquisitionTime": ["122349.250000", "122349.710000", "122350.170000", "122350.630000", "122351.090000", "122351.550000", "122352.010000", "122352.470000", "122352.930000", "122353.390000", "122353.850000", "122354.310000", "122354.770000", "122355.230000", "122355.690000", "122356.150000", "122356.610000", "122357.070000", "122357.530000", "122357.990000", "122358.450000", "122358.910000", "122359.370000", "122359.830000", "122400.290000", "122400.750000", "122401.210000", "122401.670000", "122402.130000", "122402.590000", "122403.050000", "122403.510000", "122403.970000", "122404.430000", "122404.890000", "122405.350000", "122405.810000", "122406.270000", "122406.730000", "122407.190000", "122407.650000", "122408.110000", "122408.570000", "122409.030000", "122409.490000", "122409.950000", "122410.410000", "122410.870000", "122411.330000", "122411.790000", "122412.250000", "122412.710000", "122413.170000", "122413.630000", "122414.090000", "122414.550000", "122415.010000", "122415.470000", "122415.930000", "122416.390000", "122416.850000", "122417.310000", "122417.770000", "122418.230000", "122418.690000", "122419.150000", "122419.610000", "122420.070000", "122420.530000", "122420.990000", "122421.450000", "122421.910000", "122422.370000", "122422.830000", "122423.290000", "122423.750000", "122424.210000", "122424.670000", "122425.130000", "122425.590000", "122426.050000", "122426.510000", "122426.970000", "122427.430000", "122427.890000", "122428.350000", "122428.810000", "122429.270000", "122429.730000", "122430.190000", "122430.650000", "122431.110000", "122431.570000", "122432.030000", "122432.490000", "122432.950000", "122433.410000", "122433.870000", "122434.330000", "122434.790000", "122435.250000", "122435.710000", "122436.170000", "122436.630000", "122437.090000", "122437.550000", "122438.010000", "122438.470000", "122438.930000", "122439.390000", "122439.850000", "122440.310000", "122440.770000", "122441.230000", "122441.690000", "122442.150000", "122442.610000", "122443.070000", "122443.530000", "122443.990000", "122444.450000", "122444.910000", "122445.370000", "122445.830000", "122446.290000", "122446.750000", "122447.210000", "122447.670000", "122448.130000", "122448.590000", "122449.050000", "122449.510000", "122449.970000", "122450.430000", "122450.890000", "122451.350000", "122451.810000", "122452.270000", "122452.730000", "122453.190000", "122453.650000", "122454.110000", "122454.570000", "122455.030000", "122455.490000", "122455.950000", "122456.410000", "122456.870000", "122457.330000", "122457.790000", "122458.250000", "122458.710000", "122459.170000", "122459.630000", "122500.090000", "122500.550000", "122501.010000", "122501.470000", "122501.930000", "122502.390000", "122502.850000", "122503.310000", "122503.770000", "122504.230000", "122504.690000", "122505.150000", "122505.610000", "122506.070000", "122506.530000", "122506.990000", "122507.450000", "122507.910000", "122508.370000", "122508.830000", "122509.290000", "122509.750000", "122510.210000", "122510.670000", "122511.130000", "122511.590000", "122512.050000", "122512.510000", "122512.970000", "122513.430000", "122513.890000", "122514.350000", "122514.810000", "122515.270000", "122515.730000", "122516.190000", "122516.650000", "122517.110000", "122517.570000", "122518.030000", "122518.490000", "122518.950000", "122519.410000", "122519.870000", "122520.330000", "122520.790000", "122521.250000", "122521.710000", "122522.170000", "122522.630000", "122523.090000", "122523.550000", "122524.010000", "122524.470000", "122524.930000", "122525.390000", "122525.850000", "122526.310000", "122526.770000", "122527.230000", "122527.690000", "122528.150000", "122528.610000", "122529.070000", "122529.530000", "122529.990000", "122530.450000", "122530.910000", "122531.370000", "122531.830000", "122532.290000", "122532.750000", "122533.210000", "122533.670000", "122534.130000", "122534.590000", "122535.050000", "122535.510000", "122535.970000", "122536.430000", "122536.890000", "122537.350000", "122537.810000", "122538.270000", "122538.730000", "122539.190000", "122539.650000", "122540.110000", "122540.570000", "122541.030000", "122541.490000", "122541.950000", "122542.410000", "122542.870000", "122543.330000", "122543.790000", "122544.250000", "122544.710000", "122545.170000", "122545.630000", "122546.090000", "122546.550000", "122547.010000", "122547.470000", "122547.930000", "122548.390000", "122548.850000", "122549.310000", "122549.770000", "122550.230000", "122550.690000", "122551.150000", "122551.610000", "122552.070000", "122552.530000", "122552.990000", "122553.450000", "122553.910000", "122554.370000", "122554.830000", "122555.290000", "122555.750000", "122556.210000", "122556.670000", "122557.130000", "122557.590000", "122558.050000", "122558.510000", "122558.970000", "122559.430000", "122559.890000", "122600.350000", "122600.810000", "122601.270000", "122601.730000", "122602.190000", "122602.650000", "122603.110000", "122603.570000", "122604.030000", "122604.490000", "122604.950000", "122605.410000", "122605.870000", "122606.330000", "122606.790000", "122607.250000", "122607.710000", "122608.170000", "122608.630000", "122609.090000", "122609.550000", "122610.010000", "122610.470000", "122610.930000", "122611.390000", "122611.850000", "122612.310000", "122612.770000", "122613.230000", "122613.690000", "122614.150000", "122614.610000", "122615.070000", "122615.530000", "122615.990000", "122616.450000", "122616.910000", "122617.370000", "122617.830000", "122618.290000", "122618.750000", "122619.210000", "122619.670000", "122620.130000", "122620.590000", "122621.050000", "122621.510000", "122621.970000", "122622.430000", "122622.890000", "122623.350000", "122623.810000", "122624.270000", "122624.730000", "122625.190000", "122625.650000", "122626.110000", "122626.570000", "122627.030000", "122627.490000", "122627.950000", "122628.410000", "122628.870000", "122629.330000", "122629.790000", "122630.250000", "122630.710000", "122631.170000", "122631.630000", "122632.090000", "122632.550000", "122633.010000", "122633.470000", "122633.930000", "122634.390000", "122634.850000", "122635.310000", "122635.770000", "122636.230000", "122636.690000", "122637.150000", "122637.610000", "122638.070000", "122638.530000", "122638.990000", "122639.450000", "122639.910000", "122640.370000", "122640.830000", "122641.290000", "122641.750000", "122642.210000", "122642.670000", "122643.130000", "122643.590000", "122644.050000", "122644.510000", "122644.970000", "122645.430000", "122645.890000", "122646.350000", "122646.810000", "122647.270000", "122647.730000", "122648.190000", "122648.650000", "122649.110000", "122649.570000", "122650.030000", "122650.490000", "122650.950000", "122651.410000", "122651.870000", "122652.330000", "122652.790000", "122653.250000", "122653.710000", "122654.170000", "122654.630000", "122655.090000", "122655.550000", "122656.010000", "122656.470000", "122656.930000", "122657.390000", "122657.850000", "122658.310000", "122658.770000", "122659.230000", "122659.690000", "122700.150000", "122700.610000", "122701.070000", "122701.530000", "122701.990000", "122702.450000", "122702.910000", "122703.370000", "122703.830000", "122704.290000", "122704.750000", "122705.210000", "122705.670000", "122706.130000", "122706.590000", "122707.050000", "122707.510000", "122707.970000", "122708.430000", "122708.890000", "122709.350000", "122709.810000", "122710.270000", "122710.730000", "122711.190000", "122711.650000", "122712.110000", "122712.570000", "122713.030000", "122713.490000", "122713.950000", "122714.410000", "122714.870000", "122715.330000", "122715.790000", "122716.250000", "122716.710000", "122717.170000", "122717.630000", "122718.090000", "122718.550000", "122719.010000", "122719.470000", "122719.930000", "122720.390000", "122720.850000", "122721.310000", "122721.770000", "122722.230000", "122722.690000", "122723.150000", "122723.610000", "122724.070000", "122724.530000", "122724.990000", "122725.450000", "122725.910000", "122726.370000", "122726.830000", "122727.290000", "122727.750000", "122728.210000", "122728.670000", "122729.130000", "122729.590000", "122730.050000", "122730.510000", "122730.970000", "122731.430000", "122731.890000", "122732.350000", "122732.810000", "122733.270000", "122733.730000", "122734.190000", "122734.650000", "122735.110000", "122735.570000", "122736.030000", "122736.490000", "122736.950000", "122737.410000", "122737.870000", "122738.330000", "122738.790000", "122739.250000", "122739.710000", "122740.170000", "122740.630000", "122741.090000", "122741.550000", "122742.010000", "122742.470000", "122742.930000", "122743.390000", "122743.850000", "122744.310000", "122744.770000", "122745.230000", "122745.690000", "122746.150000", "122746.610000", "122747.070000", "122747.530000", "122747.990000", "122748.450000", "122748.910000", "122749.370000", "122749.830000", "122750.290000", "122750.750000", "122751.210000", "122751.670000", "122752.130000", "122752.590000", "122753.050000", "122753.510000", "122753.970000", "122754.430000", "122754.890000", "122755.350000", "122755.810000", "122756.270000", "122756.730000", "122757.190000", "122757.650000", "122758.110000", "122758.570000", "122759.030000", "122759.490000", "122759.950000", "122800.410000", "122800.870000", "122801.330000", "122801.790000", "122802.250000", "122802.710000", "122803.170000", "122803.630000", "122804.090000", "122804.550000", "122805.010000", "122805.470000", "122805.930000", "122806.390000", "122806.850000", "122807.310000", "122807.770000", "122808.230000", "122808.690000", "122809.150000", "122809.610000", "122810.070000", "122810.530000", "122810.990000", "122811.450000", "122811.910000", "122812.370000", "122812.830000", "122813.290000", "122813.750000", "122814.210000", "122814.670000", "122815.130000", "122815.590000", "122816.050000", "122816.510000", "122816.970000", "122817.430000", "122817.890000", "122818.350000", "122818.810000", "122819.270000", "122819.730000", "122820.190000", "122820.650000", "122821.110000", "122821.570000", "122822.030000", "122822.490000", "122822.950000", "122823.410000", "122823.870000", "122824.330000", "122824.790000", "122825.250000", "122825.710000", "122826.170000", "122826.630000", "122827.090000", "122827.550000", "122828.010000", "122828.470000", "122828.930000", "122829.390000", "122829.850000", "122830.310000", "122830.770000", "122831.230000", "122831.690000", "122832.150000", "122832.610000", "122833.070000", "122833.530000", "122833.990000", "122834.450000", "122834.910000", "122835.370000", "122835.830000", "122836.290000", "122836.750000", "122837.210000", "122837.670000", "122838.130000", "122838.590000", "122839.050000", "122839.510000", "122839.970000", "122840.430000", "122840.890000", "122841.350000", "122841.810000", "122842.270000", "122842.730000", "122843.190000", "122843.650000", "122844.110000", "122844.570000", "122845.030000", "122845.490000", "122845.950000", "122846.410000", "122846.870000", "122847.330000", "122847.790000", "122848.250000", "122848.710000", "122849.170000", "122849.630000", "122850.090000", "122850.550000", "122851.010000", "122851.470000", "122851.930000", "122852.390000", "122852.850000", "122853.310000", "122853.770000", "122854.230000", "122854.690000", "122855.150000", "122855.610000", "122856.070000", "122856.530000", "122856.990000", "122857.450000", "122857.910000", "122858.370000", "122858.830000", "122859.290000", "122859.750000", "122900.210000", "122900.670000", "122901.130000", "122901.590000", "122902.050000", "122902.510000", "122902.970000", "122903.430000", "122903.890000", "122904.350000", "122904.810000", "122905.270000", "122905.730000", "122906.190000", "122906.650000", "122907.110000", "122907.570000", "122908.030000", "122908.490000", "122908.950000", "122909.410000", "122909.870000", "122910.330000", "122910.790000", "122911.250000", "122911.710000", "122912.170000", "122912.630000", "122913.090000", "122913.550000", "122914.010000", "122914.470000", "122914.930000", "122915.390000", "122915.850000", "122916.310000", "122916.770000", "122917.230000", "122917.690000", "122918.150000", "122918.610000", "122919.070000", "122919.530000", "122919.990000", "122920.450000", "122920.910000", "122921.370000", "122921.830000", "122922.290000", "122922.750000", "122923.210000", "122923.670000", "122924.130000", "122924.590000", "122925.050000", "122925.510000", "122925.970000", "122926.430000", "122926.890000", "122927.350000", "122927.810000", "122928.270000", "122928.730000", "122929.190000", "122929.650000", "122930.110000", "122930.570000", "122931.030000", "122931.490000", "122931.950000", "122932.410000", "122932.870000", "122933.330000", "122933.790000", "122934.250000", "122934.710000", "122935.170000", "122935.630000", "122936.090000", "122936.550000", "122937.010000", "122937.470000", "122937.930000", "122938.390000", "122938.850000", "122939.310000", "122939.770000", "122940.230000", "122940.690000", "122941.150000", "122941.610000", "122942.070000", "122942.530000", "122942.990000", "122943.450000", "122943.910000", "122944.370000", "122944.830000", "122945.290000", "122945.750000", "122946.210000", "122946.670000", "122947.130000", "122947.590000", "122948.050000", "122948.510000", "122948.970000", "122949.430000", "122949.890000", "122950.350000", "122950.810000", "122951.270000", "122951.730000", "122952.190000", "122952.650000", "122953.110000", "122953.570000", "122954.030000", "122954.490000", "122954.950000", "122955.410000", "122955.870000", "122956.330000", "122956.790000", "122957.250000", "122957.710000", "122958.170000", "122958.630000", "122959.090000", "122959.550000", "123000.010000", "123000.470000", "123000.930000", "123001.390000", "123001.850000", "123002.310000", "123002.770000", "123003.230000", "123003.690000", "123004.150000", "123004.610000", "123005.070000", "123005.530000", "123005.990000", "123006.450000", "123006.910000", "123007.370000", "123007.830000", "123008.290000", "123008.750000", "123009.210000", "123009.670000", "123010.130000", "123010.590000", "123011.050000", "123011.510000", "123011.970000", "123012.430000", "123012.890000", "123013.350000", "123013.810000", "123014.270000", "123014.730000", "123015.190000", "123015.650000", "123016.110000", "123016.570000", "123017.030000", "123017.490000", "123017.950000", "123018.410000", "123018.870000", "123019.330000", "123019.790000", "123020.250000", "123020.710000", "123021.170000", "123021.630000", "123022.090000", "123022.550000", "123023.010000", "123023.470000", "123023.930000", "123024.390000", "123024.850000", "123025.310000", "123025.770000", "123026.230000", "123026.690000", "123027.150000", "123027.610000", "123028.070000", "123028.530000", "123028.990000", "123029.450000", "123029.910000", "123030.370000", "123030.830000", "123031.290000", "123031.750000", "123032.210000", "123032.670000", "123033.130000", "123033.590000", "123034.050000", "123034.510000", "123034.970000", "123035.430000", "123035.890000", "123036.350000", "123036.810000", "123037.270000", "123037.730000", "123038.190000", "123038.650000", "123039.110000", "123039.570000", "123040.030000", "123040.490000", "123040.950000", "123041.410000", "123041.870000", "123042.330000", "123042.790000", "123043.250000", "123043.710000", "123044.170000", "123044.630000", "123045.090000", "123045.550000", "123046.010000", "123046.470000", "123046.930000", "123047.390000", "123047.850000", "123048.310000", "123048.770000", "123049.230000"],
