{
  "AcquisitionMatrixPE": 82,
  "AcquisitionNumber": 1,
  "AcquisitionTime": "13:21:1.147500",
  "BandwidthPerPixelPhaseEncode": 24.888,
  "BaseResolution": 82,
  "BodyPartExamined": "BRAIN",
  "ConsistencyInfo": "N4_VE11C_LATEST_20160120",
  "ConversionSoftware": "dcm2niix",
  "ConversionSoftwareVersion": "v1.0.20201102",
  "DerivedVendorReportedEchoSpacing": 0.00049,
  "DeviceSerialNumber": "66112",
  "DwellTime": 2e-06,
  "EchoTime": 0.0272,
  "EchoTrainLength": 82,
  "EffectiveEchoSpacing": 0.00049,
  "FlipAngle": 44,
  "ImageComments": "Unaliased MB8/PE3",
  "ImageOrientationPatientDICOM": [0.999311, -0.0249788, -0.027448, 0.0261679, 0.998695, 0.043852],
  "ImageType": [
    "ORIGINAL",
    "PRIMARY",
    "M",
    "MB",
    "ND",
    "NORM",
    "MOSAIC"
],
  "ImagingFrequency": 123.252,
  "InPlanePhaseEncodingDirectionDICOM": "COL",
  "InstitutionAddress": "Maynard 3,Hanover,NH,US,03755",
  "InstitutionName": "Dartmouth College - PBS",
  "InstitutionalDepartmentName": "Department",
  "MRAcquisitionType": "2D",
  "MagneticFieldStrength": 3,
  "Manufacturer": "Siemens",
  "ManufacturersModelName": "Prisma",
  "Modality": "MR",
  "MultibandAccelerationFactor": 8,
  "PartialFourier": 1,
  "PatientPosition": "HFS",
  "PercentPhaseFOV": 100,
  "PercentSampling": 100,
  "PhaseEncodingDirection": "j-",
  "PhaseEncodingSteps": 82,
  "PhaseResolution": 1,
  "PixelBandwidth": 3050,
  "ProcedureStepDescription": "Wager_Wager^1076_spacetop",
  "ProtocolName": "func_run-04_task-alignvideo_acq-ap-mb8",
  "PulseSequenceDetails": "%CustomerSeq%\\cmrr_mbep2d_bold",
  "ReceiveCoilActiveElements": "HEA;HEP",
  "ReceiveCoilName": "Head_32",
  "ReconMatrixPE": 82,
  "RepetitionTime": 0.46,
  "SAR": 0.121982,
  "ScanOptions": "FS",
  "ScanningSequence": "EP",
  "SequenceName": "epfid2d1_82",
  "SequenceVariant": "SK\\SS",
  "SeriesDescription": "func_run-04_task-alignvideo_acq-ap-mb8",
  "SeriesNumber": 32,
  "ShimSetting": [4134, -7792, -7201, 567, -36, -205, -27, 51],
  "SliceThickness": 2.7,
  "SliceTiming": [0, 0.2525, 0.065, 0.315, 0.1275, 0.3775, 0.19, 0, 0.2525, 0.065, 0.315, 0.1275, 0.3775, 0.19, 0, 0.2525, 0.065, 0.315, 0.1275, 0.3775, 0.19, 0, 0.2525, 0.065, 0.315, 0.1275, 0.3775, 0.19, 0, 0.2525, 0.065, 0.315, 0.1275, 0.3775, 0.19, 0, 0.2525, 0.065, 0.315, 0.1275, 0.3775, 0.19, 0, 0.2525, 0.065, 0.315, 0.1275, 0.3775, 0.19, 0, 0.2525, 0.065, 0.315, 0.1275, 0.3775, 0.19],
  "SoftwareVersions": "syngo MR E11",
  "SpacingBetweenSlices": 2.7,
  "StationName": "AWP66112",
  "TaskName": "alignvideo",
  "TotalReadoutTime": 0.03969,
  "TxRefAmp": 256.998,
  "WipMemBlock": "0ad76579-9f82-4cea-9809-da208f55746d||Sequence: R016 ve11c/master r/e634e98; Dec 19 2017 11:00:25 by eja",
  "dcmmeta_affine": [
    [-2.6810786724090576, 0.07020646333694458, -0.07105540484189987, 112.77140808105469],
    [0.06701622903347015, 2.679426431655884, 0.12025821208953857, -87.65119171142578],
    [-0.07364097982645035, -0.1176517978310585, 2.6963844299316406, -27.04118537902832],
    [0.0, 0.0, 0.0, 1.0]
],
  "dcmmeta_reorient_transform": [
    [0.0, -1.0, 0.0, 81.0],
    [1.0, 0.0, 0.0, 0.0],
    [0.0, 0.0, 1.0, 0.0],
    [0.0, 0.0, 0.0, 1.0]
],
  "dcmmeta_shape": [82, 82, 56, 914],
  "dcmmeta_slice_dim": 2,
  "dcmmeta_version": 0.6,
  "global": {
    "const": {
      "AccessionNumber": "A003746",
      "AcquisitionMatrix": [82, 0, 0, 82],
      "AngioFlag": "N",
      "BitsAllocated": 16,
      "BitsStored": 16,
      "BodyPartExamined": "BRAIN",
      "Columns": 656,
      "EchoNumbers": 1,
      "EchoTime": 27.2,
      "EchoTrainLength": 82,
      "FlipAngle": 44.0,
      "HighBit": 15,
      "ImageOrientationPatient": [0.99931109673528, -0.0249787762301, -0.0274479995588, 0.0261678633563, 0.99869526994027, 0.04385203217979],
      "ImagePositionPatient": [-908.07695149488, -879.14406203973, -49.202085763283],
      "ImageType": [
        "ORIGINAL",
        "PRIMARY",
        "M",
        "MB",
        "ND",
        "NORM",
        "MOSAIC"
],
      "ImagedNucleus": "1H",
      "ImagingFrequency": 123.252236,
      "InPlanePhaseEncodingDirection": "COL",
      "MRAcquisitionType": "2D",
      "MagneticFieldStrength": 3.0,
      "Manufacturer": "SIEMENS",
      "ManufacturerModelName": "Prisma",
      "Modality": "MR",
      "NumberOfAverages": 1.0,
      "NumberOfPhaseEncodingSteps": 82,
      "PercentPhaseFieldOfView": 100.0,
      "PercentSampling": 100.0,
      "PerformedProcedureStepStartTime": "112726.357000",
      "PhotometricInterpretation": "MONOCHROME2",
      "PixelBandwidth": 3050.0,
      "PixelRepresentation": 0,
      "PixelSpacing": [2.6829268932343, 2.6829268932343],
      "ProtocolName": "func_run-04_task-alignvideo_acq-ap-mb8",
      "RepetitionTime": 460.0,
      "Rows": 656,
      "SAR": 0.12198233834003,
      "SamplesPerPixel": 1,
      "ScanOptions": "FS",
      "ScanningSequence": "EP",
      "SequenceName": "epfid2d1_82",
      "SequenceVariant": [
        "SK",
        "SS"
],
      "SeriesDescription": "func_run-04_task-alignvideo_acq-ap-mb8",
      "SeriesNumber": 32,
      "SeriesTime": "132118.681000",
      "SliceLocation": -33.876749758118,
      "SliceThickness": 2.7000000476837,
      "SmallestImagePixelValue": 0,
      "SoftwareVersions": "syngo MR E11",
      "SpacingBetweenSlices": 2.6999999810854,
      "SpecificCharacterSet": "ISO_IR 100",
      "StudyID": "2",
      "StudyTime": "112726.317000",
      "TransmitCoilName": "Body",
      "VariableFlipAngleFlag": "N",
      "WindowCenterWidthExplanation": "Algo1",
      "dBdt": 0.0},
    "slices": {}
  },
  "time": {
    "samples": {
      "AcquisitionNumber": [1, 2, 3, 4, 5, 6, 7, 8, 9, 10, 11, 12, 13, 14, 15, 16, 17, 18, 19, 20, 21, 22, 23, 24, 25, 26, 27, 28, 29, 30, 31, 32, 33, 34, 35, 36, 37, 38, 39, 40, 41, 42, 43, 44, 45, 46, 47, 48, 49, 50, 51, 52, 53, 54, 55, 56, 57, 58, 59, 60, 61, 62, 63, 64, 65, 66, 67, 68, 69, 70, 71, 72, 73, 74, 75, 76, 77, 78, 79, 80, 81, 82, 83, 84, 85, 86, 87, 88, 89, 90, 91, 92, 93, 94, 95, 96, 97, 98, 99, 100, 101, 102, 103, 104, 105, 106, 107, 108, 109, 110, 111, 112, 113, 114, 115, 116, 117, 118, 119, 120, 121, 122, 123, 124, 125, 126, 127, 128, 129, 130, 131, 132, 133, 134, 135, 136, 137, 138, 139, 140, 141, 142, 143, 144, 145, 146, 147, 148, 149, 150, 151, 152, 153, 154, 155, 156, 157, 158, 159, 160, 161, 162, 163, 164, 165, 166, 167, 168, 169, 170, 171, 172, 173, 174, 175, 176, 177, 178, 179, 180, 181, 182, 183, 184, 185, 186, 187, 188, 189, 190, 191, 192, 193, 194, 195, 196, 197, 198, 199, 200, 201, 202, 203, 204, 205, 206, 207, 208, 209, 210, 211, 212, 213, 214, 215, 216, 217, 218, 219, 220, 221, 222, 223, 224, 225, 226, 227, 228, 229, 230, 231, 232, 233, 234, 235, 236, 237, 238, 239, 240, 241, 242, 243, 244, 245, 246, 247, 248, 249, 250, 251, 252, 253, 254, 255, 256, 257, 258, 259, 260, 261, 262, 263, 264, 265, 266, 267, 268, 269, 270, 271, 272, 273, 274, 275, 276, 277, 278, 279, 280, 281, 282, 283, 284, 285, 286, 287, 288, 289, 290, 291, 292, 293, 294, 295, 296, 297, 298, 299, 300, 301, 302, 303, 304, 305, 306, 307, 308, 309, 310, 311, 312, 313, 314, 315, 316, 317, 318, 319, 320, 321, 322, 323, 324, 325, 326, 327, 328, 329, 330, 331, 332, 333, 334, 335, 336, 337, 338, 339, 340, 341, 342, 343, 344, 345, 346, 347, 348, 349, 350, 351, 352, 353, 354, 355, 356, 357, 358, 359, 360, 361, 362, 363, 364, 365, 366, 367, 368, 369, 370, 371, 372, 373, 374, 375, 376, 377, 378, 379, 380, 381, 382, 383, 384, 385, 386, 387, 388, 389, 390, 391, 392, 393, 394, 395, 396, 397, 398, 399, 400, 401, 402, 403, 404, 405, 406, 407, 408, 409, 410, 411, 412, 413, 414, 415, 416, 417, 418, 419, 420, 421, 422, 423, 424, 425, 426, 427, 428, 429, 430, 431, 432, 433, 434, 435, 436, 437, 438, 439, 440, 441, 442, 443, 444, 445, 446, 447, 448, 449, 450, 451, 452, 453, 454, 455, 456, 457, 458, 459, 460, 461, 462, 463, 464, 465, 466, 467, 468, 469, 470, 471, 472, 473, 474, 475, 476, 477, 478, 479, 480, 481, 482, 483, 484, 485, 486, 487, 488, 489, 490, 491, 492, 493, 494, 495, 496, 497, 498, 499, 500, 501, 502, 503, 504, 505, 506, 507, 508, 509, 510, 511, 512, 513, 514, 515, 516, 517, 518, 519, 520, 521, 522, 523, 524, 525, 526, 527, 528, 529, 530, 531, 532, 533, 534, 535, 536, 537, 538, 539, 540, 541, 542, 543, 544, 545, 546, 547, 548, 549, 550, 551, 552, 553, 554, 555, 556, 557, 558, 559, 560, 561, 562, 563, 564, 565, 566, 567, 568, 569, 570, 571, 572, 573, 574, 575, 576, 577, 578, 579, 580, 581, 582, 583, 584, 585, 586, 587, 588, 589, 590, 591, 592, 593, 594, 595, 596, 597, 598, 599, 600, 601, 602, 603, 604, 605, 606, 607, 608, 609, 610, 611, 612, 613, 614, 615, 616, 617, 618, 619, 620, 621, 622, 623, 624, 625, 626, 627, 628, 629, 630, 631, 632, 633, 634, 635, 636, 637, 638, 639, 640, 641, 642, 643, 644, 645, 646, 647, 648, 649, 650, 651, 652, 653, 654, 655, 656, 657, 658, 659, 660, 661, 662, 663, 664, 665, 666, 667, 668, 669, 670, 671, 672, 673, 674, 675, 676, 677, 678, 679, 680, 681, 682, 683, 684, 685, 686, 687, 688, 689, 690, 691, 692, 693, 694, 695, 696, 697, 698, 699, 700, 701, 702, 703, 704, 705, 706, 707, 708, 709, 710, 711, 712, 713, 714, 715, 716, 717, 718, 719, 720, 721, 722, 723, 724, 725, 726, 727, 728, 729, 730, 731, 732, 733, 734, 735, 736, 737, 738, 739, 740, 741, 742, 743, 744, 745, 746, 747, 748, 749, 750, 751, 752, 753, 754, 755, 756, 757, 758, 759, 760, 761, 762, 763, 764, 765, 766, 767, 768, 769, 770, 771, 772, 773, 774, 775, 776, 777, 778, 779, 780, 781, 782, 783, 784, 785, 786, 787, 788, 789, 790, 791, 792, 793, 794, 795, 796, 797, 798, 799, 800, 801, 802, 803, 804, 805, 806, 807, 808, 809, 810, 811, 812, 813, 814, 815, 816, 817, 818, 819, 820, 821, 822, 823, 824, 825, 826, 827, 828, 829, 830, 831, 832, 833, 834, 835, 836, 837, 838, 839, 840, 841, 842, 843, 844, 845, 846, 847, 848, 849, 850, 851, 852, 853, 854, 855, 856, 857, 858, 859, 860, 861, 862, 863, 864, 865, 866, 867, 868, 869, 870, 871, 872, 873, 874, 875, 876, 877, 878, 879, 880, 881, 882, 883, 884, 885, 886, 887, 888, 889, 890, 891, 892, 893, 894, 895, 896, 897, 898, 899, 900, 901, 902, 903, 904, 905, 906, 907, 908, 909, 910, 911, 912, 913, 914],
      "AcquisitionTime": ["132101.147500", "132101.607500", "132102.067500", "132102.527500", "132102.987500", "132103.447500", "132103.907500", "132104.367500", "132104.827500", "132105.287500", "132105.747500", "132106.207500", "132106.667500", "132107.127500", "132107.587500", "132108.047500", "132108.507500", "132108.967500", "132109.427500", "132109.887500", "132110.347500", "132110.807500", "132111.267500", "132111.727500", "132112.187500", "132112.647500", "132113.107500", "132113.567500", "132114.027500", "132114.487500", "132114.947500", "132115.407500", "132115.867500", "132116.327500", "132116.787500", "132117.247500", "132117.707500", "132118.167500", "132118.627500", "132119.087500", "132119.547500", "132120.007500", "132120.467500", "132120.927500", "132121.387500", "132121.847500", "132122.307500", "132122.767500", "132123.227500", "132123.687500", "132124.147500", "132124.607500", "132125.067500", "132125.527500", "132125.987500", "132126.447500", "132126.907500", "132127.367500", "132127.827500", "132128.287500", "132128.747500", "132129.207500", "132129.667500", "132130.127500", "132130.587500", "132131.047500", "132131.507500", "132131.967500", "132132.427500", "132132.887500", "132133.347500", "132133.807500", "132134.267500", "132134.727500", "132135.187500", "132135.647500", "132136.107500", "132136.567500", "132137.027500", "132137.487500", "132137.947500", "132138.407500", "132138.867500", "132139.327500", "132139.787500", "132140.247500", "132140.707500", "132141.167500", "132141.627500", "132142.087500", "132142.547500", "132143.007500", "132143.467500", "132143.927500", "132144.387500", "132144.847500", "132145.307500", "132145.767500", "132146.227500", "132146.687500", "132147.147500", "132147.607500", "132148.067500", "132148.527500", "132148.987500", "132149.447500", "132149.907500", "132150.367500", "132150.827500", "132151.287500", "132151.747500", "132152.207500", "132152.667500", "132153.127500", "132153.587500", "132154.047500", "132154.507500", "132154.967500", "132155.427500", "132155.887500", "132156.347500", "132156.807500", "132157.267500", "132157.727500", "132158.187500", "132158.647500", "132159.107500", "132159.567500", "132200.027500", "132200.487500", "132200.947500", "132201.407500", "132201.867500", "132202.327500", "132202.787500", "132203.247500", "132203.707500", "132204.167500", "132204.627500", "132205.087500", "132205.547500", "132206.007500", "132206.467500", "132206.927500", "132207.387500", "132207.847500", "132208.307500", "132208.767500", "132209.227500", "132209.687500", "132210.147500", "132210.607500", "132211.067500", "132211.527500", "132211.987500", "132212.447500", "132212.907500", "132213.367500", "132213.827500", "132214.287500", "132214.747500", "132215.207500", "132215.667500", "132216.127500", "132216.587500", "132217.047500", "132217.507500", "132217.967500", "132218.427500", "132218.887500", "132219.347500", "132219.807500", "132220.267500", "132220.727500", "132221.187500", "132221.647500", "132222.107500", "132222.567500", "132223.027500", "132223.487500", "132223.947500", "132224.407500", "132224.867500", "132225.327500", "132225.787500", "132226.247500", "132226.707500", "132227.167500", "132227.627500", "132228.087500", "132228.547500", "132229.007500", "132229.467500", "132229.927500", "132230.387500", "132230.847500", "132231.307500", "132231.767500", "132232.227500", "132232.687500", "132233.147500", "132233.607500", "132234.067500", "132234.527500", "132234.987500", "132235.447500", "132235.907500", "132236.367500", "132236.827500", "132237.287500", "132237.747500", "132238.207500", "132238.667500", "132239.127500", "132239.587500", "132240.047500", "132240.507500", "132240.967500", "132241.427500", "132241.887500", "132242.347500", "132242.807500", "132243.267500", "132243.727500", "132244.187500", "132244.647500", "132245.107500", "132245.567500", "132246.027500", "132246.487500", "132246.947500", "132247.407500", "132247.867500", "132248.327500", "132248.787500", "132249.247500", "132249.707500", "132250.167500", "132250.627500", "132251.087500", "132251.547500", "132252.007500", "132252.467500", "132252.927500", "132253.387500", "132253.847500", "132254.307500", "132254.767500", "132255.227500", "132255.687500", "132256.147500", "132256.607500", "132257.067500", "132257.527500", "132257.987500", "132258.447500", "132258.907500", "132259.367500", "132259.827500", "132300.287500", "132300.747500", "132301.207500", "132301.667500", "132302.127500", "132302.587500", "132303.047500", "132303.507500", "132303.967500", "132304.427500", "132304.887500", "132305.347500", "132305.807500", "132306.267500", "132306.727500", "132307.187500", "132307.647500", "132308.107500", "132308.567500", "132309.027500", "132309.487500", "132309.947500", "132310.407500", "132310.867500", "132311.327500", "132311.787500", "132312.247500", "132312.707500", "132313.167500", "132313.627500", "132314.087500", "132314.547500", "132315.007500", "132315.467500", "132315.927500", "132316.387500", "132316.847500", "132317.307500", "132317.767500", "132318.227500", "132318.687500", "132319.147500", "132319.607500", "132320.067500", "132320.527500", "132320.987500", "132321.447500", "132321.907500", "132322.367500", "132322.827500", "132323.287500", "132323.747500", "132324.207500", "132324.667500", "132325.127500", "132325.587500", "132326.047500", "132326.507500", "132326.967500", "132327.427500", "132327.887500", "132328.347500", "132328.807500", "132329.267500", "132329.727500", "132330.187500", "132330.647500", "132331.107500", "132331.567500", "132332.027500", "132332.487500", "132332.947500", "132333.407500", "132333.867500", "132334.327500", "132334.787500", "132335.247500", "132335.707500", "132336.167500", "132336.627500", "132337.087500", "132337.547500", "132338.007500", "132338.467500", "132338.927500", "132339.387500", "132339.847500", "132340.307500", "132340.767500", "132341.227500", "132341.687500", "132342.147500", "132342.607500", "132343.067500", "132343.527500", "132343.987500", "132344.447500", "132344.907500", "132345.367500", "132345.827500", "132346.287500", "132346.747500", "132347.207500", "132347.667500", "132348.127500", "132348.587500", "132349.047500", "132349.507500", "132349.967500", "132350.427500", "132350.887500", "132351.347500", "132351.807500", "132352.267500", "132352.727500", "132353.187500", "132353.647500", "132354.107500", "132354.567500", "132355.027500", "132355.487500", "132355.947500", "132356.407500", "132356.867500", "132357.327500", "132357.787500", "132358.247500", "132358.707500", "132359.167500", "132359.627500", "132400.087500", "132400.547500", "132401.007500", "132401.467500", "132401.927500", "132402.387500", "132402.847500", "132403.307500", "132403.767500", "132404.227500", "132404.687500", "132405.147500", "132405.607500", "132406.067500", "132406.527500", "132406.987500", "132407.447500", "132407.907500", "132408.367500", "132408.827500", "132409.287500", "132409.747500", "132410.207500", "132410.667500", "132411.127500", "132411.587500", "132412.047500", "132412.507500", "132412.967500", "132413.427500", "132413.887500", "132414.347500", "132414.807500", "132415.267500", "132415.727500", "132416.187500", "132416.647500", "132417.107500", "132417.567500", "132418.027500", "132418.487500", "132418.947500", "132419.407500", "132419.867500", "132420.327500", "132420.787500", "132421.247500", "132421.707500", "132422.167500", "132422.627500", "132423.087500", "132423.547500", "132424.007500", "132424.467500", "132424.927500", "132425.387500", "132425.847500", "132426.307500", "132426.767500", "132427.227500", "132427.687500", "132428.147500", "132428.607500", "132429.067500", "132429.527500", "132429.987500", "132430.447500", "132430.907500", "132431.367500", "132431.827500", "132432.287500", "132432.747500", "132433.207500", "132433.667500", "132434.127500", "132434.587500", "132435.047500", "132435.507500", "132435.967500", "132436.427500", "132436.887500", "132437.347500", "132437.807500", "132438.267500", "132438.727500", "132439.187500", "132439.647500", "132440.107500", "132440.567500", "132441.027500", "132441.487500", "132441.947500", "132442.407500", "132442.867500", "132443.327500", "132443.787500", "132444.247500", "132444.707500", "132445.167500", "132445.627500", "132446.087500", "132446.547500", "132447.007500", "132447.467500", "132447.927500", "132448.387500", "132448.847500", "132449.307500", "132449.767500", "132450.227500", "132450.687500", "132451.147500", "132451.607500", "132452.067500", "132452.527500", "132452.987500", "132453.447500", "132453.907500", "132454.367500", "132454.827500", "132455.287500", "132455.747500", "132456.207500", "132456.667500", "132457.127500", "132457.587500", "132458.047500", "132458.507500", "132458.967500", "132459.427500", "132459.887500", "132500.347500", "132500.807500", "132501.267500", "132501.727500", "132502.187500", "132502.647500", "132503.107500", "132503.567500", "132504.027500", "132504.487500", "132504.947500", "132505.407500", "132505.867500", "132506.327500", "132506.787500", "132507.247500", "132507.707500", "132508.167500", "132508.627500", "132509.087500", "132509.547500", "132510.007500", "132510.467500", "132510.927500", "132511.387500", "132511.847500", "132512.307500", "132512.767500", "132513.227500", "132513.687500", "132514.147500", "132514.607500", "132515.067500", "132515.527500", "132515.987500", "132516.447500", "132516.907500", "132517.367500", "132517.827500", "132518.287500", "132518.747500", "132519.207500", "132519.667500", "132520.127500", "132520.587500", "132521.047500", "132521.507500", "132521.967500", "132522.427500", "132522.887500", "132523.347500", "132523.807500", "132524.267500", "132524.727500", "132525.187500", "132525.647500", "132526.107500", "132526.567500", "132527.027500", "132527.487500", "132527.947500", "132528.407500", "132528.867500", "132529.327500", "132529.787500", "132530.247500", "132530.707500", "132531.167500", "132531.627500", "132532.087500", "132532.547500", "132533.007500", "132533.467500", "132533.927500", "132534.387500", "132534.847500", "132535.307500", "132535.767500", "132536.227500", "132536.687500", "132537.147500", "132537.607500", "132538.067500", "132538.527500", "132538.987500", "132539.447500", "132539.907500", "132540.367500", "132540.827500", "132541.287500", "132541.747500", "132542.207500", "132542.667500", "132543.127500", "132543.587500", "132544.047500", "132544.507500", "132544.967500", "132545.427500", "132545.887500", "132546.347500", "132546.807500", "132547.267500", "132547.727500", "132548.187500", "132548.647500", "132549.107500", "132549.567500", "132550.027500", "132550.487500", "132550.947500", "132551.407500", "132551.867500", "132552.327500", "132552.787500", "132553.247500", "132553.707500", "132554.167500", "132554.627500", "132555.087500", "132555.547500", "132556.007500", "132556.467500", "132556.927500", "132557.387500", "132557.847500", "132558.307500", "132558.767500", "132559.227500", "132559.687500", "132600.147500", "132600.607500", "132601.067500", "132601.527500", "132601.987500", "132602.447500", "132602.907500", "132603.367500", "132603.827500", "132604.287500", "132604.747500", "132605.207500", "132605.667500", "132606.127500", "132606.587500", "132607.047500", "132607.507500", "132607.967500", "132608.427500", "132608.887500", "132609.347500", "132609.807500", "132610.267500", "132610.727500", "132611.187500", "132611.647500", "132612.107500", "132612.567500", "132613.027500", "132613.487500", "132613.947500", "132614.407500", "132614.867500", "132615.327500", "132615.787500", "132616.247500", "132616.707500", "132617.167500", "132617.627500", "132618.087500", "132618.547500", "132619.007500", "132619.467500", "132619.927500", "132620.387500", "132620.847500", "132621.307500", "132621.767500", "132622.227500", "132622.687500", "132623.147500", "132623.607500", "132624.067500", "132624.527500", "132624.987500", "132625.447500", "132625.907500", "132626.367500", "132626.827500", "132627.287500", "132627.747500", "132628.207500", "132628.667500", "132629.127500", "132629.587500", "132630.047500", "132630.507500", "132630.967500", "132631.427500", "132631.887500", "132632.347500", "132632.807500", "132633.267500", "132633.727500", "132634.187500", "132634.647500", "132635.107500", "132635.567500", "132636.027500", "132636.487500", "132636.947500", "132637.407500", "132637.867500", "132638.327500", "132638.787500", "132639.247500", "132639.707500", "132640.167500", "132640.627500", "132641.087500", "132641.547500", "132642.007500", "132642.467500", "132642.927500", "132643.387500", "132643.847500", "132644.307500", "132644.767500", "132645.227500", "132645.687500", "132646.147500", "132646.607500", "132647.067500", "132647.527500", "132647.987500", "132648.447500", "132648.907500", "132649.367500", "132649.827500", "132650.287500", "132650.747500", "132651.207500", "132651.667500", "132652.127500", "132652.587500", "132653.047500", "132653.507500", "132653.967500", "132654.427500", "132654.887500", "132655.347500", "132655.807500", "132656.267500", "132656.727500", "132657.187500", "132657.647500", "132658.107500", "132658.567500", "132659.027500", "132659.487500", "132659.947500", "132700.407500", "132700.867500", "132701.327500", "132701.787500", "132702.247500", "132702.707500", "132703.167500", "132703.627500", "132704.087500", "132704.547500", "132705.007500", "132705.467500", "132705.927500", "132706.387500", "132706.847500", "132707.307500", "132707.767500", "132708.227500", "132708.687500", "132709.147500", "132709.607500", "132710.067500", "132710.527500", "132710.987500", "132711.447500", "132711.907500", "132712.367500", "132712.827500", "132713.287500", "132713.747500", "132714.207500", "132714.667500", "132715.127500", "132715.587500", "132716.047500", "132716.507500", "132716.967500", "132717.427500", "132717.887500", "132718.347500", "132718.807500", "132719.267500", "132719.727500", "132720.187500", "132720.647500", "132721.107500", "132721.567500", "132722.027500", "132722.487500", "132722.947500", "132723.407500", "132723.867500", "132724.327500", "132724.787500", "132725.247500", "132725.707500", "132726.167500", "132726.627500", "132727.087500", "132727.547500", "132728.007500", "132728.467500", "132728.927500", "132729.387500", "132729.847500", "132730.307500", "132730.767500", "132731.227500", "132731.687500", "132732.147500", "132732.607500", "132733.067500", "132733.527500", "132733.987500", "132734.447500", "132734.907500", "132735.367500", "132735.827500", "132736.287500", "132736.747500", "132737.207500", "132737.667500", "132738.127500", "132738.587500", "132739.047500", "132739.507500", "132739.967500", "132740.427500", "132740.887500", "132741.347500", "132741.807500", "132742.267500", "132742.727500", "132743.187500", "132743.647500", "132744.107500", "132744.567500", "132745.027500", "132745.487500", "132745.947500", "132746.407500", "132746.867500", "132747.327500", "132747.787500", "132748.247500", "132748.707500", "132749.167500", "132749.627500", "132750.087500", "132750.547500", "132751.007500", "132751.467500", "132751.927500", "132752.387500", "132752.847500", "132753.307500", "132753.767500", "132754.227500", "132754.687500", "132755.147500", "132755.607500", "132756.067500", "132756.527500", "132756.987500", "132757.447500", "132757.907500", "132758.367500", "132758.827500", "132759.287500", "132759.747500", "132800.207500", "132800.667500", "132801.127500"],
