{
  "AcquisitionMatrixPE": 82,
  "AcquisitionNumber": 1,
  "AcquisitionTime": "12:16:21.787500",
  "BandwidthPerPixelPhaseEncode": 24.888,
  "BaseResolution": 82,
  "BodyPartExamined": "BRAIN",
  "ConsistencyInfo": "N4_VE11C_LATEST_20160120",
  "ConversionSoftware": "dcm2niix",
  "ConversionSoftwareVersion": "v1.0.20201102",
  "DerivedVendorReportedEchoSpacing": 0.00049,
  "DeviceSerialNumber": "66112",
  "DwellTime": 2e-06,
  "EchoTime": 0.0272,
  "EchoTrainLength": 82,
  "EffectiveEchoSpacing": 0.00049,
  "FlipAngle": 44,
  "ImageComments": "Unaliased MB8/PE3",
  "ImageOrientationPatientDICOM": [0.999199, -0.0339544, -0.0211742, 0.0357659, 0.995113, 0.0920324],
  "ImageType": [
    "ORIGINAL",
    "PRIMARY",
    "M",
    "MB",
    "ND",
    "NORM",
    "MOSAIC"
],
  "ImagingFrequency": 123.252,
  "InPlanePhaseEncodingDirectionDICOM": "COL",
  "InstitutionAddress": "Maynard 3,Hanover,NH,US,03755",
  "InstitutionName": "Dartmouth College - PBS",
  "InstitutionalDepartmentName": "Department",
  "MRAcquisitionType": "2D",
  "MagneticFieldStrength": 3,
  "Manufacturer": "Siemens",
  "ManufacturersModelName": "Prisma",
  "Modality": "MR",
  "MultibandAccelerationFactor": 8,
  "PartialFourier": 1,
  "PatientPosition": "HFS",
  "PercentPhaseFOV": 100,
  "PercentSampling": 100,
  "PhaseEncodingDirection": "j-",
  "PhaseEncodingSteps": 82,
  "PhaseResolution": 1,
  "PixelBandwidth": 3050,
  "ProcedureStepDescription": "Wager_Wager^1076_spacetop",
  "ProtocolName": "func_run-01_task-faces_acq-ap-mb8",
  "PulseSequenceDetails": "%CustomerSeq%\\cmrr_mbep2d_bold",
  "ReceiveCoilActiveElements": "HEA;HEP",
  "ReceiveCoilName": "Head_32",
  "ReconMatrixPE": 82,
  "RepetitionTime": 0.46,
  "SAR": 0.121982,
  "ScanOptions": "FS",
  "ScanningSequence": "EP",
  "SequenceName": "epfid2d1_82",
  "SequenceVariant": "SK\\SS",
  "SeriesDescription": "func_run-01_task-faces_acq-ap-mb8",
  "SeriesNumber": 16,
  "ShimSetting": [4134, -7795, -7204, 570, -35, -220, -27, 52],
  "SliceThickness": 2.7,
  "SliceTiming": [0, 0.2525, 0.0625, 0.315, 0.125, 0.3775, 0.1875, 0, 0.2525, 0.0625, 0.315, 0.125, 0.3775, 0.1875, 0, 0.2525, 0.0625, 0.315, 0.125, 0.3775, 0.1875, 0, 0.2525, 0.0625, 0.315, 0.125, 0.3775, 0.1875, 0, 0.2525, 0.0625, 0.315, 0.125, 0.3775, 0.1875, 0, 0.2525, 0.0625, 0.315, 0.125, 0.3775, 0.1875, 0, 0.2525, 0.0625, 0.315, 0.125, 0.3775, 0.1875, 0, 0.2525, 0.0625, 0.315, 0.125, 0.3775, 0.1875],
  "SoftwareVersions": "syngo MR E11",
  "SpacingBetweenSlices": 2.7,
  "StationName": "AWP66112",
  "TaskName": "faces",
  "TotalReadoutTime": 0.03969,
  "TxRefAmp": 256.998,
  "WipMemBlock": "f52f9944-b5b1-47c0-b0e8-ff9e766b71bb||Sequence: R016 ve11c/master r/e634e98; Dec 19 2017 11:00:25 by eja",
  "dcmmeta_affine": [
    [-2.6807780265808105, 0.09595724940299988, -0.04845375195145607, 112.40705871582031],
    [0.09109728038311005, 2.669816732406616, 0.250333309173584, -93.83434295654297],
    [-0.05680886283516884, -0.24691632390022278, 2.6879332065582275, -24.729276657104492],
    [0.0, 0.0, 0.0, 1.0]
],
  "dcmmeta_reorient_transform": [
    [0.0, -1.0, 0.0, 81.0],
    [1.0, 0.0, 0.0, 0.0],
    [0.0, 0.0, 1.0, 0.0],
    [0.0, 0.0, 0.0, 1.0]
],
  "dcmmeta_shape": [82, 82, 56, 914],
  "dcmmeta_slice_dim": 2,
  "dcmmeta_version": 0.6,
  "global": {
    "const": {
      "AccessionNumber": "A003746",
      "AcquisitionMatrix": [82, 0, 0, 82],
      "AngioFlag": "N",
      "BitsAllocated": 16,
      "BitsStored": 16,
      "BodyPartExamined": "BRAIN",
      "Columns": 656,
      "EchoNumbers": 1,
      "EchoTime": 27.2,
      "EchoTrainLength": 82,
      "FlipAngle": 44.0,
      "HighBit": 15,
      "ImageOrientationPatient": [0.99919905359823, -0.0339544403972, -0.021174212281, 0.03576588230584, 0.99511347628682, 0.09203244523123],
      "ImagePositionPatient": [-917.10261896526, -862.5132891621, -99.290339408922],
      "ImageType": [
        "ORIGINAL",
        "PRIMARY",
        "M",
        "MB",
        "ND",
        "NORM",
        "MOSAIC"
],
      "ImagedNucleus": "1H",
      "ImagingFrequency": 123.252241,
      "InPlanePhaseEncodingDirection": "COL",
      "MRAcquisitionType": "2D",
      "MagneticFieldStrength": 3.0,
      "Manufacturer": "SIEMENS",
      "ManufacturerModelName": "Prisma",
      "Modality": "MR",
      "NumberOfAverages": 1.0,
      "NumberOfPhaseEncodingSteps": 82,
      "PercentPhaseFieldOfView": 100.0,
      "PercentSampling": 100.0,
      "PerformedProcedureStepStartTime": "112726.357000",
      "PhotometricInterpretation": "MONOCHROME2",
      "PixelBandwidth": 3050.0,
      "PixelRepresentation": 0,
      "PixelSpacing": [2.6829268932343, 2.6829268932343],
      "ProtocolName": "func_run-01_task-faces_acq-ap-mb8",
      "RepetitionTime": 460.0,
      "Rows": 656,
      "SAR": 0.12198233834003,
      "SamplesPerPixel": 1,
      "ScanOptions": "FS",
      "ScanningSequence": "EP",
      "SequenceName": "epfid2d1_82",
      "SequenceVariant": [
        "SK",
        "SS"
],
      "SeriesDescription": "func_run-01_task-faces_acq-ap-mb8",
      "SeriesNumber": 16,
      "SeriesTime": "121638.675000",
      "SliceLocation": -35.335945324599,
      "SliceThickness": 2.7000000476837,
      "SmallestImagePixelValue": 0,
      "SoftwareVersions": "syngo MR E11",
      "SpacingBetweenSlices": 2.6999999750145,
      "SpecificCharacterSet": "ISO_IR 100",
      "StudyID": "2",
      "StudyTime": "112726.317000",
      "TransmitCoilName": "Body",
      "VariableFlipAngleFlag": "N",
      "WindowCenterWidthExplanation": "Algo1",
      "dBdt": 0.0},
    "slices": {}
  },
  "time": {
    "samples": {
      "AcquisitionNumber": [1, 2, 3, 4, 5, 6, 7, 8, 9, 10, 11, 12, 13, 14, 15, 16, 17, 18, 19, 20, 21, 22, 23, 24, 25, 26, 27, 28, 29, 30, 31, 32, 33, 34, 35, 36, 37, 38, 39, 40, 41, 42, 43, 44, 45, 46, 47, 48, 49, 50, 51, 52, 53, 54, 55, 56, 57, 58, 59, 60, 61, 62, 63, 64, 65, 66, 67, 68, 69, 70, 71, 72, 73, 74, 75, 76, 77, 78, 79, 80, 81, 82, 83, 84, 85, 86, 87, 88, 89, 90, 91, 92, 93, 94, 95, 96, 97, 98, 99, 100, 101, 102, 103, 104, 105, 106, 107, 108, 109, 110, 111, 112, 113, 114, 115, 116, 117, 118, 119, 120, 121, 122, 123, 124, 125, 126, 127, 128, 129, 130, 131, 132, 133, 134, 135, 136, 137, 138, 139, 140, 141, 142, 143, 144, 145, 146, 147, 148, 149, 150, 151, 152, 153, 154, 155, 156, 157, 158, 159, 160, 161, 162, 163, 164, 165, 166, 167, 168, 169, 170, 171, 172, 173, 174, 175, 176, 177, 178, 179, 180, 181, 182, 183, 184, 185, 186, 187, 188, 189, 190, 191, 192, 193, 194, 195, 196, 197, 198, 199, 200, 201, 202, 203, 204, 205, 206, 207, 208, 209, 210, 211, 212, 213, 214, 215, 216, 217, 218, 219, 220, 221, 222, 223, 224, 225, 226, 227, 228, 229, 230, 231, 232, 233, 234, 235, 236, 237, 238, 239, 240, 241, 242, 243, 244, 245, 246, 247, 248, 249, 250, 251, 252, 253, 254, 255, 256, 257, 258, 259, 260, 261, 262, 263, 264, 265, 266, 267, 268, 269, 270, 271, 272, 273, 274, 275, 276, 277, 278, 279, 280, 281, 282, 283, 284, 285, 286, 287, 288, 289, 290, 291, 292, 293, 294, 295, 296, 297, 298, 299, 300, 301, 302, 303, 304, 305, 306, 307, 308, 309, 310, 311, 312, 313, 314, 315, 316, 317, 318, 319, 320, 321, 322, 323, 324, 325, 326, 327, 328, 329, 330, 331, 332, 333, 334, 335, 336, 337, 338, 339, 340, 341, 342, 343, 344, 345, 346, 347, 348, 349, 350, 351, 352, 353, 354, 355, 356, 357, 358, 359, 360, 361, 362, 363, 364, 365, 366, 367, 368, 369, 370, 371, 372, 373, 374, 375, 376, 377, 378, 379, 380, 381, 382, 383, 384, 385, 386, 387, 388, 389, 390, 391, 392, 393, 394, 395, 396, 397, 398, 399, 400, 401, 402, 403, 404, 405, 406, 407, 408, 409, 410, 411, 412, 413, 414, 415, 416, 417, 418, 419, 420, 421, 422, 423, 424, 425, 426, 427, 428, 429, 430, 431, 432, 433, 434, 435, 436, 437, 438, 439, 440, 441, 442, 443, 444, 445, 446, 447, 448, 449, 450, 451, 452, 453, 454, 455, 456, 457, 458, 459, 460, 461, 462, 463, 464, 465, 466, 467, 468, 469, 470, 471, 472, 473, 474, 475, 476, 477, 478, 479, 480, 481, 482, 483, 484, 485, 486, 487, 488, 489, 490, 491, 492, 493, 494, 495, 496, 497, 498, 499, 500, 501, 502, 503, 504, 505, 506, 507, 508, 509, 510, 511, 512, 513, 514, 515, 516, 517, 518, 519, 520, 521, 522, 523, 524, 525, 526, 527, 528, 529, 530, 531, 532, 533, 534, 535, 536, 537, 538, 539, 540, 541, 542, 543, 544, 545, 546, 547, 548, 549, 550, 551, 552, 553, 554, 555, 556, 557, 558, 559, 560, 561, 562, 563, 564, 565, 566, 567, 568, 569, 570, 571, 572, 573, 574, 575, 576, 577, 578, 579, 580, 581, 582, 583, 584, 585, 586, 587, 588, 589, 590, 591, 592, 593, 594, 595, 596, 597, 598, 599, 600, 601, 602, 603, 604, 605, 606, 607, 608, 609, 610, 611, 612, 613, 614, 615, 616, 617, 618, 619, 620, 621, 622, 623, 624, 625, 626, 627, 628, 629, 630, 631, 632, 633, 634, 635, 636, 637, 638, 639, 640, 641, 642, 643, 644, 645, 646, 647, 648, 649, 650, 651, 652, 653, 654, 655, 656, 657, 658, 659, 660, 661, 662, 663, 664, 665, 666, 667, 668, 669, 670, 671, 672, 673, 674, 675, 676, 677, 678, 679, 680, 681, 682, 683, 684, 685, 686, 687, 688, 689, 690, 691, 692, 693, 694, 695, 696, 697, 698, 699, 700, 701, 702, 703, 704, 705, 706, 707, 708, 709, 710, 711, 712, 713, 714, 715, 716, 717, 718, 719, 720, 721, 722, 723, 724, 725, 726, 727, 728, 729, 730, 731, 732, 733, 734, 735, 736, 737, 738, 739, 740, 741, 742, 743, 744, 745, 746, 747, 748, 749, 750, 751, 752, 753, 754, 755, 756, 757, 758, 759, 760, 761, 762, 763, 764, 765, 766, 767, 768, 769, 770, 771, 772, 773, 774, 775, 776, 777, 778, 779, 780, 781, 782, 783, 784, 785, 786, 787, 788, 789, 790, 791, 792, 793, 794, 795, 796, 797, 798, 799, 800, 801, 802, 803, 804, 805, 806, 807, 808, 809, 810, 811, 812, 813, 814, 815, 816, 817, 818, 819, 820, 821, 822, 823, 824, 825, 826, 827, 828, 829, 830, 831, 832, 833, 834, 835, 836, 837, 838, 839, 840, 841, 842, 843, 844, 845, 846, 847, 848, 849, 850, 851, 852, 853, 854, 855, 856, 857, 858, 859, 860, 861, 862, 863, 864, 865, 866, 867, 868, 869, 870, 871, 872, 873, 874, 875, 876, 877, 878, 879, 880, 881, 882, 883, 884, 885, 886, 887, 888, 889, 890, 891, 892, 893, 894, 895, 896, 897, 898, 899, 900, 901, 902, 903, 904, 905, 906, 907, 908, 909, 910, 911, 912, 913, 914],
      "AcquisitionTime": ["121621.787500", "121622.247500", "121622.707500", "121623.167500", "121623.627500", "121624.087500", "121624.547500", "121625.007500", "121625.467500", "121625.927500", "121626.387500", "121626.847500", "121627.307500", "121627.767500", "121628.227500", "121628.687500", "121629.147500", "121629.607500", "121630.067500", "121630.527500", "121630.987500", "121631.447500", "121631.907500", "121632.367500", "121632.827500", "121633.287500", "121633.747500", "121634.207500", "121634.667500", "121635.127500", "121635.587500", "121636.047500", "121636.507500", "121636.967500", "121637.427500", "121637.887500", "121638.347500", "121638.807500", "121639.267500", "121639.727500", "121640.187500", "121640.647500", "121641.107500", "121641.567500", "121642.027500", "121642.487500", "121642.947500", "121643.407500", "121643.867500", "121644.327500", "121644.787500", "121645.247500", "121645.707500", "121646.167500", "121646.627500", "121647.087500", "121647.547500", "121648.007500", "121648.467500", "121648.927500", "121649.387500", "121649.847500", "121650.307500", "121650.767500", "121651.227500", "121651.687500", "121652.147500", "121652.607500", "121653.067500", "121653.527500", "121653.987500", "121654.447500", "121654.907500", "121655.367500", "121655.827500", "121656.287500", "121656.747500", "121657.207500", "121657.667500", "121658.127500", "121658.587500", "121659.047500", "121659.507500", "121659.967500", "121700.427500", "121700.887500", "121701.347500", "121701.807500", "121702.267500", "121702.727500", "121703.187500", "121703.647500", "121704.107500", "121704.567500", "121705.027500", "121705.487500", "121705.947500", "121706.407500", "121706.867500", "121707.327500", "121707.787500", "121708.247500", "121708.707500", "121709.167500", "121709.627500", "121710.087500", "121710.547500", "121711.007500", "121711.467500", "121711.927500", "121712.387500", "121712.847500", "121713.307500", "121713.767500", "121714.227500", "121714.687500", "121715.147500", "121715.607500", "121716.067500", "121716.527500", "121716.987500", "121717.447500", "121717.907500", "121718.367500", "121718.827500", "121719.287500", "121719.747500", "121720.207500", "121720.667500", "121721.127500", "121721.587500", "121722.047500", "121722.507500", "121722.967500", "121723.427500", "121723.887500", "121724.347500", "121724.807500", "121725.267500", "121725.727500", "121726.187500", "121726.647500", "121727.107500", "121727.567500", "121728.027500", "121728.487500", "121728.947500", "121729.407500", "121729.867500", "121730.327500", "121730.787500", "121731.247500", "121731.707500", "121732.167500", "121732.627500", "121733.087500", "121733.547500", "121734.007500", "121734.467500", "121734.927500", "121735.387500", "121735.847500", "121736.307500", "121736.767500", "121737.227500", "121737.687500", "121738.147500", "121738.607500", "121739.067500", "121739.527500", "121739.987500", "121740.447500", "121740.907500", "121741.367500", "121741.827500", "121742.287500", "121742.747500", "121743.207500", "121743.667500", "121744.127500", "121744.587500", "121745.047500", "121745.507500", "121745.967500", "121746.427500", "121746.887500", "121747.347500", "121747.807500", "121748.267500", "121748.727500", "121749.187500", "121749.647500", "121750.107500", "121750.567500", "121751.027500", "121751.487500", "121751.947500", "121752.407500", "121752.867500", "121753.327500", "121753.787500", "121754.247500", "121754.707500", "121755.167500", "121755.627500", "121756.087500", "121756.547500", "121757.007500", "121757.467500", "121757.927500", "121758.387500", "121758.847500", "121759.307500", "121759.767500", "121800.227500", "121800.687500", "121801.147500", "121801.607500", "121802.067500", "121802.527500", "121802.987500", "121803.447500", "121803.907500", "121804.367500", "121804.827500", "121805.287500", "121805.747500", "121806.207500", "121806.667500", "121807.127500", "121807.587500", "121808.047500", "121808.507500", "121808.967500", "121809.427500", "121809.887500", "121810.347500", "121810.807500", "121811.267500", "121811.727500", "121812.187500", "121812.647500", "121813.107500", "121813.567500", "121814.027500", "121814.487500", "121814.947500", "121815.407500", "121815.867500", "121816.327500", "121816.787500", "121817.247500", "121817.707500", "121818.167500", "121818.627500", "121819.087500", "121819.547500", "121820.007500", "121820.467500", "121820.927500", "121821.387500", "121821.847500", "121822.307500", "121822.767500", "121823.227500", "121823.687500", "121824.147500", "121824.607500", "121825.067500", "121825.527500", "121825.987500", "121826.447500", "121826.907500", "121827.367500", "121827.827500", "121828.287500", "121828.747500", "121829.207500", "121829.667500", "121830.127500", "121830.587500", "121831.047500", "121831.507500", "121831.967500", "121832.427500", "121832.887500", "121833.347500", "121833.807500", "121834.267500", "121834.727500", "121835.187500", "121835.647500", "121836.107500", "121836.567500", "121837.027500", "121837.487500", "121837.947500", "121838.407500", "121838.867500", "121839.327500", "121839.787500", "121840.247500", "121840.707500", "121841.167500", "121841.627500", "121842.087500", "121842.547500", "121843.007500", "121843.467500", "121843.927500", "121844.387500", "121844.847500", "121845.307500", "121845.767500", "121846.227500", "121846.687500", "121847.147500", "121847.607500", "121848.067500", "121848.527500", "121848.987500", "121849.447500", "121849.907500", "121850.367500", "121850.827500", "121851.287500", "121851.747500", "121852.207500", "121852.667500", "121853.127500", "121853.587500", "121854.047500", "121854.507500", "121854.967500", "121855.427500", "121855.887500", "121856.347500", "121856.807500", "121857.267500", "121857.727500", "121858.187500", "121858.647500", "121859.107500", "121859.567500", "121900.027500", "121900.487500", "121900.947500", "121901.407500", "121901.867500", "121902.327500", "121902.787500", "121903.247500", "121903.707500", "121904.167500", "121904.627500", "121905.087500", "121905.547500", "121906.007500", "121906.467500", "121906.927500", "121907.387500", "121907.847500", "121908.307500", "121908.767500", "121909.227500", "121909.687500", "121910.147500", "121910.607500", "121911.067500", "121911.527500", "121911.987500", "121912.447500", "121912.907500", "121913.367500", "121913.827500", "121914.287500", "121914.747500", "121915.207500", "121915.667500", "121916.127500", "121916.587500", "121917.047500", "121917.507500", "121917.967500", "121918.427500", "121918.887500", "121919.347500", "121919.807500", "121920.267500", "121920.727500", "121921.187500", "121921.647500", "121922.107500", "121922.567500", "121923.027500", "121923.487500", "121923.947500", "121924.407500", "121924.867500", "121925.327500", "121925.787500", "121926.247500", "121926.707500", "121927.167500", "121927.627500", "121928.087500", "121928.547500", "121929.007500", "121929.467500", "121929.927500", "121930.387500", "121930.847500", "121931.307500", "121931.767500", "121932.227500", "121932.687500", "121933.147500", "121933.607500", "121934.067500", "121934.527500", "121934.987500", "121935.447500", "121935.907500", "121936.367500", "121936.827500", "121937.287500", "121937.747500", "121938.207500", "121938.667500", "121939.127500", "121939.587500", "121940.047500", "121940.507500", "121940.967500", "121941.427500", "121941.887500", "121942.347500", "121942.807500", "121943.267500", "121943.727500", "121944.187500", "121944.647500", "121945.107500", "121945.567500", "121946.027500", "121946.487500", "121946.947500", "121947.407500", "121947.867500", "121948.327500", "121948.787500", "121949.247500", "121949.707500", "121950.167500", "121950.627500", "121951.087500", "121951.547500", "121952.007500", "121952.467500", "121952.927500", "121953.387500", "121953.847500", "121954.307500", "121954.767500", "121955.227500", "121955.687500", "121956.147500", "121956.607500", "121957.067500", "121957.527500", "121957.987500", "121958.447500", "121958.907500", "121959.367500", "121959.827500", "122000.287500", "122000.747500", "122001.207500", "122001.667500", "122002.127500", "122002.587500", "122003.047500", "122003.507500", "122003.967500", "122004.427500", "122004.887500", "122005.347500", "122005.807500", "122006.267500", "122006.727500", "122007.187500", "122007.647500", "122008.107500", "122008.567500", "122009.027500", "122009.487500", "122009.947500", "122010.407500", "122010.867500", "122011.327500", "122011.787500", "122012.247500", "122012.707500", "122013.167500", "122013.627500", "122014.087500", "122014.547500", "122015.007500", "122015.467500", "122015.927500", "122016.387500", "122016.847500", "122017.307500", "122017.767500", "122018.227500", "122018.687500", "122019.147500", "122019.607500", "122020.067500", "122020.527500", "122020.987500", "122021.447500", "122021.907500", "122022.367500", "122022.827500", "122023.287500", "122023.747500", "122024.207500", "122024.667500", "122025.127500", "122025.587500", "122026.047500", "122026.507500", "122026.967500", "122027.427500", "122027.887500", "122028.347500", "122028.807500", "122029.267500", "122029.727500", "122030.187500", "122030.647500", "122031.107500", "122031.567500", "122032.027500", "122032.487500", "122032.947500", "122033.407500", "122033.867500", "122034.327500", "122034.787500", "122035.247500", "122035.707500", "122036.167500", "122036.627500", "122037.087500", "122037.547500", "122038.007500", "122038.467500", "122038.927500", "122039.387500", "122039.847500", "122040.307500", "122040.767500", "122041.227500", "122041.687500", "122042.147500", "122042.607500", "122043.067500", "122043.527500", "122043.987500", "122044.447500", "122044.907500", "122045.367500", "122045.827500", "122046.287500", "122046.747500", "122047.207500", "122047.667500", "122048.127500", "122048.587500", "122049.047500", "122049.507500", "122049.967500", "122050.427500", "122050.887500", "122051.347500", "122051.807500", "122052.267500", "122052.727500", "122053.187500", "122053.647500", "122054.107500", "122054.567500", "122055.027500", "122055.487500", "122055.947500", "122056.407500", "122056.867500", "122057.327500", "122057.787500", "122058.247500", "122058.707500", "122059.167500", "122059.627500", "122100.087500", "122100.547500", "122101.007500", "122101.467500", "122101.927500", "122102.387500", "122102.847500", "122103.307500", "122103.767500", "122104.227500", "122104.687500", "122105.147500", "122105.607500", "122106.067500", "122106.527500", "122106.987500", "122107.447500", "122107.907500", "122108.367500", "122108.827500", "122109.287500", "122109.747500", "122110.207500", "122110.667500", "122111.127500", "122111.587500", "122112.047500", "122112.507500", "122112.967500", "122113.427500", "122113.887500", "122114.347500", "122114.807500", "122115.267500", "122115.727500", "122116.187500", "122116.647500", "122117.107500", "122117.567500", "122118.027500", "122118.487500", "122118.947500", "122119.407500", "122119.867500", "122120.327500", "122120.787500", "122121.247500", "122121.707500", "122122.167500", "122122.627500", "122123.087500", "122123.547500", "122124.007500", "122124.467500", "122124.927500", "122125.387500", "122125.847500", "122126.307500", "122126.767500", "122127.227500", "122127.687500", "122128.147500", "122128.607500", "122129.067500", "122129.527500", "122129.987500", "122130.447500", "122130.907500", "122131.367500", "122131.827500", "122132.287500", "122132.747500", "122133.207500", "122133.667500", "122134.127500", "122134.587500", "122135.047500", "122135.507500", "122135.967500", "122136.427500", "122136.887500", "122137.347500", "122137.807500", "122138.267500", "122138.727500", "122139.187500", "122139.647500", "122140.107500", "122140.567500", "122141.027500", "122141.487500", "122141.947500", "122142.407500", "122142.867500", "122143.327500", "122143.787500", "122144.247500", "122144.707500", "122145.167500", "122145.627500", "122146.087500", "122146.547500", "122147.007500", "122147.467500", "122147.927500", "122148.387500", "122148.847500", "122149.307500", "122149.767500", "122150.227500", "122150.687500", "122151.147500", "122151.607500", "122152.067500", "122152.527500", "122152.987500", "122153.447500", "122153.907500", "122154.367500", "122154.827500", "122155.287500", "122155.747500", "122156.207500", "122156.667500", "122157.127500", "122157.587500", "122158.047500", "122158.507500", "122158.967500", "122159.427500", "122159.887500", "122200.347500", "122200.807500", "122201.267500", "122201.727500", "122202.187500", "122202.647500", "122203.107500", "122203.567500", "122204.027500", "122204.487500", "122204.947500", "122205.407500", "122205.867500", "122206.327500", "122206.787500", "122207.247500", "122207.707500", "122208.167500", "122208.627500", "122209.087500", "122209.547500", "122210.007500", "122210.467500", "122210.927500", "122211.387500", "122211.847500", "122212.307500", "122212.767500", "122213.227500", "122213.687500", "122214.147500", "122214.607500", "122215.067500", "122215.527500", "122215.987500", "122216.447500", "122216.907500", "122217.367500", "122217.827500", "122218.287500", "122218.747500", "122219.207500", "122219.667500", "122220.127500", "122220.587500", "122221.047500", "122221.507500", "122221.967500", "122222.427500", "122222.887500", "122223.347500", "122223.807500", "122224.267500", "122224.727500", "122225.187500", "122225.647500", "122226.107500", "122226.567500", "122227.027500", "122227.487500", "122227.947500", "122228.407500", "122228.867500", "122229.327500", "122229.787500", "122230.247500", "122230.707500", "122231.167500", "122231.627500", "122232.087500", "122232.547500", "122233.007500", "122233.467500", "122233.927500", "122234.387500", "122234.847500", "122235.307500", "122235.767500", "122236.227500", "122236.687500", "122237.147500", "122237.607500", "122238.067500", "122238.527500", "122238.987500", "122239.447500", "122239.907500", "122240.367500", "122240.827500", "122241.287500", "122241.747500", "122242.207500", "122242.667500", "122243.127500", "122243.587500", "122244.047500", "122244.507500", "122244.967500", "122245.427500", "122245.887500", "122246.347500", "122246.807500", "122247.267500", "122247.727500", "122248.187500", "122248.647500", "122249.107500", "122249.567500", "122250.027500", "122250.487500", "122250.947500", "122251.407500", "122251.867500", "122252.327500", "122252.787500", "122253.247500", "122253.707500", "122254.167500", "122254.627500", "122255.087500", "122255.547500", "122256.007500", "122256.467500", "122256.927500", "122257.387500", "122257.847500", "122258.307500", "122258.767500", "122259.227500", "122259.687500", "122300.147500", "122300.607500", "122301.067500", "122301.527500", "122301.987500", "122302.447500", "122302.907500", "122303.367500", "122303.827500", "122304.287500", "122304.747500", "122305.207500", "122305.667500", "122306.127500", "122306.587500", "122307.047500", "122307.507500", "122307.967500", "122308.427500", "122308.887500", "122309.347500", "122309.807500", "122310.267500", "122310.727500", "122311.187500", "122311.647500", "122312.107500", "122312.567500", "122313.027500", "122313.487500", "122313.947500", "122314.407500", "122314.867500", "122315.327500", "122315.787500", "122316.247500", "122316.707500", "122317.167500", "122317.627500", "122318.087500", "122318.547500", "122319.007500", "122319.467500", "122319.927500", "122320.387500", "122320.847500", "122321.307500", "122321.767500"],
