{
  "AcquisitionMatrixPE": 140,
  "AcquisitionNumber": 1,
  "AcquisitionTime": "12:22:52.020000",
  "BandwidthPerPixelPhaseEncode": 10.352,
  "BaseResolution": 140,
  "BodyPartExamined": "BRAIN",
  "ConsistencyInfo": "N4_VE11E_LATEST_20181129",
  "ConversionSoftware": "dcm2niix",
  "ConversionSoftwareVersion": "v1.0.20201102",
  "DerivedVendorReportedEchoSpacing": 0.000689998,
  "DeviceSerialNumber": "66112",
  "DiffusionScheme": "Monopolar",
  "DwellTime": 2.1e-06,
  "EchoTime": 0.088,
  "EchoTrainLength": 105,
  "EffectiveEchoSpacing": 0.000689998,
  "FlipAngle": 90,
  "ImageComments": "Unaliased MB3/PE3",
  "ImageOrientationPatientDICOM": [0.997444, -0.0640194, 0.031733, 0.0529721, 0.960586, 0.272888],
  "ImageType": [
    "ORIGINAL",
    "PRIMARY",
    "DIFFUSION",
    "NONE",
    "MB",
    "ND"
],
  "ImagingFrequency": 123.252,
  "InPlanePhaseEncodingDirectionDICOM": "COL",
  "InstitutionAddress": "Maynard 3,Hanover,NH,US,03755",
  "InstitutionName": "Dartmouth College - PBS",
  "InstitutionalDepartmentName": "Department",
  "IntendedFor": [
    "ses-01/dwi/sub-0061_ses-01_acq-96dirX6b0Xmb_dwi.nii.gz"
],
  "MRAcquisitionType": "2D",
  "MagneticFieldStrength": 3,
  "Manufacturer": "Siemens",
  "ManufacturersModelName": "Prisma",
  "Modality": "MR",
  "MultibandAccelerationFactor": 3,
  "PartialFourier": 0.75,
  "PatientPosition": "HFS",
  "PercentPhaseFOV": 100,
  "PercentSampling": 100,
  "PhaseEncodingDirection": "j-",
  "PhaseEncodingSteps": 105,
  "PhaseResolution": 1,
  "PixelBandwidth": 1700,
  "ProcedureStepDescription": "Wager_Wager^1076_spacetop",
  "ProtocolName": "dwi_acq-discorr-AP",
  "PulseSequenceDetails": "%CustomerSeq%\\cmrr_mbep2d_diff",
  "ReceiveCoilActiveElements": "HEA;HEP",
  "ReceiveCoilName": "Head_32",
  "ReconMatrixPE": 140,
  "RepetitionTime": 4.1,
  "SAR": 0.127778,
  "ScanOptions": "PFP\\FS",
  "ScanningSequence": "EP",
  "SequenceName": "ep_b0",
  "SequenceVariant": "SK\\SS",
  "SeriesDescription": "dwi_acq-discorr-AP",
  "SeriesNumber": 7,
  "ShimSetting": [4148, -7760, -7284, 535, -92, -98, 15, 65],
  "SliceThickness": 1.7,
  "SliceTiming": [0, 2.10938, 0.14844, 2.26562, 0.29688, 2.41406, 0.45312, 2.57031, 0.60156, 2.71875, 0.75, 2.86719, 0.90625, 3.01562, 1.05469, 3.17188, 1.20312, 3.32031, 1.35938, 3.46875, 1.50781, 3.625, 1.65625, 3.77344, 1.8125, 3.92969, 1.96094, 0, 2.10938, 0.14844, 2.26562, 0.29688, 2.41406, 0.45312, 2.57031, 0.60156, 2.71875, 0.75, 2.86719, 0.90625, 3.01562, 1.05469, 3.17188, 1.20312, 3.32031, 1.35938, 3.46875, 1.50781, 3.625, 1.65625, 3.77344, 1.8125, 3.92969, 1.96094, 0, 2.10938, 0.14844, 2.26562, 0.29688, 2.41406, 0.45312, 2.57031, 0.60156, 2.71875, 0.75, 2.86719, 0.90625, 3.01562, 1.05469, 3.17188, 1.20312, 3.32031, 1.35938, 3.46875, 1.50781, 3.625, 1.65625, 3.77344, 1.8125, 3.92969, 1.96094],
  "SoftwareVersions": "syngo MR E11",
  "SpacingBetweenSlices": 1.7,
  "StationName": "AWP66112",
  "TotalReadoutTime": 0.0959097,
  "TxRefAmp": 231.122,
  "WipMemBlock": "cf75ebaa-1fe5-4d08-9e06-1d09cd4dbd4c||Sequence: R016 ve11e/master r/434b28f1; Aug  7 2019 19:06:17 by eja",
  "dcmmeta_affine": [
    [-1.7099040746688843, 0.09080925583839417, 0.08151912689208984, 110.28993225097656],
    [0.10974759608507156, 1.6467196941375732, 0.4598655700683594, -123.19940185546875],
    [0.05439934507012367, -0.46780726313591003, 1.6345901489257812, -26.1232852935791],
    [0.0, 0.0, 0.0, 1.0]
],
  "dcmmeta_reorient_transform": [
    [0.0, -1.0, 0.0, 139.0],
    [1.0, 0.0, 0.0, 0.0],
    [0.0, 0.0, -1.0, 80.0],
    [0.0, 0.0, 0.0, 1.0]
],
  "dcmmeta_shape": [140, 140, 81],
  "dcmmeta_slice_dim": 2,
  "dcmmeta_version": 0.6,
  "global": {
    "const": {
      "AccessionNumber": "A003907",
      "AcquisitionMatrix": [140, 0, 0, 140],
      "AcquisitionNumber": 1,
      "AngioFlag": "N",
      "BitsAllocated": 16,
      "BitsStored": 16,
      "BodyPartExamined": "BRAIN",
      "Columns": 140,
      "EchoNumbers": 1,
      "EchoTime": 88.0,
      "EchoTrainLength": 105,
      "FlipAngle": 90.0,
      "HighBit": 15,
      "ImageOrientationPatient": [0.99744399956574, -0.064019431269, 0.03173295054507, 0.05297206719633, 0.96058645276623, 0.27288757182939],
      "ImageType": [
        "ORIGINAL",
        "PRIMARY",
        "DIFFUSION",
        "NONE",
        "MB",
        "ND"
],
      "ImagedNucleus": "1H",
      "ImagingFrequency": 123.252151,
      "InPlanePhaseEncodingDirection": "COL",
      "MRAcquisitionType": "2D",
      "MagneticFieldStrength": 3.0,
      "Manufacturer": "SIEMENS",
      "ManufacturerModelName": "Prisma",
      "Modality": "MR",
      "NumberOfAverages": 1.0,
      "NumberOfPhaseEncodingSteps": 105,
      "PercentPhaseFieldOfView": 100.0,
      "PercentSampling": 100.0,
      "PerformedProcedureStepStartTime": "112222.388000",
      "PhotometricInterpretation": "MONOCHROME2",
      "PixelBandwidth": 1700.0,
      "PixelRepresentation": 0,
      "PixelSpacing": [1.7142857313156, 1.7142857313156],
      "ProtocolName": "dwi_acq-discorr-AP",
      "RepetitionTime": 4100.0,
      "Rows": 140,
      "SAR": 0.12777790806618,
      "SamplesPerPixel": 1,
      "ScanOptions": [
        "PFP",
        "FS"
],
      "ScanningSequence": "EP",
      "SequenceName": "ep_b0",
      "SequenceVariant": [
        "SK",
        "SS"
],
      "SeriesDescription": "dwi_acq-discorr-AP",
      "SeriesNumber": 7,
      "SeriesTime": "122256.980000",
      "SliceThickness": 1.7000000476837,
      "SmallestImagePixelValue": 0,
      "SoftwareVersions": "syngo MR E11",
      "SpacingBetweenSlices": 1.7,
      "SpecificCharacterSet": "ISO_IR 100",
      "StudyID": "1",
      "StudyTime": "112222.231000",
      "TransmitCoilName": "Body",
      "VariableFlipAngleFlag": "N",
      "WindowCenterWidthExplanation": "Algo1"
    },
    "slices": {
      "AcquisitionTime": ["122252.020000", "122254.135000", "122252.172500", "122254.287500", "122252.322500", "122254.437500", "122252.475000", "122254.590000", "122252.625000", "122254.740000", "122252.775000", "122254.892500", "122252.927500", "122255.042500", "122253.077500", "122255.195000", "122253.230000", "122255.345000", "122253.380000", "122255.495000", "122253.532500", "122255.647500", "122253.682500", "122255.797500", "122253.835000", "122255.950000", "122253.985000", "122252.020000", "122254.135000", "122252.172500", "122254.287500", "122252.322500", "122254.437500", "122252.475000", "122254.590000", "122252.625000", "122254.740000", "122252.775000", "122254.892500", "122252.927500", "122255.042500", "122253.077500", "122255.195000", "122253.230000", "122255.345000", "122253.380000", "122255.495000", "122253.532500", "122255.647500", "122253.682500", "122255.797500", "122253.835000", "122255.950000", "122253.985000", "122252.020000", "122254.135000", "122252.172500", "122254.287500", "122252.322500", "122254.437500", "122252.475000", "122254.590000", "122252.625000", "122254.740000", "122252.775000", "122254.892500", "122252.927500", "122255.042500", "122253.077500", "122255.195000", "122253.230000", "122255.345000", "122253.380000", "122255.495000", "122253.532500", "122255.647500", "122253.682500", "122255.797500", "122253.835000", "122255.950000", "122253.985000"],
      "ContentTime": ["122256.984000", "122257.084000", "122256.990000", "122257.090000", "122256.996000", "122257.101000", "122257.004000", "122257.107000", "122257.010000", "122257.113000", "122257.016000", "122257.119000", "122257.022000", "122257.125000", "122257.028000", "122257.132000", "122257.033000", "122257.138000", "122257.040000", "122257.144000", "122257.046000", "122257.150000", "122257.066000", "122257.156000", "122257.072000", "122257.162000", "122257.078000", "122256.987000", "122257.086000", "122256.992000", "122257.097000", "122257.000000", "122257.103000", "122257.006000", "122257.109000", "122257.012000", "122257.115000", "122257.018000", "122257.121000", "122257.024000", "122257.127000", "122257.030000", "122257.134000", "122257.035000", "122257.140000", "122257.042000", "122257.146000", "122257.062000", "122257.152000", "122257.068000", "122257.158000", "122257.074000", "122257.164000", "122257.080000", "122256.988000", "122257.088000", "122256.995000", "122257.099000", "122257.002000", "122257.105000", "122257.008000", "122257.111000", "122257.014000", "122257.117000", "122257.020000", "122257.123000", "122257.026000", "122257.129000", "122257.031000", "122257.136000", "122257.037000", "122257.142000", "122257.044000", "122257.148000", "122257.064000", "122257.154000", "122257.070000", "122257.160000", "122257.076000", "122257.166000", "122257.082000"],
      "CsaImage.GSWDDataType": [
        "predicted",
        "predicted",
        "predicted",
        "predicted",
        "predicted",
        "predicted",
        "predicted",
        "predicted",
        "predicted",
        "predicted",
        "predicted",
        "predicted",
        "predicted",
        "predicted",
        "predicted",
        "predicted",
        "predicted",
        "predicted",
        "predicted",
        "predicted",
        "predicted",
        "predicted",
        "predicted",
        "predicted",
        "predicted",
        "measured",
        "predicted",
        "predicted",
        "predicted",
        "predicted",
        "predicted",
        "predicted",
        "predicted",
        "predicted",
        "predicted",
        "predicted",
        "predicted",
        "predicted",
        "predicted",
        "predicted",
        "predicted",
        "predicted",
        "predicted",
        "predicted",
        "predicted",
        "predicted",
        "predicted",
        "predicted",
        "predicted",
        "predicted",
        "predicted",
        "predicted",
        "measured",
        "predicted",
        "predicted",
        "predicted",
        "predicted",
        "predicted",
        "predicted",
        "predicted",
        "predicted",
        "predicted",
        "predicted",
        "predicted",
        "predicted",
        "predicted",
        "predicted",
        "predicted",
        "predicted",
        "predicted",
        "predicted",
        "predicted",
        "predicted",
        "predicted",
        "predicted",
        "predicted",
        "predicted",
        "predicted",
        "predicted",
        "measured",
        "predicted"
],
      "CsaImage.ICE_Dims": [
        "X_1_1_1_1_1_1_1_1_1_1_1_25",
        "X_1_1_1_1_1_1_42_1_1_2_1_25",
        "X_1_1_1_1_1_1_2_1_1_3_1_25",
        "X_1_1_1_1_1_1_43_1_1_4_1_25",
        "X_1_1_1_1_1_1_3_1_1_5_1_25",
        "X_1_1_1_1_1_1_44_1_1_6_1_25",
        "X_1_1_1_1_1_1_4_1_1_7_1_25",
        "X_1_1_1_1_1_1_45_1_1_8_1_25",
        "X_1_1_1_1_1_1_5_1_1_9_1_25",
        "X_1_1_1_1_1_1_46_1_1_10_1_25",
        "X_1_1_1_1_1_1_6_1_1_11_1_25",
        "X_1_1_1_1_1_1_47_1_1_12_1_25",
        "X_1_1_1_1_1_1_7_1_1_13_1_25",
        "X_1_1_1_1_1_1_48_1_1_14_1_25",
        "X_1_1_1_1_1_1_8_1_1_15_1_25",
        "X_1_1_1_1_1_1_49_1_1_16_1_25",
        "X_1_1_1_1_1_1_9_1_1_17_1_25",
        "X_1_1_1_1_1_1_50_1_1_18_1_25",
        "X_1_1_1_1_1_1_10_1_1_19_1_25",
        "X_1_1_1_1_1_1_51_1_1_20_1_25",
        "X_1_1_1_1_1_1_11_1_1_21_1_25",
        "X_1_1_1_1_1_1_52_1_1_22_1_25",
        "X_1_1_1_1_1_1_12_1_1_23_1_25",
        "X_1_1_1_1_1_1_53_1_1_24_1_25",
        "X_1_1_1_1_1_1_13_1_1_25_1_25",
        "X_1_1_1_1_1_1_54_1_1_26_1_25",
        "X_1_1_1_1_1_1_14_1_1_27_1_25",
        "X_1_1_1_1_1_1_55_1_1_28_1_25",
        "X_1_1_1_1_1_1_15_1_1_29_1_25",
        "X_1_1_1_1_1_1_56_1_1_30_1_25",
        "X_1_1_1_1_1_1_16_1_1_31_1_25",
        "X_1_1_1_1_1_1_57_1_1_32_1_25",
        "X_1_1_1_1_1_1_17_1_1_33_1_25",
        "X_1_1_1_1_1_1_58_1_1_34_1_25",
        "X_1_1_1_1_1_1_18_1_1_35_1_25",
        "X_1_1_1_1_1_1_59_1_1_36_1_25",
        "X_1_1_1_1_1_1_19_1_1_37_1_25",
        "X_1_1_1_1_1_1_60_1_1_38_1_25",
        "X_1_1_1_1_1_1_20_1_1_39_1_25",
        "X_1_1_1_1_1_1_61_1_1_40_1_25",
        "X_1_1_1_1_1_1_21_1_1_41_1_25",
        "X_1_1_1_1_1_1_62_1_1_42_1_25",
        "X_1_1_1_1_1_1_22_1_1_43_1_25",
        "X_1_1_1_1_1_1_63_1_1_44_1_25",
        "X_1_1_1_1_1_1_23_1_1_45_1_25",
        "X_1_1_1_1_1_1_64_1_1_46_1_25",
        "X_1_1_1_1_1_1_24_1_1_47_1_25",
        "X_1_1_1_1_1_1_65_1_1_48_1_25",
        "X_1_1_1_1_1_1_25_1_1_49_1_25",
        "X_1_1_1_1_1_1_66_1_1_50_1_25",
        "X_1_1_1_1_1_1_26_1_1_51_1_25",
        "X_1_1_1_1_1_1_67_1_1_52_1_25",
        "X_1_1_1_1_1_1_27_1_1_53_1_25",
        "X_1_1_1_1_1_1_68_1_1_54_1_25",
        "X_1_1_1_1_1_1_28_1_1_55_1_25",
        "X_1_1_1_1_1_1_69_1_1_56_1_25",
        "X_1_1_1_1_1_1_29_1_1_57_1_25",
        "X_1_1_1_1_1_1_70_1_1_58_1_25",
        "X_1_1_1_1_1_1_30_1_1_59_1_25",
        "X_1_1_1_1_1_1_71_1_1_60_1_25",
        "X_1_1_1_1_1_1_31_1_1_61_1_25",
        "X_1_1_1_1_1_1_72_1_1_62_1_25",
        "X_1_1_1_1_1_1_32_1_1_63_1_25",
        "X_1_1_1_1_1_1_73_1_1_64_1_25",
        "X_1_1_1_1_1_1_33_1_1_65_1_25",
        "X_1_1_1_1_1_1_74_1_1_66_1_25",
        "X_1_1_1_1_1_1_34_1_1_67_1_25",
        "X_1_1_1_1_1_1_75_1_1_68_1_25",
        "X_1_1_1_1_1_1_35_1_1_69_1_25",
        "X_1_1_1_1_1_1_76_1_1_70_1_25",
        "X_1_1_1_1_1_1_36_1_1_71_1_25",
        "X_1_1_1_1_1_1_77_1_1_72_1_25",
        "X_1_1_1_1_1_1_37_1_1_73_1_25",
        "X_1_1_1_1_1_1_78_1_1_74_1_25",
        "X_1_1_1_1_1_1_38_1_1_75_1_25",
        "X_1_1_1_1_1_1_79_1_1_76_1_25",
        "X_1_1_1_1_1_1_39_1_1_77_1_25",
        "X_1_1_1_1_1_1_80_1_1_78_1_25",
        "X_1_1_1_1_1_1_40_1_1_79_1_25",
        "X_1_1_1_1_1_1_81_1_1_80_1_25",
        "X_1_1_1_1_1_1_41_1_1_81_1_25"
],
      "CsaImage.ProtocolSliceNumber": [0, 1, 2, 3, 4, 5, 6, 7, 8, 9, 10, 11, 12, 13, 14, 15, 16, 17, 18, 19, 20, 21, 22, 23, 24, 25, 26, 27, 28, 29, 30, 31, 32, 33, 34, 35, 36, 37, 38, 39, 40, 41, 42, 43, 44, 45, 46, 47, 48, 49, 50, 51, 52, 53, 54, 55, 56, 57, 58, 59, 60, 61, 62, 63, 64, 65, 66, 67, 68, 69, 70, 71, 72, 73, 74, 75, 76, 77, 78, 79, 80],
      "CsaImage.RFSWDDataType": [
        "predicted",
        "predicted",
        "predicted",
        "predicted",
        "predicted",
        "predicted",
        "predicted",
        "predicted",
        "predicted",
        "predicted",
        "predicted",
        "predicted",
        "predicted",
        "predicted",
        "predicted",
        "predicted",
        "predicted",
        "predicted",
        "predicted",
        "predicted",
        "predicted",
        "predicted",
        "predicted",
        "measured",
        "predicted",
        "measured",
        "predicted",
        "predicted",
        "predicted",
        "predicted",
        "predicted",
        "predicted",
        "predicted",
        "predicted",
        "predicted",
        "predicted",
        "predicted",
        "predicted",
        "predicted",
        "predicted",
        "predicted",
        "predicted",
        "predicted",
        "predicted",
        "predicted",
        "predicted",
        "predicted",
        "predicted",
        "predicted",
        "predicted",
        "measured",
        "predicted",
        "measured",
        "predicted",
        "predicted",
        "predicted",
        "predicted",
        "predicted",
        "predicted",
        "predicted",
        "predicted",
        "predicted",
        "predicted",
        "predicted",
        "predicted",
        "predicted",
        "predicted",
        "predicted",
        "predicted",
        "predicted",
        "predicted",
        "predicted",
        "predicted",
        "predicted",
        "predicted",
        "predicted",
        "predicted",
        "measured",
        "predicted",
        "measured",
        "predicted"
],
      "CsaImage.SlicePosition_PCS": [
        [-122.91243041, -105.69463034, -91.14833512],
        [-122.99394953, -106.15449591, -89.51374497],
        [-123.07546842, -106.61436136, -87.87915864],
        [-123.15698755, -107.07422687, -86.24456849],
        [-123.23850644, -107.53409238, -84.60998215],
        [-123.32002557, -107.9939579, -82.97539582],
        [-123.40154445, -108.45382341, -81.34080567],
        [-123.48306358, -108.91368886, -79.70621933],
        [-123.56458247, -109.37355443, -78.07162919],
        [-123.6461016, -109.83342, -76.43704285],
        [-123.72762048, -110.29328533, -74.8024527],
        [-123.80913961, -110.7531509, -73.16786637],
        [-123.8906585, -111.21301647, -71.53327622],
        [-123.97217763, -111.67288204, -69.89868989],
        [-124.05369663, -112.13274761, -68.26410164],
        [-124.13521564, -112.5926127, -66.6295134],
        [-124.21673465, -113.05247827, -64.99492516],
        [-124.29825366, -113.51234384, -63.36033692],
        [-124.37977267, -113.97220941, -61.72574868],
        [-124.46129167, -114.43207498, -60.09116044],
        [-124.54281068, -114.89194055, -58.45657219],
        [-124.62432969, -115.35180612, -56.82198395],
        [-124.7058487, -115.81167169, -55.18739571],
        [-124.7873677, -116.27153726, -53.55280747],
        [-124.86888671, -116.73140283, -51.91821923],
        [-124.95040572, -117.1912684, -50.28363099],
        [-125.03192473, -117.65113302, -48.64904274],
        [-125.11344368, -118.11099859, -47.01445546],
        [-125.19496268, -118.57086416, -45.37986722],
        [-125.27648169, -119.03072973, -43.74527897],
        [-125.3580007, -119.4905953, -42.11069073],
        [-125.43951971, -119.95046087, -40.47610249],
        [-125.52103871, -120.41032644, -38.84151449],
        [-125.60255772, -120.87019201, -37.20692625],
        [-125.68407673, -121.33005758, -35.57233812],
        [-125.76559574, -121.78992315, -33.93775],
        [-125.84711474, -122.24978872, -32.30316176],
        [-125.92863375, -122.70965429, -30.66857352],
        [-126.01015276, -123.16951986, -29.03398575],
        [-126.09167176, -123.62938543, -27.39939751],
        [-126.17319077, -124.089251, -25.76480927],
        [-126.25470977, -124.54911657, -24.13022103],
        [-126.33622879, -125.00898214, -22.49563279],
        [-126.4177478, -125.46884771, -20.86104455],
        [-126.49926681, -125.92871328, -19.2264563],
        [-126.58078581, -126.38857885, -17.59186806],
        [-126.66230482, -126.84844442, -15.95727982],
        [-126.74382383, -127.30830808, -14.32269158],
        [-126.82534284, -127.76817365, -12.68810334],
        [-126.90686184, -128.22803922, -11.053517],
        [-126.98838085, -128.68790479, -9.41892876],
        [-127.0698998, -129.14777036, -7.78434052],
        [-127.15141881, -129.60763593, -6.14975228],
        [-127.23293782, -130.0675015, -4.51516404],
        [-127.31445682, -130.52736707, -2.88057389],
        [-127.39597583, -130.98723264, -1.24598755],
        [-127.47749484, -131.44709821, 0.3886026],
        [-127.55901385, -131.90696378, 2.02318893],
        [-127.64053285, -132.36682935, 3.65777526],
        [-127.72205186, -132.82669492, 5.29236541],
        [-127.80357087, -133.28656049, 6.92695175],
        [-127.88508988, -133.74642606, 8.5615419],
        [-127.96660888, -134.20629163, 10.19612823],
        [-128.04812789, -134.6661572, 11.83071838],
        [-128.1296469, -135.12602277, 13.46530471],
        [-128.21116603, -135.58588834, 15.09989486],
        [-128.29268492, -136.04575391, 16.7344812],
        [-128.37420404, -136.50561948, 18.36907135],
        [-128.45572293, -136.96548505, 20.00365768],
        [-128.53724206, -137.42535062, 21.63824783],
        [-128.61876095, -137.88521619, 23.27283416],
        [-128.70028007, -138.34508176, 24.90742431],
        [-128.78179896, -138.80494733, 26.54201065],
        [-128.86331785, -139.26481291, 28.17660079],
        [-128.94483698, -139.72467848, 29.81119094],
        [-129.02635587, -140.18454405, 31.44577346],
        [-129.10787499, -140.64440962, 33.08036361],
        [-129.18939388, -141.10427519, 34.71495376],
        [-129.27091301, -141.56414076, 36.34953628],
        [-129.3524319, -142.02400633, 37.98412643],
        [-129.43395102, -142.4838719, 39.61871658]
],
      "CsaImage.TimeAfterStart": [16.4, 18.515, 16.55, 18.6675, 16.7025, 18.8175, 16.8525, 18.97, 17.005, 19.12, 17.155, 19.27, 17.3075, 19.4225, 17.4575, 19.5725, 17.61, 19.725, 17.76, 19.875, 17.91, 20.0275, 18.0625, 20.1775, 18.2125, 20.33, 18.365, 16.4, 18.515, 16.55, 18.6675, 16.7025, 18.8175, 16.8525, 18.97, 17.005, 19.12, 17.155, 19.27, 17.3075, 19.4225, 17.4575, 19.5725, 17.61, 19.725, 17.76, 19.875, 17.91, 20.0275, 18.0625, 20.1775, 18.2125, 20.33, 18.365, 16.4, 18.515, 16.55, 18.6675, 16.7025, 18.8175, 16.8525, 18.97, 17.005, 19.12, 17.155, 19.27, 17.3075, 19.4225, 17.4575, 19.5725, 17.61, 19.725, 17.76, 19.875, 17.91, 20.0275, 18.0625, 20.1775, 18.2125, 20.33, 18.365],
      "ImagePositionPatient": [
        [-122.91243040805, -105.69463034318, -91.148335118384],
        [-122.99394953494, -106.15449591324, -89.513744969458],
        [-123.07546842342, -106.6143613641, -87.879158635229],
        [-123.15698755031, -107.07422687457, -86.244568486303],
        [-123.23850643878, -107.53409238131, -84.609982152075],
        [-123.32002556567, -107.99395789549, -82.975395817846],
        [-123.40154445415, -108.45382340596, -81.340805668921],
        [-123.48306358104, -108.91368885682, -79.706219334692],
        [-123.56458246951, -109.37355442689, -78.071629185766],
        [-123.64610159641, -109.83341999695, -76.437042851538],
        [-123.72762048488, -110.2932853286, -74.802452702612],
        [-123.80913961177, -110.75315089867, -73.167866368384],
        [-123.89065850024, -111.21301646874, -71.533276219458],
        [-123.97217762714, -111.67288203881, -69.898689885229],
        [-124.05369663482, -112.13274760888, -68.264101643652],
        [-124.1352156425, -112.59261270211, -66.629513402075],
        [-124.21673465019, -113.05247827218, -64.994925160498],
        [-124.29825365787, -113.51234384225, -63.360336918921],
        [-124.37977266555, -113.97220941231, -61.725748677344],
        [-124.46129167323, -114.43207498238, -60.091160435766],
        [-124.54281068092, -114.89194055245, -58.456572194189],
        [-124.6243296886, -115.35180612252, -56.821983952612],
        [-124.70584869628, -115.81167169259, -55.187395711035],
        [-124.78736770397, -116.27153726266, -53.552807469458],
        [-124.86888671165, -116.73140283272, -51.918219227881],
        [-124.95040571933, -117.19126840279, -50.283630986303],
        [-125.03192472701, -117.65113301919, -48.649042744726],
        [-125.11344367509, -118.11099858925, -47.014455456823],
        [-125.19496268277, -118.57086415932, -45.379867215246],
        [-125.27648169046, -119.03072972939, -43.745278973669],
        [-125.35800069814, -119.49059529946, -42.110690732092],
        [-125.43951970582, -119.95046086953, -40.476102490515],
        [-125.52103871351, -120.4103264396, -38.841514487356],
        [-125.60255772119, -120.87019200966, -37.206926245779],
        [-125.68407672887, -121.33005757973, -35.572338123411],
        [-125.76559573655, -121.7899231498, -33.937750001043],
        [-125.84711474424, -122.24978871987, -32.303161759466],
        [-125.92863375192, -122.70965428994, -30.668573517889],
        [-126.01015275588, -123.16951986001, -29.033985753149],
        [-126.09167175983, -123.62938543007, -27.399397511572],
        [-126.17319076752, -124.08925100014, -25.764809269995],
        [-126.25470976775, -124.54911657021, -24.130221028418],
        [-126.33622879033, -125.00898214028, -22.495632786841],
        [-126.41774779802, -125.46884771035, -20.861044545263],
        [-126.4992668057, -125.92871328042, -19.226456303686],
        [-126.58078581338, -126.38857885049, -17.591868062109],
        [-126.66230482106, -126.84844442055, -15.957279820532],
        [-126.74382382875, -127.30830808327, -14.322691578955],
        [-126.82534283643, -127.76817365334, -12.688103337378],
        [-126.90686184411, -128.22803922341, -11.053517003149],
        [-126.9883808518, -128.68790479348, -9.418928761572],
        [-127.06989979987, -129.14777036355, -7.7843405199949],
        [-127.15141880756, -129.60763593361, -6.1497522784177],
        [-127.23293781524, -130.06750150368, -4.5151640368406],
        [-127.31445682292, -130.52736707375, -2.8805738879148],
        [-127.39597583061, -130.98723264382, -1.2459875536863],
        [-127.47749483829, -131.44709821389, 0.38860259523951],
        [-127.55901384597, -131.90696378396, 2.023188929468],
        [-127.64053285365, -132.36682935403, 3.6577752636965],
        [-127.72205186134, -132.82669492409, 5.2923654126223],
        [-127.80357086902, -133.28656049416, 6.9269517468508],
        [-127.8850898767, -133.74642606423, 8.5615418957766],
        [-127.96660888438, -134.2062916343, 10.196128230005],
        [-128.04812789207, -134.66615720437, 11.830718378931],
        [-128.12964689975, -135.12602277444, 13.465304713159],
        [-128.21116602664, -135.5858883445, 15.099894862085],
        [-128.29268491512, -136.04575391457, 16.734481196314],
        [-128.37420404201, -136.50561948464, 18.36907134524],
        [-128.45572293048, -136.96548505471, 20.003657679468],
        [-128.53724205737, -137.42535062478, 21.638247828394],
        [-128.61876094585, -137.88521619485, 23.272834162622],
        [-128.70028007274, -138.34508176491, 24.907424311548],
        [-128.78179896121, -138.80494733498, 26.542010645777],
        [-128.86331784969, -139.26481290505, 28.176600794702],
        [-128.94483697658, -139.72467847512, 29.811190943628],
        [-129.02635586505, -140.18454404519, 31.445773463159],
        [-129.10787499194, -140.64440961526, 33.080363612085],
        [-129.18939388042, -141.10427518532, 34.714953761011],
        [-129.27091300731, -141.56414075539, 36.349536280542],
        [-129.35243189578, -142.02400632546, 37.984126429468],
        [-129.43395102268, -142.48387189553, 39.618716578394]
],
      "InstanceCreationTime": ["122256.984000", "122257.084000", "122256.990000", "122257.090000", "122256.996000", "122257.101000", "122257.004000", "122257.107000", "122257.010000", "122257.113000", "122257.016000", "122257.119000", "122257.022000", "122257.125000", "122257.028000", "122257.132000", "122257.033000", "122257.138000", "122257.040000", "122257.144000", "122257.046000", "122257.150000", "122257.066000", "122257.156000", "122257.072000", "122257.162000", "122257.078000", "122256.987000", "122257.086000", "122256.992000", "122257.097000", "122257.000000", "122257.103000", "122257.006000", "122257.109000", "122257.012000", "122257.115000", "122257.018000", "122257.121000", "122257.024000", "122257.127000", "122257.030000", "122257.134000", "122257.035000", "122257.140000", "122257.042000", "122257.146000", "122257.062000", "122257.152000", "122257.068000", "122257.158000", "122257.074000", "122257.164000", "122257.080000", "122256.988000", "122257.088000", "122256.995000", "122257.099000", "122257.002000", "122257.105000", "122257.008000", "122257.111000", "122257.014000", "122257.117000", "122257.020000", "122257.123000", "122257.026000", "122257.129000", "122257.031000", "122257.136000", "122257.037000", "122257.142000", "122257.044000", "122257.148000", "122257.064000", "122257.154000", "122257.070000", "122257.160000", "122257.076000", "122257.166000", "122257.082000"],
      "InstanceNumber": [1, 2, 3, 4, 5, 6, 7, 8, 9, 10, 11, 12, 13, 14, 15, 16, 17, 18, 19, 20, 21, 22, 23, 24, 25, 26, 27, 28, 29, 30, 31, 32, 33, 34, 35, 36, 37, 38, 39, 40, 41, 42, 43, 44, 45, 46, 47, 48, 49, 50, 51, 52, 53, 54, 55, 56, 57, 58, 59, 60, 61, 62, 63, 64, 65, 66, 67, 68, 69, 70, 71, 72, 73, 74, 75, 76, 77, 78, 79, 80, 81],
      "LargestImagePixelValue": [36978, 21095, 18979, 21630, 20047, 21798, 27117, 24239, 36516, 43751, 30286, 31325, 28274, 30853, 32941, 34996, 46030, 53775, 49758, 57830, 58268, 50524, 65535, 57625, 58485, 61902, 44260, 44734, 41174, 36905, 33285, 42896, 42283, 36020, 59123, 49931, 38713, 34220, 35072, 29308, 35313, 42807, 39694, 33926, 37681, 42916, 39553, 44596, 44783, 46614, 53988, 54786, 51286, 36163, 41463, 43240, 36681, 39682, 44125, 38938, 48524, 48891, 39010, 41063, 48758, 47317, 53599, 43244, 43688, 39643, 45615, 43368, 53885, 45371, 38681, 45354, 58257, 36948, 9223, 7055, 6643],
      "SliceLocation": [-53.155868800594, -51.45586684014, -49.755868591283, -48.055866646952, -46.355868382979, -44.655870105557, -42.955868172659, -41.255869912369, -39.555867963347, -37.85586967081, -36.155867786283, -34.455869493746, -32.755867544724, -31.055869252187, -29.355869131407, -27.655869139617, -25.955869018837, -24.255868898058, -22.555868777278, -20.855868656499, -19.155868535719, -17.45586841494, -15.75586829416, -14.055868173381, -12.355868052602, -10.655867931822, -8.9558680690202, -7.2558688680782, -5.5558687472988, -3.8558686265193, -2.1558685057399, -0.4558683849604, 1.2441315065742, 2.9441316273537, 4.6441316335107, 6.3441316396678, 8.0441317604472, 9.7441318812267, 11.444131543338, 13.144131663939, 14.844131784718, 16.54413190514, 18.244132026634, 19.944132147414, 21.644132268193, 23.344132388973, 25.044132509752, 26.744132114576, 28.444132235356, 30.144130522177, 31.844130642956, 33.544130760878, 35.244130881657, 36.944131002436, 38.644132957174, 40.344131243995, 42.044133198733, 43.744131485554, 45.444129772375, 47.144131727113, 48.844130013934, 50.544131968672, 52.244130255493, 53.944132210231, 55.644130497052, 57.344132457506, 59.044130738611, 60.744132699065, 62.44413098017, 64.144132940624, 65.844131221729, 67.544133182183, 69.244131463288, 70.944133412309, 72.644135372763, 74.344129985951, 76.044131946405, 77.744133895427, 79.444128520047, 81.144130469069, 82.844132429523],
