{
  "AcquisitionMatrixPE": 140,
  "AcquisitionNumber": 1,
  "AcquisitionTime": "21:10:58.847500",
  "BandwidthPerPixelPhaseEncode": 10.352,
  "BaseResolution": 140,
  "BodyPartExamined": "BRAIN",
  "ConsistencyInfo": "N4_VE11E_LATEST_20181129",
  "ConversionSoftware": "dcm2niix",
  "ConversionSoftwareVersion": "v1.0.20201102",
  "DerivedVendorReportedEchoSpacing": 0.000689998,
  "DeviceSerialNumber": "66112",
  "DiffusionScheme": "Monopolar",
  "DwellTime": 2.1e-06,
  "EchoTime": 0.088,
  "EchoTrainLength": 105,
  "EffectiveEchoSpacing": 0.000689998,
  "FlipAngle": 90,
  "ImageComments": "Unaliased MB3/PE3",
  "ImageOrientationPatientDICOM": [0.999716, 0.0134654, 0.0196548, -0.0137851, 0.999773, 0.0162196],
  "ImageType": [
    "ORIGINAL",
    "PRIMARY",
    "DIFFUSION",
    "NONE",
    "MB",
    "ND"
],
  "ImagingFrequency": 123.259,
  "InPlanePhaseEncodingDirectionDICOM": "COL",
  "InstitutionAddress": "Maynard 3,Hanover,NH,US,03755",
  "InstitutionName": "Dartmouth College - PBS",
  "InstitutionalDepartmentName": "Department",
  "IntendedFor": [
    "ses-01/dwi/sub-0132_ses-01_acq-96dirX6b0Xmb_dwi.nii.gz"
],
  "MRAcquisitionType": "2D",
  "MagneticFieldStrength": 3,
  "Manufacturer": "Siemens",
  "ManufacturersModelName": "Prisma",
  "Modality": "MR",
  "MultibandAccelerationFactor": 3,
  "PartialFourier": 0.75,
  "PatientPosition": "HFS",
  "PercentPhaseFOV": 100,
  "PercentSampling": 100,
  "PhaseEncodingDirection": "j",
  "PhaseEncodingSteps": 105,
  "PhaseResolution": 1,
  "PixelBandwidth": 1700,
  "ProcedureStepDescription": "Wager_Wager^1076_spacetop",
  "ProtocolName": "dwi_acq-discorr-PA",
  "PulseSequenceDetails": "%CustomerSeq%\\cmrr_mbep2d_diff",
  "ReceiveCoilActiveElements": "HEA;HEP",
  "ReceiveCoilName": "Head_32",
  "ReconMatrixPE": 140,
  "RepetitionTime": 4.1,
  "SAR": 0.133786,
  "ScanOptions": "PFP\\FS",
  "ScanningSequence": "EP",
  "SequenceName": "ep_b0",
  "SequenceVariant": "SK\\SS",
  "SeriesDescription": "dwi_acq-discorr-PA",
  "SeriesNumber": 6,
  "ShimSetting": [4221, -7715, -7274, 195, -116, -46, -98, 94],
  "SliceThickness": 1.7,
  "SliceTiming": [0, 2.125, 0.15625, 2.26562, 0.3125, 2.42188, 0.45312, 2.57812, 0.60938, 2.71875, 0.76562, 2.875, 0.90625, 3.03125, 1.0625, 3.17188, 1.21875, 3.32812, 1.35938, 3.48438, 1.51562, 3.625, 1.67188, 3.78125, 1.8125, 3.9375, 1.96875, 0, 2.125, 0.15625, 2.26562, 0.3125, 2.42188, 0.45312, 2.57812, 0.60938, 2.71875, 0.76562, 2.875, 0.90625, 3.03125, 1.0625, 3.17188, 1.21875, 3.32812, 1.35938, 3.48438, 1.51562, 3.625, 1.67188, 3.78125, 1.8125, 3.9375, 1.96875, 0, 2.125, 0.15625, 2.26562, 0.3125, 2.42188, 0.45312, 2.57812, 0.60938, 2.71875, 0.76562, 2.875, 0.90625, 3.03125, 1.0625, 3.17188, 1.21875, 3.32812, 1.35938, 3.48438, 1.51562, 3.625, 1.67188, 3.78125, 1.8125, 3.9375, 1.96875],
  "SoftwareVersions": "syngo MR E11",
  "SpacingBetweenSlices": 1.7,
  "StationName": "AWP66112",
  "TotalReadoutTime": 0.0959097,
  "TxRefAmp": 241.019,
  "WipMemBlock": "26d9cbd8-8da2-485d-ac10-a3ee202f2074||Sequence: R016 ve11e/master r/434b28f1; Aug  7 2019 19:06:17 by eja",
  "dcmmeta_affine": [
    [-1.7137991189956665, -0.02363155037164688, 0.033034324645996094, 123.50126647949219],
    [-0.02308357134461403, 1.7138973474502563, 0.028026580810546875, -99.38082885742188],
    [0.03369395062327385, -0.027804948389530182, 1.6994476318359375, -91.7232437133789],
    [0.0, 0.0, 0.0, 1.0]
],
  "dcmmeta_reorient_transform": [
    [0.0, -1.0, 0.0, 139.0],
    [1.0, 0.0, 0.0, 0.0],
    [0.0, 0.0, -1.0, 80.0],
    [0.0, 0.0, 0.0, 1.0]
],
  "dcmmeta_shape": [140, 140, 81],
  "dcmmeta_slice_dim": 2,
  "dcmmeta_version": 0.6,
  "global": {
    "const": {
      "AccessionNumber": "A004922",
      "AcquisitionMatrix": [140, 0, 0, 140],
      "AcquisitionNumber": 1,
      "AngioFlag": "N",
      "BitsAllocated": 16,
      "BitsStored": 16,
      "BodyPartExamined": "BRAIN",
      "Columns": 140,
      "EchoNumbers": 1,
      "EchoTime": 88.0,
      "EchoTrainLength": 105,
      "FlipAngle": 90.0,
      "HighBit": 15,
      "ImageOrientationPatient": [0.99971614534161, 0.01346541662264, 0.0196548034459, -0.013785070755, 0.99977342329437, 0.01621955296946],
      "ImageType": [
        "ORIGINAL",
        "PRIMARY",
        "DIFFUSION",
        "NONE",
        "MB",
        "ND"
],
      "ImagedNucleus": "1H",
      "ImagingFrequency": 123.259101,
      "InPlanePhaseEncodingDirection": "COL",
      "MRAcquisitionType": "2D",
      "MagneticFieldStrength": 3.0,
      "Manufacturer": "SIEMENS",
      "ManufacturerModelName": "Prisma",
      "Modality": "MR",
      "NumberOfAverages": 1.0,
      "NumberOfPhaseEncodingSteps": 105,
      "PercentPhaseFieldOfView": 100.0,
      "PercentSampling": 100.0,
      "PerformedProcedureStepStartTime": "210258.080000",
      "PhotometricInterpretation": "MONOCHROME2",
      "PixelBandwidth": 1700.0,
      "PixelRepresentation": 0,
      "PixelSpacing": [1.7142857313156, 1.7142857313156],
      "ProtocolName": "dwi_acq-discorr-PA",
      "RepetitionTime": 4100.0,
      "Rows": 140,
      "SAR": 0.13378576978239,
      "SamplesPerPixel": 1,
      "ScanOptions": [
        "PFP",
        "FS"
],
      "ScanningSequence": "EP",
      "SequenceName": "ep_b0",
      "SequenceVariant": [
        "SK",
        "SS"
],
      "SeriesDescription": "dwi_acq-discorr-PA",
      "SeriesNumber": 6,
      "SeriesTime": "211103.899000",
      "SliceThickness": 1.7000000476837,
      "SmallestImagePixelValue": 0,
      "SoftwareVersions": "syngo MR E11",
      "SpacingBetweenSlices": 1.7,
      "SpecificCharacterSet": "ISO_IR 100",
      "StudyID": "1",
      "StudyTime": "210258.020000",
      "TransmitCoilName": "Body",
      "VariableFlipAngleFlag": "N",
      "WindowCenterWidthExplanation": "Algo1"
    },
    "slices": {
      "AcquisitionTime": ["211058.847500", "211100.965000", "211059.000000", "211101.115000", "211059.150000", "211101.267500", "211059.302500", "211101.417500", "211059.452500", "211101.567500", "211059.605000", "211101.720000", "211059.755000", "211101.870000", "211059.907500", "211102.022500", "211100.057500", "211102.172500", "211100.207500", "211102.325000", "211100.360000", "211102.475000", "211100.510000", "211102.627500", "211100.662500", "211102.777500", "211100.812500", "211058.847500", "211100.965000", "211059.000000", "211101.115000", "211059.150000", "211101.267500", "211059.302500", "211101.417500", "211059.452500", "211101.567500", "211059.605000", "211101.720000", "211059.755000", "211101.870000", "211059.907500", "211102.022500", "211100.057500", "211102.172500", "211100.207500", "211102.325000", "211100.360000", "211102.475000", "211100.510000", "211102.627500", "211100.662500", "211102.777500", "211100.812500", "211058.847500", "211100.965000", "211059.000000", "211101.115000", "211059.150000", "211101.267500", "211059.302500", "211101.417500", "211059.452500", "211101.567500", "211059.605000", "211101.720000", "211059.755000", "211101.870000", "211059.907500", "211102.022500", "211100.057500", "211102.172500", "211100.207500", "211102.325000", "211100.360000", "211102.475000", "211100.510000", "211102.627500", "211100.662500", "211102.777500", "211100.812500"],
      "ContentTime": ["211103.902000", "211103.996000", "211103.909000", "211104.043000", "211103.915000", "211104.049000", "211103.921000", "211104.056000", "211103.930000", "211104.062000", "211103.936000", "211104.069000", "211103.942000", "211104.075000", "211103.949000", "211104.081000", "211103.955000", "211104.087000", "211103.962000", "211104.093000", "211103.969000", "211104.100000", "211103.974000", "211104.105000", "211103.980000", "211104.111000", "211103.990000", "211103.905000", "211103.998000", "211103.911000", "211104.045000", "211103.917000", "211104.051000", "211103.923000", "211104.058000", "211103.932000", "211104.065000", "211103.938000", "211104.071000", "211103.945000", "211104.077000", "211103.951000", "211104.083000", "211103.958000", "211104.089000", "211103.965000", "211104.096000", "211103.971000", "211104.101000", "211103.976000", "211104.107000", "211103.982000", "211104.113000", "211103.992000", "211103.907000", "211104.001000", "211103.913000", "211104.047000", "211103.919000", "211104.053000", "211103.928000", "211104.060000", "211103.934000", "211104.067000", "211103.940000", "211104.073000", "211103.947000", "211104.079000", "211103.953000", "211104.085000", "211103.960000", "211104.091000", "211103.967000", "211104.097000", "211103.973000", "211104.104000", "211103.978000", "211104.109000", "211103.984000", "211104.116000", "211103.994000"],
      "CsaImage.GSWDDataType": [
        "predicted",
        "predicted",
        "predicted",
        "predicted",
        "predicted",
        "predicted",
        "predicted",
        "predicted",
        "predicted",
        "predicted",
        "predicted",
        "predicted",
        "predicted",
        "predicted",
        "predicted",
        "predicted",
        "predicted",
        "predicted",
        "predicted",
        "predicted",
        "predicted",
        "predicted",
        "predicted",
        "measured",
        "predicted",
        "measured",
        "predicted",
        "predicted",
        "predicted",
        "predicted",
        "predicted",
        "predicted",
        "predicted",
        "predicted",
        "predicted",
        "predicted",
        "predicted",
        "predicted",
        "predicted",
        "predicted",
        "predicted",
        "predicted",
        "predicted",
        "predicted",
        "predicted",
        "predicted",
        "predicted",
        "predicted",
        "predicted",
        "predicted",
        "measured",
        "predicted",
        "measured",
        "predicted",
        "predicted",
        "predicted",
        "predicted",
        "predicted",
        "predicted",
        "predicted",
        "predicted",
        "predicted",
        "predicted",
        "predicted",
        "predicted",
        "predicted",
        "predicted",
        "predicted",
        "predicted",
        "predicted",
        "predicted",
        "predicted",
        "predicted",
        "predicted",
        "predicted",
        "predicted",
        "predicted",
        "measured",
        "predicted",
        "measured",
        "predicted"
],
      "CsaImage.ICE_Dims": [
        "X_1_1_1_1_1_1_1_1_1_1_1_162",
        "X_1_1_1_1_1_1_42_1_1_2_1_162",
        "X_1_1_1_1_1_1_2_1_1_3_1_162",
        "X_1_1_1_1_1_1_43_1_1_4_1_162",
        "X_1_1_1_1_1_1_3_1_1_5_1_162",
        "X_1_1_1_1_1_1_44_1_1_6_1_162",
        "X_1_1_1_1_1_1_4_1_1_7_1_162",
        "X_1_1_1_1_1_1_45_1_1_8_1_162",
        "X_1_1_1_1_1_1_5_1_1_9_1_162",
        "X_1_1_1_1_1_1_46_1_1_10_1_162",
        "X_1_1_1_1_1_1_6_1_1_11_1_162",
        "X_1_1_1_1_1_1_47_1_1_12_1_162",
        "X_1_1_1_1_1_1_7_1_1_13_1_162",
        "X_1_1_1_1_1_1_48_1_1_14_1_162",
        "X_1_1_1_1_1_1_8_1_1_15_1_162",
        "X_1_1_1_1_1_1_49_1_1_16_1_162",
        "X_1_1_1_1_1_1_9_1_1_17_1_162",
        "X_1_1_1_1_1_1_50_1_1_18_1_162",
        "X_1_1_1_1_1_1_10_1_1_19_1_162",
        "X_1_1_1_1_1_1_51_1_1_20_1_162",
        "X_1_1_1_1_1_1_11_1_1_21_1_162",
        "X_1_1_1_1_1_1_52_1_1_22_1_162",
        "X_1_1_1_1_1_1_12_1_1_23_1_162",
        "X_1_1_1_1_1_1_53_1_1_24_1_162",
        "X_1_1_1_1_1_1_13_1_1_25_1_162",
        "X_1_1_1_1_1_1_54_1_1_26_1_162",
        "X_1_1_1_1_1_1_14_1_1_27_1_162",
        "X_1_1_1_1_1_1_55_1_1_28_1_162",
        "X_1_1_1_1_1_1_15_1_1_29_1_162",
        "X_1_1_1_1_1_1_56_1_1_30_1_162",
        "X_1_1_1_1_1_1_16_1_1_31_1_162",
        "X_1_1_1_1_1_1_57_1_1_32_1_162",
        "X_1_1_1_1_1_1_17_1_1_33_1_162",
        "X_1_1_1_1_1_1_58_1_1_34_1_162",
        "X_1_1_1_1_1_1_18_1_1_35_1_162",
        "X_1_1_1_1_1_1_59_1_1_36_1_162",
        "X_1_1_1_1_1_1_19_1_1_37_1_162",
        "X_1_1_1_1_1_1_60_1_1_38_1_162",
        "X_1_1_1_1_1_1_20_1_1_39_1_162",
        "X_1_1_1_1_1_1_61_1_1_40_1_162",
        "X_1_1_1_1_1_1_21_1_1_41_1_162",
        "X_1_1_1_1_1_1_62_1_1_42_1_162",
        "X_1_1_1_1_1_1_22_1_1_43_1_162",
        "X_1_1_1_1_1_1_63_1_1_44_1_162",
        "X_1_1_1_1_1_1_23_1_1_45_1_162",
        "X_1_1_1_1_1_1_64_1_1_46_1_162",
        "X_1_1_1_1_1_1_24_1_1_47_1_162",
        "X_1_1_1_1_1_1_65_1_1_48_1_162",
        "X_1_1_1_1_1_1_25_1_1_49_1_162",
        "X_1_1_1_1_1_1_66_1_1_50_1_162",
        "X_1_1_1_1_1_1_26_1_1_51_1_162",
        "X_1_1_1_1_1_1_67_1_1_52_1_162",
        "X_1_1_1_1_1_1_27_1_1_53_1_162",
        "X_1_1_1_1_1_1_68_1_1_54_1_162",
        "X_1_1_1_1_1_1_28_1_1_55_1_162",
        "X_1_1_1_1_1_1_69_1_1_56_1_162",
        "X_1_1_1_1_1_1_29_1_1_57_1_162",
        "X_1_1_1_1_1_1_70_1_1_58_1_162",
        "X_1_1_1_1_1_1_30_1_1_59_1_162",
        "X_1_1_1_1_1_1_71_1_1_60_1_162",
        "X_1_1_1_1_1_1_31_1_1_61_1_162",
        "X_1_1_1_1_1_1_72_1_1_62_1_162",
        "X_1_1_1_1_1_1_32_1_1_63_1_162",
        "X_1_1_1_1_1_1_73_1_1_64_1_162",
        "X_1_1_1_1_1_1_33_1_1_65_1_162",
        "X_1_1_1_1_1_1_74_1_1_66_1_162",
        "X_1_1_1_1_1_1_34_1_1_67_1_162",
        "X_1_1_1_1_1_1_75_1_1_68_1_162",
        "X_1_1_1_1_1_1_35_1_1_69_1_162",
        "X_1_1_1_1_1_1_76_1_1_70_1_162",
        "X_1_1_1_1_1_1_36_1_1_71_1_162",
        "X_1_1_1_1_1_1_77_1_1_72_1_162",
        "X_1_1_1_1_1_1_37_1_1_73_1_162",
        "X_1_1_1_1_1_1_78_1_1_74_1_162",
        "X_1_1_1_1_1_1_38_1_1_75_1_162",
        "X_1_1_1_1_1_1_79_1_1_76_1_162",
        "X_1_1_1_1_1_1_39_1_1_77_1_162",
        "X_1_1_1_1_1_1_80_1_1_78_1_162",
        "X_1_1_1_1_1_1_40_1_1_79_1_162",
        "X_1_1_1_1_1_1_81_1_1_80_1_162",
        "X_1_1_1_1_1_1_41_1_1_81_1_162"
],
      "CsaImage.ProtocolSliceNumber": [0, 1, 2, 3, 4, 5, 6, 7, 8, 9, 10, 11, 12, 13, 14, 15, 16, 17, 18, 19, 20, 21, 22, 23, 24, 25, 26, 27, 28, 29, 30, 31, 32, 33, 34, 35, 36, 37, 38, 39, 40, 41, 42, 43, 44, 45, 46, 47, 48, 49, 50, 51, 52, 53, 54, 55, 56, 57, 58, 59, 60, 61, 62, 63, 64, 65, 66, 67, 68, 69, 70, 71, 72, 73, 74, 75, 76, 77, 78, 79, 80],
      "CsaImage.RFSWDDataType": [
        "predicted",
        "predicted",
        "predicted",
        "predicted",
        "predicted",
        "predicted",
        "predicted",
        "predicted",
        "predicted",
        "predicted",
        "predicted",
        "predicted",
        "predicted",
        "predicted",
        "predicted",
        "predicted",
        "predicted",
        "predicted",
        "predicted",
        "predicted",
        "predicted",
        "predicted",
        "predicted",
        "measured",
        "predicted",
        "measured",
        "predicted",
        "predicted",
        "predicted",
        "predicted",
        "predicted",
        "predicted",
        "predicted",
        "predicted",
        "predicted",
        "predicted",
        "predicted",
        "predicted",
        "predicted",
        "predicted",
        "predicted",
        "predicted",
        "predicted",
        "predicted",
        "predicted",
        "predicted",
        "predicted",
        "predicted",
        "predicted",
        "predicted",
        "measured",
        "predicted",
        "measured",
        "predicted",
        "predicted",
        "predicted",
        "predicted",
        "predicted",
        "predicted",
        "predicted",
        "predicted",
        "predicted",
        "predicted",
        "predicted",
        "predicted",
        "predicted",
        "predicted",
        "predicted",
        "predicted",
        "predicted",
        "predicted",
        "predicted",
        "predicted",
        "predicted",
        "predicted",
        "predicted",
        "predicted",
        "measured",
        "predicted",
        "measured",
        "predicted"
],
      "CsaImage.SlicePosition_PCS": [
        [-120.21648417, -138.85094151, -95.58813357],
        [-120.24951837, -138.87896809, -93.88868594],
        [-120.2825527, -138.90699276, -92.1892383],
        [-120.31558702, -138.93501934, -90.48979067],
        [-120.34862135, -138.96304592, -88.79034304],
        [-120.38165567, -138.9910706, -87.09089541],
        [-120.41469, -139.01909718, -85.39144015],
        [-120.44772432, -139.04712376, -83.69199251],
        [-120.48075865, -139.07515034, -81.99254488],
        [-120.51379297, -139.10317501, -80.29309725],
        [-120.5468273, -139.13120159, -78.59364962],
        [-120.57986162, -139.15922818, -76.89420199],
        [-120.61289594, -139.18725285, -75.19475436],
        [-120.64593003, -139.21527943, -73.49530672],
        [-120.67896436, -139.24330601, -71.79585909],
        [-120.71199868, -139.27133068, -70.09641146],
        [-120.74503301, -139.29935726, -68.39696383],
        [-120.77806733, -139.32738385, -66.69752001],
        [-120.81110165, -139.35541043, -64.99807238],
        [-120.84413598, -139.3834351, -63.29862475],
        [-120.8771703, -139.41146168, -61.59917712],
        [-120.91020463, -139.43948826, -59.89972948],
        [-120.94323895, -139.46751293, -58.20028185],
        [-120.97627328, -139.49553952, -56.50083422],
        [-121.0093076, -139.5235661, -54.80138659],
        [-121.04234193, -139.55159077, -53.10193896],
        [-121.07537625, -139.57961735, -51.40249132],
        [-121.10841058, -139.60764393, -49.70304369],
        [-121.1414449, -139.63567051, -48.00359606],
        [-121.17447923, -139.66369519, -46.30414843],
        [-121.20751331, -139.69172177, -44.6047008],
        [-121.24054764, -139.71974835, -42.90525317],
        [-121.27358196, -139.74777302, -41.20580553],
        [-121.30661629, -139.7757996, -39.5063579],
        [-121.33965061, -139.80382618, -37.80691027],
        [-121.37268493, -139.83185086, -36.10746264],
        [-121.40571926, -139.85987744, -34.40801501],
        [-121.43875358, -139.88790402, -32.70856737],
        [-121.47178791, -139.9159306, -31.00911974],
        [-121.50482223, -139.94395527, -29.30967211],
        [-121.53785656, -139.97198185, -27.61022448],
        [-121.57089088, -140.00000843, -25.91077685],
        [-121.60392521, -140.02803311, -24.21132922],
        [-121.63695953, -140.05605969, -22.51188158],
        [-121.66999386, -140.08408627, -20.81243395],
        [-121.70302818, -140.11211094, -19.11298632],
        [-121.73606227, -140.14013752, -17.41353869],
        [-121.76909659, -140.1681641, -15.71409106],
        [-121.80213092, -140.19619068, -14.01464342],
        [-121.83516524, -140.22421536, -12.31519579],
        [-121.86819957, -140.25224194, -10.61574816],
        [-121.90123389, -140.28026852, -8.91630053],
        [-121.93426822, -140.30829319, -7.21685266],
        [-121.96730254, -140.33631977, -5.51740503],
        [-122.00033686, -140.36434635, -3.81795739],
        [-122.03337119, -140.39237103, -2.11850976],
        [-122.06640551, -140.42039761, -0.41906213],
        [-122.09943984, -140.44842419, 1.28038574],
        [-122.13247416, -140.47645077, 2.97983337],
        [-122.16550849, -140.50447544, 4.67928053],
        [-122.19854281, -140.53250202, 6.37872816],
        [-122.23157714, -140.56052861, 8.07817579],
        [-122.26461122, -140.58855328, 9.77762342],
        [-122.29764555, -140.61657986, 11.47707105],
        [-122.33068011, -140.64460644, 13.17651869],
        [-122.36371444, -140.67263111, 14.87596632],
        [-122.39674876, -140.70065769, 16.57541395],
        [-122.42978309, -140.72868428, 18.27486158],
        [-122.46281741, -140.75671086, 19.97430921],
        [-122.49585173, -140.78473553, 21.67375684],
        [-122.52888558, -140.81276211, 23.37320448],
        [-122.56191991, -140.84078869, 25.07265211],
        [-122.59495423, -140.86881337, 26.77209974],
        [-122.62798856, -140.89683995, 28.47154737],
        [-122.66102288, -140.92486653, 30.170995],
        [-122.69405721, -140.9528912, 31.87044264],
        [-122.72709153, -140.98091778, 33.56989027],
        [-122.76012585, -141.00894436, 35.2693379],
        [-122.79316018, -141.03697094, 36.96878553],
        [-122.8261945, -141.06499562, 38.66823316],
        [-122.85922883, -141.0930222, 40.36768079]
],
      "CsaImage.TimeAfterStart": [16.4, 18.515, 16.5525, 18.6675, 16.7025, 18.8175, 16.855, 18.97, 17.005, 19.12, 17.155, 19.2725, 17.3075, 19.4225, 17.4575, 19.575, 17.61, 19.725, 17.76, 19.875, 17.9125, 20.0275, 18.0625, 20.1775, 18.215, 20.33, 18.365, 16.4, 18.515, 16.5525, 18.6675, 16.7025, 18.8175, 16.855, 18.97, 17.005, 19.12, 17.155, 19.2725, 17.3075, 19.4225, 17.4575, 19.575, 17.61, 19.725, 17.76, 19.875, 17.9125, 20.0275, 18.0625, 20.1775, 18.215, 20.33, 18.365, 16.4, 18.515, 16.5525, 18.6675, 16.7025, 18.8175, 16.855, 18.97, 17.005, 19.12, 17.155, 19.2725, 17.3075, 19.4225, 17.4575, 19.575, 17.61, 19.725, 17.76, 19.875, 17.9125, 20.0275, 18.0625, 20.1775, 18.215, 20.33, 18.365],
      "ImagePositionPatient": [
        [-120.21648416833, -138.85094150841, -95.588133567003],
        [-120.24951837377, -138.87896808922, -93.888685935167],
        [-120.28255269842, -138.90699276269, -92.189238303331],
        [-120.31558702306, -138.9350193435, -90.489790671495],
        [-120.34862134771, -138.96304592431, -88.79034303966],
        [-120.38165567236, -138.99107059777, -87.090895407824],
        [-120.414689997, -139.01909717858, -85.391440146593],
        [-120.44772432165, -139.04712375939, -83.691992514757],
        [-120.48075864629, -139.0751503402, -81.992544882921],
        [-120.51379297094, -139.10317501366, -80.293097251085],
        [-120.54682729559, -139.13120159447, -78.593649619249],
        [-120.57986162023, -139.15922817528, -76.894201987413],
        [-120.61289594488, -139.18725284875, -75.194754355578],
        [-120.6459300311, -139.21527942956, -73.495306723742],
        [-120.67896435575, -139.24330601037, -71.795859091906],
        [-120.7119986804, -139.27133068383, -70.09641146007],
        [-120.74503300504, -139.29935726464, -68.396963828234],
        [-120.77806732969, -139.32738384545, -66.697520011095],
        [-120.81110165433, -139.35541042626, -64.998072379259],
        [-120.84413597898, -139.38343509972, -63.298624747423],
        [-120.87717030363, -139.41146168053, -61.599177115587],
        [-120.91020462827, -139.43948826134, -59.899729483751],
        [-120.94323895292, -139.46751293481, -58.200281851915],
        [-120.97627327756, -139.49553951562, -56.500834220079],
        [-121.00930760221, -139.52356609643, -54.801386588244],
        [-121.04234192686, -139.55159076989, -53.101938956408],
        [-121.0753762515, -139.5796173507, -51.402491324572],
        [-121.10841057615, -139.60764393151, -49.703043692736],
        [-121.14144490079, -139.63567051232, -48.0035960609],
        [-121.17447922544, -139.66369518578, -46.304148429064],
        [-121.20751331167, -139.69172176659, -44.604700797228],
        [-121.24054763631, -139.7197483474, -42.905253165392],
        [-121.27358196096, -139.74777302086, -41.205805533556],
        [-121.30661628561, -139.77579960168, -39.50635790172],
        [-121.33965061025, -139.80382618249, -37.806910269884],
        [-121.3726849349, -139.83185085595, -36.107462638048],
        [-121.40571925954, -139.85987743676, -34.408015006212],
        [-121.43875358419, -139.88790401757, -32.708567374376],
        [-121.47178790884, -139.91593059838, -31.00911974254],
        [-121.50482223348, -139.94395527184, -29.309672110704],
        [-121.53785655813, -139.97198185265, -27.610224478869],
        [-121.57089088277, -140.00000843346, -25.910776847033],
        [-121.60392520742, -140.02803310692, -24.211329215197],
        [-121.63695953207, -140.05605968773, -22.511881583361],
        [-121.66999385671, -140.08408626855, -20.812433951525],
        [-121.70302818136, -140.11211094201, -19.112986319689],
        [-121.73606226759, -140.14013752282, -17.413538687853],
        [-121.76909659223, -140.16816410363, -15.714091056017],
        [-121.80213091688, -140.19619068444, -14.014643424181],
        [-121.83516524152, -140.2242153579, -12.315195792345],
        [-121.86819956617, -140.25224193871, -10.615748160509],
        [-121.90123389082, -140.28026851952, -8.9163005286732],
        [-121.93426821546, -140.30829319298, -7.2168526584187],
        [-121.96730254011, -140.33631977379, -5.5174050265828],
        [-122.00033686475, -140.36434635461, -3.8179573947468],
        [-122.0333711894, -140.39237102807, -2.1185097629109],
        [-122.06640551405, -140.42039760888, -0.419062131075],
        [-122.09943983869, -140.44842418969, 1.2803857391796],
        [-122.13247416334, -140.4764507705, 2.9798333710155],
        [-122.16550848798, -140.50447544396, 4.6792805260143],
        [-122.19854281263, -140.53250202477, 6.3787281578502],
        [-122.23157713728, -140.56052860558, 8.0781757896862],
        [-122.2646112235, -140.58855327904, 9.7776234215221],
        [-122.29764554815, -140.61657985985, 11.477071053358],
        [-122.33068011121, -140.64460644066, 13.176518685194],
        [-122.36371443586, -140.67263111413, 14.87596631703],
        [-122.39674876051, -140.70065769494, 16.575413948866],
        [-122.42978308515, -140.72868427575, 18.274861580702],
        [-122.4628174098, -140.75671085656, 19.974309212538],
        [-122.49585173444, -140.78473553002, 21.673756844374],
        [-122.52888558225, -140.81276211083, 23.37320447621],
        [-122.5619199069, -140.84078869164, 25.072652108046],
        [-122.59495423154, -140.8688133651, 26.772099739881],
        [-122.62798855619, -140.89683994591, 28.471547371717],
        [-122.66102288084, -140.92486652672, 30.170995003553],
        [-122.69405720548, -140.95289120019, 31.870442635389],
        [-122.72709153013, -140.980917781, 33.569890267225],
        [-122.76012585477, -141.00894436181, 35.269337899061],
        [-122.79316017942, -141.03697094262, 36.968785530897],
        [-122.82619450407, -141.06499561608, 38.668233162733],
        [-122.85922882871, -141.09302219689, 40.367680794569]
],
      "InstanceCreationTime": ["211103.902000", "211103.996000", "211103.909000", "211104.043000", "211103.915000", "211104.049000", "211103.921000", "211104.056000", "211103.930000", "211104.062000", "211103.936000", "211104.069000", "211103.942000", "211104.075000", "211103.949000", "211104.081000", "211103.955000", "211104.087000", "211103.962000", "211104.093000", "211103.969000", "211104.100000", "211103.974000", "211104.105000", "211103.980000", "211104.111000", "211103.990000", "211103.905000", "211103.998000", "211103.911000", "211104.045000", "211103.917000", "211104.051000", "211103.923000", "211104.058000", "211103.932000", "211104.065000", "211103.938000", "211104.071000", "211103.945000", "211104.077000", "211103.951000", "211104.083000", "211103.958000", "211104.089000", "211103.965000", "211104.096000", "211103.971000", "211104.101000", "211103.976000", "211104.107000", "211103.982000", "211104.113000", "211103.992000", "211103.907000", "211104.001000", "211103.913000", "211104.047000", "211103.919000", "211104.053000", "211103.928000", "211104.060000", "211103.934000", "211104.067000", "211103.940000", "211104.073000", "211103.947000", "211104.079000", "211103.953000", "211104.085000", "211103.960000", "211104.091000", "211103.967000", "211104.097000", "211103.973000", "211104.104000", "211103.978000", "211104.109000", "211103.984000", "211104.116000", "211103.994000"],
      "InstanceNumber": [1, 2, 3, 4, 5, 6, 7, 8, 9, 10, 11, 12, 13, 14, 15, 16, 17, 18, 19, 20, 21, 22, 23, 24, 25, 26, 27, 28, 29, 30, 31, 32, 33, 34, 35, 36, 37, 38, 39, 40, 41, 42, 43, 44, 45, 46, 47, 48, 49, 50, 51, 52, 53, 54, 55, 56, 57, 58, 59, 60, 61, 62, 63, 64, 65, 66, 67, 68, 69, 70, 71, 72, 73, 74, 75, 76, 77, 78, 79, 80, 81],
      "LargestImagePixelValue": [29192, 16942, 17850, 16753, 24584, 28413, 23703, 31457, 39007, 42442, 41543, 44475, 34130, 29917, 26656, 39090, 60008, 58799, 39272, 32033, 30754, 35736, 35418, 40487, 52780, 62952, 65535, 65535, 65535, 47130, 65535, 65535, 65535, 45635, 40389, 45687, 42142, 45124, 46590, 46117, 49390, 50790, 52209, 50675, 37554, 39854, 44633, 42928, 34902, 38235, 42977, 42529, 37675, 32462, 35521, 32069, 34298, 36375, 38095, 31667, 37217, 39688, 34874, 34097, 40157, 34716, 34616, 34260, 30597, 28791, 28316, 31041, 44617, 34314, 33593, 33464, 31980, 32834, 14566, 5951, 6215],
      "SliceLocation": [-90.931969805633, -89.231970099364, -87.531970422224, -85.831970713639, -84.131971005054, -82.431971327913, -80.731963992411, -79.031964283826, -77.331964575241, -75.6319648981, -73.931965189515, -72.23196548093, -70.531965803789, -68.831966099837, -67.131966391252, -65.431966714112, -63.731967005527, -62.0319711104, -60.331971401815, -58.631971724674, -56.931972016089, -55.231972307504, -53.531972630363, -51.831972921778, -50.131973213193, -48.431973536053, -46.731973827468, -45.031974118883, -43.331974410298, -41.631974733157, -39.931975029205, -38.23197532062, -36.531975643479, -34.831975934894, -33.131976226309, -31.431976549168, -29.731976840583, -28.031977131998, -26.331977423413, -24.631977746273, -22.931978037688, -21.231978329102, -19.531978651962, -17.831978943377, -16.131979234792, -14.431979557651, -12.731979853699, -11.031980145114, -9.3319804365289, -7.6319807593882, -5.9319810508032, -4.2319813422181, -2.5319814267363, -0.8319817181512, 0.86801799043379, 2.5680176675745, 4.2680173761595, 5.9680173230857, 7.6680170316707, 9.3680162321291, 11.068015940714, 12.768015649299, 14.468015321807, 16.168015030392, 17.86801474361, 19.568014420751, 21.268014129336, 22.968013837921, 24.668013546506, 26.368013223646, 28.068012922966, 29.768012631551, 31.468012308691, 33.168012017276, 34.868011725861, 36.568011403002, 38.268011111587, 39.968010820172, 41.668010528757, 43.368010205898, 45.068009914483],
