{
  "AcquisitionMatrixPE": 82,
  "AcquisitionNumber": 1,
  "AcquisitionTime": "13:54:46.970000",
  "BandwidthPerPixelPhaseEncode": 24.888,
  "BaseResolution": 82,
  "BodyPartExamined": "BRAIN",
  "ConsistencyInfo": "N4_VE11E_LATEST_20181129",
  "ConversionSoftware": "dcm2niix",
  "ConversionSoftwareVersion": "v1.0.20201102",
  "DerivedVendorReportedEchoSpacing": 0.00049,
  "DeviceSerialNumber": "66112",
  "DwellTime": 2e-06,
  "EchoTime": 0.0272,
  "EchoTrainLength": 82,
  "EffectiveEchoSpacing": 0.00049,
  "FlipAngle": 44,
  "ImageComments": "Unaliased MB8/PE3",
  "ImageOrientationPatientDICOM": [0.998824, 0.0160672, 0.0457425, -0.0190041, 0.997736, 0.0645119],
  "ImageType": [
    "ORIGINAL",
    "PRIMARY",
    "M",
    "MB",
    "ND",
    "NORM",
    "MOSAIC"
],
  "ImagingFrequency": 123.259,
  "InPlanePhaseEncodingDirectionDICOM": "COL",
  "InstitutionAddress": "Maynard 3,Hanover,NH,US,03755",
  "InstitutionName": "Dartmouth College - PBS",
  "InstitutionalDepartmentName": "Department",
  "MRAcquisitionType": "2D",
  "MagneticFieldStrength": 3,
  "Manufacturer": "Siemens",
  "ManufacturersModelName": "Prisma",
  "Modality": "MR",
  "MultibandAccelerationFactor": 8,
  "PartialFourier": 1,
  "PatientPosition": "HFS",
  "PercentPhaseFOV": 100,
  "PercentSampling": 100,
  "PhaseEncodingDirection": "j-",
  "PhaseEncodingSteps": 82,
  "PhaseResolution": 1,
  "PixelBandwidth": 3050,
  "ProcedureStepDescription": "Wager_Wager^1076_spacetop",
  "ProtocolName": "func_run-03_task-social_acq-ap-mb8",
  "PulseSequenceDetails": "%CustomerSeq%\\cmrr_mbep2d_bold",
  "ReceiveCoilActiveElements": "HEA;HEP",
  "ReceiveCoilName": "Head_32",
  "ReconMatrixPE": 82,
  "RepetitionTime": 0.46,
  "SAR": 0.0843498,
  "ScanOptions": "FS",
  "ScanningSequence": "EP",
  "SequenceName": "epfid2d1_82",
  "SequenceVariant": "SK\\SS",
  "SeriesDescription": "func_run-03_task-social_acq-ap-mb8",
  "SeriesNumber": 16,
  "ShimSetting": [4251, -7792, -7249, 236, -79, -213, -121, 53],
  "SliceThickness": 2.7,
  "SliceTiming": [0, 0.2525, 0.065, 0.315, 0.1275, 0.3775, 0.19, 0, 0.2525, 0.065, 0.315, 0.1275, 0.3775, 0.19, 0, 0.2525, 0.065, 0.315, 0.1275, 0.3775, 0.19, 0, 0.2525, 0.065, 0.315, 0.1275, 0.3775, 0.19, 0, 0.2525, 0.065, 0.315, 0.1275, 0.3775, 0.19, 0, 0.2525, 0.065, 0.315, 0.1275, 0.3775, 0.19, 0, 0.2525, 0.065, 0.315, 0.1275, 0.3775, 0.19, 0, 0.2525, 0.065, 0.315, 0.1275, 0.3775, 0.19],
  "SoftwareVersions": "syngo MR E11",
  "SpacingBetweenSlices": 2.7,
  "StationName": "AWP66112",
  "TaskName": "social",
  "TotalReadoutTime": 0.03969,
  "TxRefAmp": 234.66,
  "WipMemBlock": "8db45ae8-4027-47a2-9410-860c4b6e453a||Sequence: R016 ve11e/master r/434b28f1; Aug  7 2019 18:53:46 by eja",
  "dcmmeta_affine": [
    [-2.679771900177002, -0.05098650977015495, 0.12042661011219025, 111.4423599243164],
    [-0.04310700297355652, 2.6768527030944824, 0.1763242781162262, -99.48847961425781],
    [0.12272387742996216, -0.17308060824871063, 2.6915435791015625, -81.3580093383789],
    [0.0, 0.0, 0.0, 1.0]
],
  "dcmmeta_reorient_transform": [
    [0.0, -1.0, 0.0, 81.0],
    [1.0, 0.0, 0.0, 0.0],
    [0.0, 0.0, 1.0, 0.0],
    [0.0, 0.0, 0.0, 1.0]
],
  "dcmmeta_shape": [82, 82, 56, 872],
  "dcmmeta_slice_dim": 2,
  "dcmmeta_version": 0.6,
  "global": {
    "const": {
      "AccessionNumber": "A004352",
      "AcquisitionMatrix": [82, 0, 0, 82],
      "AngioFlag": "N",
      "BitsAllocated": 16,
      "BitsStored": 16,
      "BodyPartExamined": "BRAIN",
      "Columns": 656,
      "EchoNumbers": 1,
      "EchoTime": 27.2,
      "EchoTrainLength": 82,
      "FlipAngle": 44.0,
      "HighBit": 15,
      "ImageOrientationPatient": [0.99882404209528, 0.01606715517206, 0.04574253444134, -0.0190040625697, 0.9977359698956, 0.06451185923796],
      "ImagePositionPatient": [-861.77385193101, -897.96501054201, -180.27342624613],
      "ImageType": [
        "ORIGINAL",
        "PRIMARY",
        "M",
        "MB",
        "ND",
        "NORM",
        "MOSAIC"
],
      "ImagedNucleus": "1H",
      "ImagingFrequency": 123.259128,
      "InPlanePhaseEncodingDirection": "COL",
      "MRAcquisitionType": "2D",
      "MagneticFieldStrength": 3.0,
      "Manufacturer": "SIEMENS",
      "ManufacturerModelName": "Prisma",
      "Modality": "MR",
      "NumberOfAverages": 1.0,
      "NumberOfPhaseEncodingSteps": 82,
      "PercentPhaseFieldOfView": 100.0,
      "PercentSampling": 100.0,
      "PerformedProcedureStepStartTime": "130110.029000",
      "PhotometricInterpretation": "MONOCHROME2",
      "PixelBandwidth": 3050.0,
      "PixelRepresentation": 0,
      "PixelSpacing": [2.6829268932343, 2.6829268932343],
      "ProtocolName": "func_run-03_task-social_acq-ap-mb8",
      "RepetitionTime": 460.0,
      "Rows": 656,
      "SAR": 0.08434983223139,
      "SamplesPerPixel": 1,
      "ScanOptions": "FS",
      "ScanningSequence": "EP",
      "SequenceName": "epfid2d1_82",
      "SequenceVariant": [
        "SK",
        "SS"
],
      "SeriesDescription": "func_run-03_task-social_acq-ap-mb8",
      "SeriesNumber": 16,
      "SeriesTime": "135511.717000",
      "SliceLocation": -82.629722205278,
      "SliceThickness": 2.7000000476837,
      "SmallestImagePixelValue": 0,
      "SoftwareVersions": "syngo MR E11",
      "SpacingBetweenSlices": 2.6999999363268,
      "SpecificCharacterSet": "ISO_IR 100",
      "StudyID": "4",
      "StudyTime": "130109.962000",
      "TransmitCoilName": "Body",
      "VariableFlipAngleFlag": "N",
      "WindowCenterWidthExplanation": "Algo1"
    },
    "slices": {}
  },
  "time": {
    "samples": {
      "AcquisitionNumber": [1, 2, 3, 4, 5, 6, 7, 8, 9, 10, 11, 12, 13, 14, 15, 16, 17, 18, 19, 20, 21, 22, 23, 24, 25, 26, 27, 28, 29, 30, 31, 32, 33, 34, 35, 36, 37, 38, 39, 40, 41, 42, 43, 44, 45, 46, 47, 48, 49, 50, 51, 52, 53, 54, 55, 56, 57, 58, 59, 60, 61, 62, 63, 64, 65, 66, 67, 68, 69, 70, 71, 72, 73, 74, 75, 76, 77, 78, 79, 80, 81, 82, 83, 84, 85, 86, 87, 88, 89, 90, 91, 92, 93, 94, 95, 96, 97, 98, 99, 100, 101, 102, 103, 104, 105, 106, 107, 108, 109, 110, 111, 112, 113, 114, 115, 116, 117, 118, 119, 120, 121, 122, 123, 124, 125, 126, 127, 128, 129, 130, 131, 132, 133, 134, 135, 136, 137, 138, 139, 140, 141, 142, 143, 144, 145, 146, 147, 148, 149, 150, 151, 152, 153, 154, 155, 156, 157, 158, 159, 160, 161, 162, 163, 164, 165, 166, 167, 168, 169, 170, 171, 172, 173, 174, 175, 176, 177, 178, 179, 180, 181, 182, 183, 184, 185, 186, 187, 188, 189, 190, 191, 192, 193, 194, 195, 196, 197, 198, 199, 200, 201, 202, 203, 204, 205, 206, 207, 208, 209, 210, 211, 212, 213, 214, 215, 216, 217, 218, 219, 220, 221, 222, 223, 224, 225, 226, 227, 228, 229, 230, 231, 232, 233, 234, 235, 236, 237, 238, 239, 240, 241, 242, 243, 244, 245, 246, 247, 248, 249, 250, 251, 252, 253, 254, 255, 256, 257, 258, 259, 260, 261, 262, 263, 264, 265, 266, 267, 268, 269, 270, 271, 272, 273, 274, 275, 276, 277, 278, 279, 280, 281, 282, 283, 284, 285, 286, 287, 288, 289, 290, 291, 292, 293, 294, 295, 296, 297, 298, 299, 300, 301, 302, 303, 304, 305, 306, 307, 308, 309, 310, 311, 312, 313, 314, 315, 316, 317, 318, 319, 320, 321, 322, 323, 324, 325, 326, 327, 328, 329, 330, 331, 332, 333, 334, 335, 336, 337, 338, 339, 340, 341, 342, 343, 344, 345, 346, 347, 348, 349, 350, 351, 352, 353, 354, 355, 356, 357, 358, 359, 360, 361, 362, 363, 364, 365, 366, 367, 368, 369, 370, 371, 372, 373, 374, 375, 376, 377, 378, 379, 380, 381, 382, 383, 384, 385, 386, 387, 388, 389, 390, 391, 392, 393, 394, 395, 396, 397, 398, 399, 400, 401, 402, 403, 404, 405, 406, 407, 408, 409, 410, 411, 412, 413, 414, 415, 416, 417, 418, 419, 420, 421, 422, 423, 424, 425, 426, 427, 428, 429, 430, 431, 432, 433, 434, 435, 436, 437, 438, 439, 440, 441, 442, 443, 444, 445, 446, 447, 448, 449, 450, 451, 452, 453, 454, 455, 456, 457, 458, 459, 460, 461, 462, 463, 464, 465, 466, 467, 468, 469, 470, 471, 472, 473, 474, 475, 476, 477, 478, 479, 480, 481, 482, 483, 484, 485, 486, 487, 488, 489, 490, 491, 492, 493, 494, 495, 496, 497, 498, 499, 500, 501, 502, 503, 504, 505, 506, 507, 508, 509, 510, 511, 512, 513, 514, 515, 516, 517, 518, 519, 520, 521, 522, 523, 524, 525, 526, 527, 528, 529, 530, 531, 532, 533, 534, 535, 536, 537, 538, 539, 540, 541, 542, 543, 544, 545, 546, 547, 548, 549, 550, 551, 552, 553, 554, 555, 556, 557, 558, 559, 560, 561, 562, 563, 564, 565, 566, 567, 568, 569, 570, 571, 572, 573, 574, 575, 576, 577, 578, 579, 580, 581, 582, 583, 584, 585, 586, 587, 588, 589, 590, 591, 592, 593, 594, 595, 596, 597, 598, 599, 600, 601, 602, 603, 604, 605, 606, 607, 608, 609, 610, 611, 612, 613, 614, 615, 616, 617, 618, 619, 620, 621, 622, 623, 624, 625, 626, 627, 628, 629, 630, 631, 632, 633, 634, 635, 636, 637, 638, 639, 640, 641, 642, 643, 644, 645, 646, 647, 648, 649, 650, 651, 652, 653, 654, 655, 656, 657, 658, 659, 660, 661, 662, 663, 664, 665, 666, 667, 668, 669, 670, 671, 672, 673, 674, 675, 676, 677, 678, 679, 680, 681, 682, 683, 684, 685, 686, 687, 688, 689, 690, 691, 692, 693, 694, 695, 696, 697, 698, 699, 700, 701, 702, 703, 704, 705, 706, 707, 708, 709, 710, 711, 712, 713, 714, 715, 716, 717, 718, 719, 720, 721, 722, 723, 724, 725, 726, 727, 728, 729, 730, 731, 732, 733, 734, 735, 736, 737, 738, 739, 740, 741, 742, 743, 744, 745, 746, 747, 748, 749, 750, 751, 752, 753, 754, 755, 756, 757, 758, 759, 760, 761, 762, 763, 764, 765, 766, 767, 768, 769, 770, 771, 772, 773, 774, 775, 776, 777, 778, 779, 780, 781, 782, 783, 784, 785, 786, 787, 788, 789, 790, 791, 792, 793, 794, 795, 796, 797, 798, 799, 800, 801, 802, 803, 804, 805, 806, 807, 808, 809, 810, 811, 812, 813, 814, 815, 816, 817, 818, 819, 820, 821, 822, 823, 824, 825, 826, 827, 828, 829, 830, 831, 832, 833, 834, 835, 836, 837, 838, 839, 840, 841, 842, 843, 844, 845, 846, 847, 848, 849, 850, 851, 852, 853, 854, 855, 856, 857, 858, 859, 860, 861, 862, 863, 864, 865, 866, 867, 868, 869, 870, 871, 872],
      "AcquisitionTime": ["135446.970000", "135447.430000", "135447.890000", "135448.350000", "135448.810000", "135449.270000", "135449.730000", "135450.190000", "135450.650000", "135451.110000", "135451.570000", "135452.030000", "135452.490000", "135452.950000", "135453.410000", "135453.870000", "135454.330000", "135454.790000", "135455.250000", "135455.710000", "135456.170000", "135456.630000", "135457.090000", "135457.550000", "135458.010000", "135458.470000", "135458.930000", "135459.390000", "135459.850000", "135500.310000", "135500.770000", "135501.230000", "135501.690000", "135502.150000", "135502.610000", "135503.070000", "135503.530000", "135503.990000", "135504.450000", "135504.910000", "135505.370000", "135505.830000", "135506.290000", "135506.750000", "135507.210000", "135507.670000", "135508.130000", "135508.590000", "135509.050000", "135509.510000", "135509.970000", "135510.430000", "135510.890000", "135511.350000", "135511.810000", "135512.270000", "135512.730000", "135513.190000", "135513.650000", "135514.110000", "135514.570000", "135515.030000", "135515.490000", "135515.950000", "135516.410000", "135516.870000", "135517.330000", "135517.790000", "135518.250000", "135518.710000", "135519.170000", "135519.630000", "135520.090000", "135520.550000", "135521.010000", "135521.470000", "135521.930000", "135522.390000", "135522.850000", "135523.310000", "135523.770000", "135524.230000", "135524.690000", "135525.150000", "135525.610000", "135526.070000", "135526.530000", "135526.990000", "135527.450000", "135527.910000", "135528.370000", "135528.830000", "135529.290000", "135529.750000", "135530.210000", "135530.670000", "135531.130000", "135531.590000", "135532.050000", "135532.510000", "135532.970000", "135533.430000", "135533.890000", "135534.350000", "135534.810000", "135535.270000", "135535.730000", "135536.190000", "135536.650000", "135537.110000", "135537.570000", "135538.030000", "135538.490000", "135538.950000", "135539.410000", "135539.870000", "135540.330000", "135540.790000", "135541.250000", "135541.710000", "135542.170000", "135542.630000", "135543.090000", "135543.550000", "135544.010000", "135544.470000", "135544.930000", "135545.390000", "135545.850000", "135546.310000", "135546.770000", "135547.230000", "135547.690000", "135548.150000", "135548.610000", "135549.070000", "135549.530000", "135549.990000", "135550.450000", "135550.910000", "135551.370000", "135551.830000", "135552.290000", "135552.750000", "135553.210000", "135553.670000", "135554.130000", "135554.590000", "135555.050000", "135555.510000", "135555.970000", "135556.430000", "135556.890000", "135557.350000", "135557.810000", "135558.270000", "135558.730000", "135559.190000", "135559.650000", "135600.110000", "135600.570000", "135601.030000", "135601.490000", "135601.950000", "135602.410000", "135602.870000", "135603.330000", "135603.790000", "135604.250000", "135604.710000", "135605.170000", "135605.630000", "135606.090000", "135606.550000", "135607.010000", "135607.470000", "135607.930000", "135608.390000", "135608.850000", "135609.310000", "135609.770000", "135610.230000", "135610.690000", "135611.150000", "135611.610000", "135612.070000", "135612.530000", "135612.990000", "135613.450000", "135613.910000", "135614.370000", "135614.830000", "135615.290000", "135615.750000", "135616.210000", "135616.670000", "135617.130000", "135617.590000", "135618.050000", "135618.510000", "135618.970000", "135619.430000", "135619.890000", "135620.350000", "135620.810000", "135621.270000", "135621.730000", "135622.190000", "135622.650000", "135623.110000", "135623.570000", "135624.030000", "135624.490000", "135624.950000", "135625.410000", "135625.870000", "135626.330000", "135626.790000", "135627.250000", "135627.710000", "135628.170000", "135628.630000", "135629.090000", "135629.550000", "135630.010000", "135630.470000", "135630.930000", "135631.390000", "135631.850000", "135632.310000", "135632.770000", "135633.230000", "135633.690000", "135634.150000", "135634.610000", "135635.070000", "135635.530000", "135635.990000", "135636.450000", "135636.910000", "135637.370000", "135637.830000", "135638.290000", "135638.750000", "135639.210000", "135639.670000", "135640.130000", "135640.590000", "135641.050000", "135641.510000", "135641.970000", "135642.430000", "135642.890000", "135643.350000", "135643.810000", "135644.270000", "135644.730000", "135645.190000", "135645.650000", "135646.110000", "135646.570000", "135647.030000", "135647.490000", "135647.950000", "135648.410000", "135648.870000", "135649.330000", "135649.790000", "135650.250000", "135650.710000", "135651.170000", "135651.630000", "135652.090000", "135652.550000", "135653.010000", "135653.470000", "135653.930000", "135654.390000", "135654.850000", "135655.310000", "135655.770000", "135656.230000", "135656.690000", "135657.150000", "135657.610000", "135658.070000", "135658.530000", "135658.990000", "135659.450000", "135659.910000", "135700.370000", "135700.830000", "135701.290000", "135701.750000", "135702.210000", "135702.670000", "135703.130000", "135703.590000", "135704.050000", "135704.510000", "135704.970000", "135705.430000", "135705.890000", "135706.350000", "135706.810000", "135707.270000", "135707.730000", "135708.190000", "135708.650000", "135709.110000", "135709.570000", "135710.030000", "135710.490000", "135710.950000", "135711.410000", "135711.870000", "135712.330000", "135712.790000", "135713.250000", "135713.710000", "135714.170000", "135714.630000", "135715.090000", "135715.550000", "135716.010000", "135716.470000", "135716.930000", "135717.390000", "135717.850000", "135718.310000", "135718.770000", "135719.230000", "135719.690000", "135720.150000", "135720.610000", "135721.070000", "135721.530000", "135721.990000", "135722.450000", "135722.910000", "135723.370000", "135723.830000", "135724.290000", "135724.750000", "135725.210000", "135725.670000", "135726.130000", "135726.590000", "135727.050000", "135727.510000", "135727.970000", "135728.430000", "135728.890000", "135729.350000", "135729.810000", "135730.270000", "135730.730000", "135731.190000", "135731.650000", "135732.110000", "135732.570000", "135733.030000", "135733.490000", "135733.950000", "135734.410000", "135734.870000", "135735.330000", "135735.790000", "135736.250000", "135736.710000", "135737.170000", "135737.630000", "135738.090000", "135738.550000", "135739.010000", "135739.470000", "135739.930000", "135740.390000", "135740.850000", "135741.310000", "135741.770000", "135742.230000", "135742.690000", "135743.150000", "135743.610000", "135744.070000", "135744.530000", "135744.990000", "135745.450000", "135745.910000", "135746.370000", "135746.830000", "135747.290000", "135747.750000", "135748.210000", "135748.670000", "135749.130000", "135749.590000", "135750.050000", "135750.510000", "135750.970000", "135751.430000", "135751.890000", "135752.350000", "135752.810000", "135753.270000", "135753.730000", "135754.190000", "135754.650000", "135755.110000", "135755.570000", "135756.030000", "135756.490000", "135756.950000", "135757.410000", "135757.870000", "135758.330000", "135758.790000", "135759.250000", "135759.710000", "135800.170000", "135800.630000", "135801.090000", "135801.550000", "135802.010000", "135802.470000", "135802.930000", "135803.390000", "135803.850000", "135804.310000", "135804.770000", "135805.230000", "135805.690000", "135806.150000", "135806.610000", "135807.070000", "135807.530000", "135807.990000", "135808.450000", "135808.910000", "135809.370000", "135809.830000", "135810.290000", "135810.750000", "135811.210000", "135811.670000", "135812.130000", "135812.590000", "135813.050000", "135813.510000", "135813.970000", "135814.430000", "135814.890000", "135815.350000", "135815.810000", "135816.270000", "135816.730000", "135817.190000", "135817.650000", "135818.110000", "135818.570000", "135819.030000", "135819.490000", "135819.950000", "135820.410000", "135820.870000", "135821.330000", "135821.790000", "135822.250000", "135822.710000", "135823.170000", "135823.630000", "135824.090000", "135824.550000", "135825.010000", "135825.470000", "135825.930000", "135826.390000", "135826.850000", "135827.310000", "135827.770000", "135828.230000", "135828.690000", "135829.150000", "135829.610000", "135830.070000", "135830.530000", "135830.990000", "135831.450000", "135831.910000", "135832.370000", "135832.830000", "135833.290000", "135833.750000", "135834.210000", "135834.670000", "135835.130000", "135835.590000", "135836.050000", "135836.510000", "135836.970000", "135837.430000", "135837.890000", "135838.350000", "135838.810000", "135839.270000", "135839.730000", "135840.190000", "135840.650000", "135841.110000", "135841.570000", "135842.030000", "135842.490000", "135842.950000", "135843.410000", "135843.870000", "135844.330000", "135844.790000", "135845.250000", "135845.710000", "135846.170000", "135846.630000", "135847.090000", "135847.550000", "135848.010000", "135848.470000", "135848.930000", "135849.390000", "135849.850000", "135850.310000", "135850.770000", "135851.230000", "135851.690000", "135852.150000", "135852.610000", "135853.070000", "135853.530000", "135853.990000", "135854.450000", "135854.910000", "135855.370000", "135855.830000", "135856.290000", "135856.750000", "135857.210000", "135857.670000", "135858.130000", "135858.590000", "135859.050000", "135859.510000", "135859.970000", "135900.430000", "135900.890000", "135901.350000", "135901.810000", "135902.270000", "135902.730000", "135903.190000", "135903.650000", "135904.110000", "135904.570000", "135905.030000", "135905.490000", "135905.950000", "135906.410000", "135906.870000", "135907.330000", "135907.790000", "135908.250000", "135908.710000", "135909.170000", "135909.630000", "135910.090000", "135910.550000", "135911.010000", "135911.470000", "135911.930000", "135912.390000", "135912.850000", "135913.310000", "135913.770000", "135914.230000", "135914.690000", "135915.150000", "135915.610000", "135916.070000", "135916.530000", "135916.990000", "135917.450000", "135917.910000", "135918.370000", "135918.830000", "135919.290000", "135919.750000", "135920.210000", "135920.670000", "135921.130000", "135921.590000", "135922.050000", "135922.510000", "135922.970000", "135923.430000", "135923.890000", "135924.350000", "135924.810000", "135925.270000", "135925.730000", "135926.190000", "135926.650000", "135927.110000", "135927.570000", "135928.030000", "135928.490000", "135928.950000", "135929.410000", "135929.870000", "135930.330000", "135930.790000", "135931.250000", "135931.710000", "135932.170000", "135932.630000", "135933.090000", "135933.550000", "135934.010000", "135934.470000", "135934.930000", "135935.390000", "135935.850000", "135936.310000", "135936.770000", "135937.230000", "135937.690000", "135938.150000", "135938.610000", "135939.070000", "135939.530000", "135939.990000", "135940.450000", "135940.910000", "135941.370000", "135941.830000", "135942.290000", "135942.750000", "135943.210000", "135943.670000", "135944.130000", "135944.590000", "135945.050000", "135945.510000", "135945.970000", "135946.430000", "135946.890000", "135947.350000", "135947.810000", "135948.270000", "135948.730000", "135949.190000", "135949.650000", "135950.110000", "135950.570000", "135951.030000", "135951.490000", "135951.950000", "135952.410000", "135952.870000", "135953.330000", "135953.790000", "135954.250000", "135954.710000", "135955.170000", "135955.630000", "135956.090000", "135956.550000", "135957.010000", "135957.470000", "135957.930000", "135958.390000", "135958.850000", "135959.310000", "135959.770000", "140000.230000", "140000.690000", "140001.150000", "140001.610000", "140002.070000", "140002.530000", "140002.990000", "140003.450000", "140003.910000", "140004.370000", "140004.830000", "140005.290000", "140005.750000", "140006.210000", "140006.670000", "140007.130000", "140007.590000", "140008.050000", "140008.510000", "140008.970000", "140009.430000", "140009.890000", "140010.350000", "140010.810000", "140011.270000", "140011.730000", "140012.190000", "140012.650000", "140013.110000", "140013.570000", "140014.030000", "140014.490000", "140014.950000", "140015.410000", "140015.870000", "140016.330000", "140016.790000", "140017.250000", "140017.710000", "140018.170000", "140018.630000", "140019.090000", "140019.550000", "140020.010000", "140020.470000", "140020.930000", "140021.390000", "140021.850000", "140022.310000", "140022.770000", "140023.230000", "140023.690000", "140024.150000", "140024.610000", "140025.070000", "140025.530000", "140025.990000", "140026.450000", "140026.910000", "140027.370000", "140027.830000", "140028.290000", "140028.750000", "140029.210000", "140029.670000", "140030.130000", "140030.590000", "140031.050000", "140031.510000", "140031.970000", "140032.430000", "140032.890000", "140033.350000", "140033.810000", "140034.270000", "140034.730000", "140035.190000", "140035.650000", "140036.110000", "140036.570000", "140037.030000", "140037.490000", "140037.950000", "140038.410000", "140038.870000", "140039.330000", "140039.790000", "140040.250000", "140040.710000", "140041.170000", "140041.630000", "140042.090000", "140042.550000", "140043.010000", "140043.470000", "140043.930000", "140044.390000", "140044.850000", "140045.310000", "140045.770000", "140046.230000", "140046.690000", "140047.150000", "140047.610000", "140048.070000", "140048.530000", "140048.990000", "140049.450000", "140049.910000", "140050.370000", "140050.830000", "140051.290000", "140051.750000", "140052.210000", "140052.670000", "140053.130000", "140053.590000", "140054.050000", "140054.510000", "140054.970000", "140055.430000", "140055.890000", "140056.350000", "140056.810000", "140057.270000", "140057.730000", "140058.190000", "140058.650000", "140059.110000", "140059.570000", "140100.030000", "140100.490000", "140100.950000", "140101.410000", "140101.870000", "140102.330000", "140102.790000", "140103.250000", "140103.710000", "140104.170000", "140104.630000", "140105.090000", "140105.550000", "140106.010000", "140106.470000", "140106.930000", "140107.390000", "140107.850000", "140108.310000", "140108.770000", "140109.230000", "140109.690000", "140110.150000", "140110.610000", "140111.070000", "140111.530000", "140111.990000", "140112.450000", "140112.910000", "140113.370000", "140113.830000", "140114.290000", "140114.750000", "140115.210000", "140115.670000", "140116.130000", "140116.590000", "140117.050000", "140117.510000", "140117.970000", "140118.430000", "140118.890000", "140119.350000", "140119.810000", "140120.270000", "140120.730000", "140121.190000", "140121.650000", "140122.110000", "140122.570000", "140123.030000", "140123.490000", "140123.950000", "140124.410000", "140124.870000", "140125.330000", "140125.790000", "140126.250000", "140126.710000", "140127.170000", "140127.630000"],
