{
  "AcquisitionMatrixPE": 82,
  "AcquisitionNumber": 1,
  "AcquisitionTime": "21:12:1.092500",
  "BandwidthPerPixelPhaseEncode": 24.888,
  "BaseResolution": 82,
  "BodyPartExamined": "BRAIN",
  "ConsistencyInfo": "N4_VE11E_LATEST_20181129",
  "ConversionSoftware": "dcm2niix",
  "ConversionSoftwareVersion": "v1.0.20201102",
  "DerivedVendorReportedEchoSpacing": 0.00049,
  "DeviceSerialNumber": "66112",
  "DwellTime": 2e-06,
  "EchoTime": 0.0272,
  "EchoTrainLength": 82,
  "EffectiveEchoSpacing": 0.00049,
  "FlipAngle": 44,
  "ImageComments": "Unaliased MB8/PE3",
  "ImageOrientationPatientDICOM": [0.995346, -0.0729386, 0.0629848, 0.0696013, 0.996131, 0.053649],
  "ImageType": [
    "ORIGINAL",
    "PRIMARY",
    "M",
    "MB",
    "ND",
    "NORM",
    "MOSAIC"
],
  "ImagingFrequency": 123.252,
  "InPlanePhaseEncodingDirectionDICOM": "COL",
  "InstitutionAddress": "Maynard 3,Hanover,NH,US,03755",
  "InstitutionName": "Dartmouth College - PBS",
  "InstitutionalDepartmentName": "Department",
  "MRAcquisitionType": "2D",
  "MagneticFieldStrength": 3,
  "Manufacturer": "Siemens",
  "ManufacturersModelName": "Prisma",
  "Modality": "MR",
  "MultibandAccelerationFactor": 8,
  "PartialFourier": 1,
  "PatientPosition": "HFS",
  "PercentPhaseFOV": 100,
  "PercentSampling": 100,
  "PhaseEncodingDirection": "j-",
  "PhaseEncodingSteps": 82,
  "PhaseResolution": 1,
  "PixelBandwidth": 3050,
  "ProcedureStepDescription": "Wager_Wager^1076_spacetop",
  "ProtocolName": "func_run-01_task-social_acq-ap-mb8",
  "PulseSequenceDetails": "%CustomerSeq%\\cmrr_mbep2d_bold",
  "ReceiveCoilActiveElements": "HEP",
  "ReceiveCoilName": "Head_32",
  "ReconMatrixPE": 82,
  "RepetitionTime": 0.46,
  "SAR": 0.0979908,
  "ScanOptions": "FS",
  "ScanningSequence": "EP",
  "SequenceName": "epfid2d1_82",
  "SequenceVariant": "SK\\SS",
  "SeriesDescription": "func_run-01_task-social_acq-ap-mb8",
  "SeriesNumber": 12,
  "ShimSetting": [4160, -7880, -7064, 967, -72, -190, 134, 57],
  "SliceThickness": 2.7,
  "SliceTiming": [0, 0.25, 0.0625, 0.315, 0.125, 0.3775, 0.1875, 0, 0.25, 0.0625, 0.315, 0.125, 0.3775, 0.1875, 0, 0.25, 0.0625, 0.315, 0.125, 0.3775, 0.1875, 0, 0.25, 0.0625, 0.315, 0.125, 0.3775, 0.1875, 0, 0.25, 0.0625, 0.315, 0.125, 0.3775, 0.1875, 0, 0.25, 0.0625, 0.315, 0.125, 0.3775, 0.1875, 0, 0.25, 0.0625, 0.315, 0.125, 0.3775, 0.1875, 0, 0.25, 0.0625, 0.315, 0.125, 0.3775, 0.1875],
  "SoftwareVersions": "syngo MR E11",
  "SpacingBetweenSlices": 2.7,
  "StationName": "AWP66112",
  "TaskName": "social",
  "TotalReadoutTime": 0.03969,
  "TxRefAmp": 232.014,
  "WipMemBlock": "1f7b3dbb-accb-4967-81da-727f0c008407||Sequence: R016 ve11e/master r/434b28f1; Aug  7 2019 18:53:46 by eja",
  "dcmmeta_affine": [
    [-2.6704394817352295, 0.18673528730869293, 0.17996643483638763, 98.57020568847656],
    [0.19568902254104614, 2.6725473403930664, 0.132341668009758, -112.8686752319336],
    [0.16898368299007416, -0.14393624663352966, 2.6907429695129395, -48.36130142211914],
    [0.0, 0.0, 0.0, 1.0]
],
  "dcmmeta_reorient_transform": [
    [0.0, -1.0, 0.0, 81.0],
    [1.0, 0.0, 0.0, 0.0],
    [0.0, 0.0, 1.0, 0.0],
    [0.0, 0.0, 0.0, 1.0]
],
  "dcmmeta_shape": [82, 82, 56, 872],
  "dcmmeta_slice_dim": 2,
  "dcmmeta_version": 0.6,
  "global": {
    "const": {
      "AccessionNumber": "A004059",
      "AcquisitionMatrix": [82, 0, 0, 82],
      "AngioFlag": "N",
      "BitsAllocated": 16,
      "BitsStored": 16,
      "BodyPartExamined": "BRAIN",
      "Columns": 656,
      "EchoNumbers": 1,
      "EchoTime": 27.2,
      "EchoTrainLength": 82,
      "FlipAngle": 44.0,
      "HighBit": 15,
      "ImageOrientationPatient": [0.99534560187138, -0.0729386340043, 0.06298482757675, 0.06960133333994, 0.99613123786307, 0.05364896411566],
      "ImagePositionPatient": [-933.70492602409, -814.46597710605, -149.8281611945],
      "ImageType": [
        "ORIGINAL",
        "PRIMARY",
        "M",
        "MB",
        "ND",
        "NORM",
        "MOSAIC"
],
      "ImagedNucleus": "1H",
      "ImagingFrequency": 123.25215,
      "InPlanePhaseEncodingDirection": "COL",
      "MRAcquisitionType": "2D",
      "MagneticFieldStrength": 3.0,
      "Manufacturer": "SIEMENS",
      "ManufacturerModelName": "Prisma",
      "Modality": "MR",
      "NumberOfAverages": 1.0,
      "NumberOfPhaseEncodingSteps": 82,
      "PercentPhaseFieldOfView": 100.0,
      "PercentSampling": 100.0,
      "PerformedProcedureStepStartTime": "205320.988000",
      "PhotometricInterpretation": "MONOCHROME2",
      "PixelBandwidth": 3050.0,
      "PixelRepresentation": 0,
      "PixelSpacing": [2.6829268932343, 2.6829268932343],
      "ProtocolName": "func_run-01_task-social_acq-ap-mb8",
      "RepetitionTime": 460.0,
      "Rows": 656,
      "SAR": 0.09799079902405,
      "SamplesPerPixel": 1,
      "ScanOptions": "FS",
      "ScanningSequence": "EP",
      "SequenceName": "epfid2d1_82",
      "SequenceVariant": [
        "SK",
        "SS"
],
      "SeriesDescription": "func_run-01_task-social_acq-ap-mb8",
      "SeriesNumber": 12,
      "SeriesTime": "211224.859000",
      "SliceLocation": -47.157680241921,
      "SliceThickness": 2.7000000476837,
      "SmallestImagePixelValue": 0,
      "SoftwareVersions": "syngo MR E11",
      "SpacingBetweenSlices": 2.6999999331052,
      "SpecificCharacterSet": "ISO_IR 100",
      "StudyID": "1",
      "StudyTime": "205320.928000",
      "TransmitCoilName": "Body",
      "VariableFlipAngleFlag": "N",
      "WindowCenterWidthExplanation": "Algo1"
    },
    "slices": {}
  },
  "time": {
    "samples": {
      "AcquisitionNumber": [1, 2, 3, 4, 5, 6, 7, 8, 9, 10, 11, 12, 13, 14, 15, 16, 17, 18, 19, 20, 21, 22, 23, 24, 25, 26, 27, 28, 29, 30, 31, 32, 33, 34, 35, 36, 37, 38, 39, 40, 41, 42, 43, 44, 45, 46, 47, 48, 49, 50, 51, 52, 53, 54, 55, 56, 57, 58, 59, 60, 61, 62, 63, 64, 65, 66, 67, 68, 69, 70, 71, 72, 73, 74, 75, 76, 77, 78, 79, 80, 81, 82, 83, 84, 85, 86, 87, 88, 89, 90, 91, 92, 93, 94, 95, 96, 97, 98, 99, 100, 101, 102, 103, 104, 105, 106, 107, 108, 109, 110, 111, 112, 113, 114, 115, 116, 117, 118, 119, 120, 121, 122, 123, 124, 125, 126, 127, 128, 129, 130, 131, 132, 133, 134, 135, 136, 137, 138, 139, 140, 141, 142, 143, 144, 145, 146, 147, 148, 149, 150, 151, 152, 153, 154, 155, 156, 157, 158, 159, 160, 161, 162, 163, 164, 165, 166, 167, 168, 169, 170, 171, 172, 173, 174, 175, 176, 177, 178, 179, 180, 181, 182, 183, 184, 185, 186, 187, 188, 189, 190, 191, 192, 193, 194, 195, 196, 197, 198, 199, 200, 201, 202, 203, 204, 205, 206, 207, 208, 209, 210, 211, 212, 213, 214, 215, 216, 217, 218, 219, 220, 221, 222, 223, 224, 225, 226, 227, 228, 229, 230, 231, 232, 233, 234, 235, 236, 237, 238, 239, 240, 241, 242, 243, 244, 245, 246, 247, 248, 249, 250, 251, 252, 253, 254, 255, 256, 257, 258, 259, 260, 261, 262, 263, 264, 265, 266, 267, 268, 269, 270, 271, 272, 273, 274, 275, 276, 277, 278, 279, 280, 281, 282, 283, 284, 285, 286, 287, 288, 289, 290, 291, 292, 293, 294, 295, 296, 297, 298, 299, 300, 301, 302, 303, 304, 305, 306, 307, 308, 309, 310, 311, 312, 313, 314, 315, 316, 317, 318, 319, 320, 321, 322, 323, 324, 325, 326, 327, 328, 329, 330, 331, 332, 333, 334, 335, 336, 337, 338, 339, 340, 341, 342, 343, 344, 345, 346, 347, 348, 349, 350, 351, 352, 353, 354, 355, 356, 357, 358, 359, 360, 361, 362, 363, 364, 365, 366, 367, 368, 369, 370, 371, 372, 373, 374, 375, 376, 377, 378, 379, 380, 381, 382, 383, 384, 385, 386, 387, 388, 389, 390, 391, 392, 393, 394, 395, 396, 397, 398, 399, 400, 401, 402, 403, 404, 405, 406, 407, 408, 409, 410, 411, 412, 413, 414, 415, 416, 417, 418, 419, 420, 421, 422, 423, 424, 425, 426, 427, 428, 429, 430, 431, 432, 433, 434, 435, 436, 437, 438, 439, 440, 441, 442, 443, 444, 445, 446, 447, 448, 449, 450, 451, 452, 453, 454, 455, 456, 457, 458, 459, 460, 461, 462, 463, 464, 465, 466, 467, 468, 469, 470, 471, 472, 473, 474, 475, 476, 477, 478, 479, 480, 481, 482, 483, 484, 485, 486, 487, 488, 489, 490, 491, 492, 493, 494, 495, 496, 497, 498, 499, 500, 501, 502, 503, 504, 505, 506, 507, 508, 509, 510, 511, 512, 513, 514, 515, 516, 517, 518, 519, 520, 521, 522, 523, 524, 525, 526, 527, 528, 529, 530, 531, 532, 533, 534, 535, 536, 537, 538, 539, 540, 541, 542, 543, 544, 545, 546, 547, 548, 549, 550, 551, 552, 553, 554, 555, 556, 557, 558, 559, 560, 561, 562, 563, 564, 565, 566, 567, 568, 569, 570, 571, 572, 573, 574, 575, 576, 577, 578, 579, 580, 581, 582, 583, 584, 585, 586, 587, 588, 589, 590, 591, 592, 593, 594, 595, 596, 597, 598, 599, 600, 601, 602, 603, 604, 605, 606, 607, 608, 609, 610, 611, 612, 613, 614, 615, 616, 617, 618, 619, 620, 621, 622, 623, 624, 625, 626, 627, 628, 629, 630, 631, 632, 633, 634, 635, 636, 637, 638, 639, 640, 641, 642, 643, 644, 645, 646, 647, 648, 649, 650, 651, 652, 653, 654, 655, 656, 657, 658, 659, 660, 661, 662, 663, 664, 665, 666, 667, 668, 669, 670, 671, 672, 673, 674, 675, 676, 677, 678, 679, 680, 681, 682, 683, 684, 685, 686, 687, 688, 689, 690, 691, 692, 693, 694, 695, 696, 697, 698, 699, 700, 701, 702, 703, 704, 705, 706, 707, 708, 709, 710, 711, 712, 713, 714, 715, 716, 717, 718, 719, 720, 721, 722, 723, 724, 725, 726, 727, 728, 729, 730, 731, 732, 733, 734, 735, 736, 737, 738, 739, 740, 741, 742, 743, 744, 745, 746, 747, 748, 749, 750, 751, 752, 753, 754, 755, 756, 757, 758, 759, 760, 761, 762, 763, 764, 765, 766, 767, 768, 769, 770, 771, 772, 773, 774, 775, 776, 777, 778, 779, 780, 781, 782, 783, 784, 785, 786, 787, 788, 789, 790, 791, 792, 793, 794, 795, 796, 797, 798, 799, 800, 801, 802, 803, 804, 805, 806, 807, 808, 809, 810, 811, 812, 813, 814, 815, 816, 817, 818, 819, 820, 821, 822, 823, 824, 825, 826, 827, 828, 829, 830, 831, 832, 833, 834, 835, 836, 837, 838, 839, 840, 841, 842, 843, 844, 845, 846, 847, 848, 849, 850, 851, 852, 853, 854, 855, 856, 857, 858, 859, 860, 861, 862, 863, 864, 865, 866, 867, 868, 869, 870, 871, 872],
      "AcquisitionTime": ["211201.092500", "211201.552500", "211202.012500", "211202.472500", "211202.932500", "211203.392500", "211203.852500", "211204.312500", "211204.772500", "211205.232500", "211205.692500", "211206.152500", "211206.612500", "211207.072500", "211207.532500", "211207.992500", "211208.452500", "211208.912500", "211209.372500", "211209.832500", "211210.292500", "211210.752500", "211211.212500", "211211.672500", "211212.132500", "211212.592500", "211213.052500", "211213.512500", "211213.972500", "211214.432500", "211214.892500", "211215.352500", "211215.812500", "211216.272500", "211216.732500", "211217.192500", "211217.652500", "211218.112500", "211218.572500", "211219.032500", "211219.492500", "211219.952500", "211220.412500", "211220.872500", "211221.332500", "211221.792500", "211222.252500", "211222.712500", "211223.172500", "211223.632500", "211224.092500", "211224.552500", "211225.012500", "211225.472500", "211225.932500", "211226.392500", "211226.852500", "211227.312500", "211227.772500", "211228.232500", "211228.692500", "211229.152500", "211229.612500", "211230.072500", "211230.532500", "211230.992500", "211231.452500", "211231.912500", "211232.372500", "211232.832500", "211233.292500", "211233.752500", "211234.212500", "211234.672500", "211235.132500", "211235.592500", "211236.052500", "211236.512500", "211236.972500", "211237.432500", "211237.892500", "211238.352500", "211238.812500", "211239.272500", "211239.732500", "211240.192500", "211240.652500", "211241.112500", "211241.572500", "211242.032500", "211242.492500", "211242.952500", "211243.412500", "211243.872500", "211244.332500", "211244.792500", "211245.252500", "211245.712500", "211246.172500", "211246.632500", "211247.092500", "211247.552500", "211248.012500", "211248.472500", "211248.932500", "211249.392500", "211249.852500", "211250.312500", "211250.772500", "211251.232500", "211251.692500", "211252.152500", "211252.612500", "211253.072500", "211253.532500", "211253.992500", "211254.452500", "211254.912500", "211255.372500", "211255.832500", "211256.292500", "211256.752500", "211257.212500", "211257.672500", "211258.132500", "211258.592500", "211259.052500", "211259.512500", "211259.972500", "211300.432500", "211300.892500", "211301.352500", "211301.812500", "211302.272500", "211302.732500", "211303.192500", "211303.652500", "211304.112500", "211304.572500", "211305.032500", "211305.492500", "211305.952500", "211306.412500", "211306.872500", "211307.332500", "211307.792500", "211308.252500", "211308.712500", "211309.172500", "211309.632500", "211310.092500", "211310.552500", "211311.012500", "211311.472500", "211311.932500", "211312.392500", "211312.852500", "211313.312500", "211313.772500", "211314.232500", "211314.692500", "211315.152500", "211315.612500", "211316.072500", "211316.532500", "211316.992500", "211317.452500", "211317.912500", "211318.372500", "211318.832500", "211319.292500", "211319.752500", "211320.212500", "211320.672500", "211321.132500", "211321.592500", "211322.052500", "211322.512500", "211322.972500", "211323.432500", "211323.892500", "211324.352500", "211324.812500", "211325.272500", "211325.732500", "211326.192500", "211326.652500", "211327.112500", "211327.572500", "211328.032500", "211328.492500", "211328.952500", "211329.412500", "211329.872500", "211330.332500", "211330.792500", "211331.252500", "211331.712500", "211332.172500", "211332.632500", "211333.092500", "211333.552500", "211334.012500", "211334.472500", "211334.932500", "211335.392500", "211335.852500", "211336.312500", "211336.772500", "211337.232500", "211337.692500", "211338.152500", "211338.612500", "211339.072500", "211339.532500", "211339.992500", "211340.452500", "211340.912500", "211341.372500", "211341.832500", "211342.292500", "211342.752500", "211343.212500", "211343.672500", "211344.132500", "211344.592500", "211345.052500", "211345.512500", "211345.972500", "211346.432500", "211346.892500", "211347.352500", "211347.812500", "211348.272500", "211348.732500", "211349.192500", "211349.652500", "211350.112500", "211350.572500", "211351.032500", "211351.492500", "211351.952500", "211352.412500", "211352.872500", "211353.332500", "211353.792500", "211354.252500", "211354.712500", "211355.172500", "211355.632500", "211356.092500", "211356.552500", "211357.012500", "211357.472500", "211357.932500", "211358.392500", "211358.852500", "211359.312500", "211359.772500", "211400.232500", "211400.692500", "211401.152500", "211401.612500", "211402.072500", "211402.532500", "211402.992500", "211403.452500", "211403.912500", "211404.372500", "211404.832500", "211405.292500", "211405.752500", "211406.212500", "211406.672500", "211407.132500", "211407.592500", "211408.052500", "211408.512500", "211408.972500", "211409.432500", "211409.892500", "211410.352500", "211410.812500", "211411.272500", "211411.732500", "211412.192500", "211412.652500", "211413.112500", "211413.572500", "211414.032500", "211414.492500", "211414.952500", "211415.412500", "211415.872500", "211416.332500", "211416.792500", "211417.252500", "211417.712500", "211418.172500", "211418.632500", "211419.092500", "211419.552500", "211420.012500", "211420.472500", "211420.932500", "211421.392500", "211421.852500", "211422.312500", "211422.772500", "211423.232500", "211423.692500", "211424.152500", "211424.612500", "211425.072500", "211425.532500", "211425.992500", "211426.452500", "211426.912500", "211427.372500", "211427.832500", "211428.292500", "211428.752500", "211429.212500", "211429.672500", "211430.132500", "211430.592500", "211431.052500", "211431.512500", "211431.972500", "211432.432500", "211432.892500", "211433.352500", "211433.812500", "211434.272500", "211434.732500", "211435.192500", "211435.652500", "211436.112500", "211436.572500", "211437.032500", "211437.492500", "211437.952500", "211438.412500", "211438.872500", "211439.332500", "211439.792500", "211440.252500", "211440.712500", "211441.172500", "211441.632500", "211442.092500", "211442.552500", "211443.012500", "211443.472500", "211443.932500", "211444.392500", "211444.852500", "211445.312500", "211445.772500", "211446.232500", "211446.692500", "211447.152500", "211447.612500", "211448.072500", "211448.532500", "211448.992500", "211449.452500", "211449.912500", "211450.372500", "211450.832500", "211451.292500", "211451.752500", "211452.212500", "211452.672500", "211453.132500", "211453.592500", "211454.052500", "211454.512500", "211454.972500", "211455.432500", "211455.892500", "211456.352500", "211456.812500", "211457.272500", "211457.732500", "211458.192500", "211458.652500", "211459.112500", "211459.572500", "211500.032500", "211500.492500", "211500.952500", "211501.412500", "211501.872500", "211502.332500", "211502.792500", "211503.252500", "211503.712500", "211504.172500", "211504.632500", "211505.092500", "211505.552500", "211506.012500", "211506.472500", "211506.932500", "211507.392500", "211507.852500", "211508.312500", "211508.772500", "211509.232500", "211509.692500", "211510.152500", "211510.612500", "211511.072500", "211511.532500", "211511.992500", "211512.452500", "211512.912500", "211513.372500", "211513.832500", "211514.292500", "211514.752500", "211515.212500", "211515.672500", "211516.132500", "211516.592500", "211517.052500", "211517.512500", "211517.972500", "211518.432500", "211518.892500", "211519.352500", "211519.812500", "211520.272500", "211520.732500", "211521.192500", "211521.652500", "211522.112500", "211522.572500", "211523.032500", "211523.492500", "211523.952500", "211524.412500", "211524.872500", "211525.332500", "211525.792500", "211526.252500", "211526.712500", "211527.172500", "211527.632500", "211528.092500", "211528.552500", "211529.012500", "211529.472500", "211529.932500", "211530.392500", "211530.852500", "211531.312500", "211531.772500", "211532.232500", "211532.692500", "211533.152500", "211533.612500", "211534.072500", "211534.532500", "211534.992500", "211535.452500", "211535.912500", "211536.372500", "211536.832500", "211537.292500", "211537.752500", "211538.212500", "211538.672500", "211539.132500", "211539.592500", "211540.052500", "211540.512500", "211540.972500", "211541.432500", "211541.892500", "211542.352500", "211542.812500", "211543.272500", "211543.732500", "211544.192500", "211544.652500", "211545.112500", "211545.572500", "211546.032500", "211546.492500", "211546.952500", "211547.412500", "211547.872500", "211548.332500", "211548.792500", "211549.252500", "211549.712500", "211550.172500", "211550.632500", "211551.092500", "211551.552500", "211552.012500", "211552.472500", "211552.932500", "211553.392500", "211553.852500", "211554.312500", "211554.772500", "211555.232500", "211555.692500", "211556.152500", "211556.612500", "211557.072500", "211557.532500", "211557.992500", "211558.452500", "211558.912500", "211559.372500", "211559.832500", "211600.292500", "211600.752500", "211601.212500", "211601.672500", "211602.132500", "211602.592500", "211603.052500", "211603.512500", "211603.972500", "211604.432500", "211604.892500", "211605.352500", "211605.812500", "211606.272500", "211606.732500", "211607.192500", "211607.652500", "211608.112500", "211608.572500", "211609.032500", "211609.492500", "211609.952500", "211610.412500", "211610.872500", "211611.332500", "211611.792500", "211612.252500", "211612.712500", "211613.172500", "211613.632500", "211614.092500", "211614.552500", "211615.012500", "211615.472500", "211615.932500", "211616.392500", "211616.852500", "211617.312500", "211617.772500", "211618.232500", "211618.692500", "211619.152500", "211619.612500", "211620.072500", "211620.532500", "211620.992500", "211621.452500", "211621.912500", "211622.372500", "211622.832500", "211623.292500", "211623.752500", "211624.212500", "211624.672500", "211625.132500", "211625.592500", "211626.052500", "211626.512500", "211626.972500", "211627.432500", "211627.892500", "211628.352500", "211628.812500", "211629.272500", "211629.732500", "211630.192500", "211630.652500", "211631.112500", "211631.572500", "211632.032500", "211632.492500", "211632.952500", "211633.412500", "211633.872500", "211634.332500", "211634.792500", "211635.252500", "211635.712500", "211636.172500", "211636.632500", "211637.092500", "211637.552500", "211638.012500", "211638.472500", "211638.932500", "211639.392500", "211639.852500", "211640.312500", "211640.772500", "211641.232500", "211641.692500", "211642.152500", "211642.612500", "211643.072500", "211643.532500", "211643.992500", "211644.452500", "211644.912500", "211645.372500", "211645.832500", "211646.292500", "211646.752500", "211647.212500", "211647.672500", "211648.132500", "211648.592500", "211649.052500", "211649.512500", "211649.972500", "211650.432500", "211650.892500", "211651.352500", "211651.812500", "211652.272500", "211652.732500", "211653.192500", "211653.652500", "211654.112500", "211654.572500", "211655.032500", "211655.492500", "211655.952500", "211656.412500", "211656.872500", "211657.332500", "211657.792500", "211658.252500", "211658.712500", "211659.172500", "211659.632500", "211700.092500", "211700.552500", "211701.012500", "211701.472500", "211701.932500", "211702.392500", "211702.852500", "211703.312500", "211703.772500", "211704.232500", "211704.692500", "211705.152500", "211705.612500", "211706.072500", "211706.532500", "211706.992500", "211707.452500", "211707.912500", "211708.372500", "211708.832500", "211709.292500", "211709.752500", "211710.212500", "211710.672500", "211711.132500", "211711.592500", "211712.052500", "211712.512500", "211712.972500", "211713.432500", "211713.892500", "211714.352500", "211714.812500", "211715.272500", "211715.732500", "211716.192500", "211716.652500", "211717.112500", "211717.572500", "211718.032500", "211718.492500", "211718.952500", "211719.412500", "211719.872500", "211720.332500", "211720.792500", "211721.252500", "211721.712500", "211722.172500", "211722.632500", "211723.092500", "211723.552500", "211724.012500", "211724.472500", "211724.932500", "211725.392500", "211725.852500", "211726.312500", "211726.772500", "211727.232500", "211727.692500", "211728.152500", "211728.612500", "211729.072500", "211729.532500", "211729.992500", "211730.452500", "211730.912500", "211731.372500", "211731.832500", "211732.292500", "211732.752500", "211733.212500", "211733.672500", "211734.132500", "211734.592500", "211735.052500", "211735.512500", "211735.972500", "211736.432500", "211736.892500", "211737.352500", "211737.812500", "211738.272500", "211738.732500", "211739.192500", "211739.652500", "211740.112500", "211740.572500", "211741.032500", "211741.492500", "211741.952500", "211742.412500", "211742.872500", "211743.332500", "211743.792500", "211744.252500", "211744.712500", "211745.172500", "211745.632500", "211746.092500", "211746.552500", "211747.012500", "211747.472500", "211747.932500", "211748.392500", "211748.852500", "211749.312500", "211749.772500", "211750.232500", "211750.692500", "211751.152500", "211751.612500", "211752.072500", "211752.532500", "211752.992500", "211753.452500", "211753.912500", "211754.372500", "211754.832500", "211755.292500", "211755.752500", "211756.212500", "211756.672500", "211757.132500", "211757.592500", "211758.052500", "211758.512500", "211758.972500", "211759.432500", "211759.892500", "211800.352500", "211800.812500", "211801.272500", "211801.732500", "211802.192500", "211802.652500", "211803.112500", "211803.572500", "211804.032500", "211804.492500", "211804.952500", "211805.412500", "211805.872500", "211806.332500", "211806.792500", "211807.252500", "211807.712500", "211808.172500", "211808.632500", "211809.092500", "211809.552500", "211810.012500", "211810.472500", "211810.932500", "211811.392500", "211811.852500", "211812.312500", "211812.772500", "211813.232500", "211813.692500", "211814.152500", "211814.612500", "211815.072500", "211815.532500", "211815.992500", "211816.452500", "211816.912500", "211817.372500", "211817.832500", "211818.292500", "211818.752500", "211819.212500", "211819.672500", "211820.132500", "211820.592500", "211821.052500", "211821.512500", "211821.972500", "211822.432500", "211822.892500", "211823.352500", "211823.812500", "211824.272500", "211824.732500", "211825.192500", "211825.652500", "211826.112500", "211826.572500", "211827.032500", "211827.492500", "211827.952500", "211828.412500", "211828.872500", "211829.332500", "211829.792500", "211830.252500", "211830.712500", "211831.172500", "211831.632500", "211832.092500", "211832.552500", "211833.012500", "211833.472500", "211833.932500", "211834.392500", "211834.852500", "211835.312500", "211835.772500", "211836.232500", "211836.692500", "211837.152500", "211837.612500", "211838.072500", "211838.532500", "211838.992500", "211839.452500", "211839.912500", "211840.372500", "211840.832500", "211841.292500", "211841.752500"],
