{
  "AcquisitionMatrixPE": 82,
  "AcquisitionNumber": 1,
  "AcquisitionTime": "21:47:54.882500",
  "BandwidthPerPixelPhaseEncode": 24.888,
  "BaseResolution": 82,
  "BodyPartExamined": "BRAIN",
  "ConsistencyInfo": "N4_VE11E_LATEST_20181129",
  "ConversionSoftware": "dcm2niix",
  "ConversionSoftwareVersion": "v1.0.20201102",
  "DerivedVendorReportedEchoSpacing": 0.00049,
  "DeviceSerialNumber": "66112",
  "DwellTime": 2e-06,
  "EchoTime": 0.0272,
  "EchoTrainLength": 82,
  "EffectiveEchoSpacing": 0.00049,
  "FlipAngle": 44,
  "ImageComments": "Unaliased MB8/PE3",
  "ImageOrientationPatientDICOM": [0.995346, -0.0729386, 0.0629848, 0.0696013, 0.996131, 0.053649],
  "ImageType": [
    "ORIGINAL",
    "PRIMARY",
    "M",
    "MB",
    "ND",
    "NORM",
    "MOSAIC"
],
  "ImagingFrequency": 123.252,
  "InPlanePhaseEncodingDirectionDICOM": "COL",
  "InstitutionAddress": "Maynard 3,Hanover,NH,US,03755",
  "InstitutionName": "Dartmouth College - PBS",
  "InstitutionalDepartmentName": "Department",
  "MRAcquisitionType": "2D",
  "MagneticFieldStrength": 3,
  "Manufacturer": "Siemens",
  "ManufacturersModelName": "Prisma",
  "Modality": "MR",
  "MultibandAccelerationFactor": 8,
  "PartialFourier": 1,
  "PatientPosition": "HFS",
  "PercentPhaseFOV": 100,
  "PercentSampling": 100,
  "PhaseEncodingDirection": "j-",
  "PhaseEncodingSteps": 82,
  "PhaseResolution": 1,
  "PixelBandwidth": 3050,
  "ProcedureStepDescription": "Wager_Wager^1076_spacetop",
  "ProtocolName": "func_run-06_task-social_acq-ap-mb8",
  "PulseSequenceDetails": "%CustomerSeq%\\cmrr_mbep2d_bold",
  "ReceiveCoilActiveElements": "HEP",
  "ReceiveCoilName": "Head_32",
  "ReconMatrixPE": 82,
  "RepetitionTime": 0.46,
  "SAR": 0.0979908,
  "ScanOptions": "FS",
  "ScanningSequence": "EP",
  "SequenceName": "epfid2d1_82",
  "SequenceVariant": "SK\\SS",
  "SeriesDescription": "func_run-06_task-social_acq-ap-mb8",
  "SeriesNumber": 22,
  "ShimSetting": [4160, -7880, -7064, 967, -72, -190, 134, 57],
  "SliceThickness": 2.7,
  "SliceTiming": [0, 0.2525, 0.0625, 0.315, 0.125, 0.3775, 0.19, 0, 0.2525, 0.0625, 0.315, 0.125, 0.3775, 0.19, 0, 0.2525, 0.0625, 0.315, 0.125, 0.3775, 0.19, 0, 0.2525, 0.0625, 0.315, 0.125, 0.3775, 0.19, 0, 0.2525, 0.0625, 0.315, 0.125, 0.3775, 0.19, 0, 0.2525, 0.0625, 0.315, 0.125, 0.3775, 0.19, 0, 0.2525, 0.0625, 0.315, 0.125, 0.3775, 0.19, 0, 0.2525, 0.0625, 0.315, 0.125, 0.3775, 0.19],
  "SoftwareVersions": "syngo MR E11",
  "SpacingBetweenSlices": 2.7,
  "StationName": "AWP66112",
  "TaskName": "social",
  "TotalReadoutTime": 0.03969,
  "TxRefAmp": 232.014,
  "WipMemBlock": "bb9e31c0-b227-449f-a6b5-037e425fc4eb||Sequence: R016 ve11e/master r/434b28f1; Aug  7 2019 18:53:46 by eja",
  "dcmmeta_affine": [
    [-2.6704394817352295, 0.18673528730869293, 0.17996643483638763, 98.57020568847656],
    [0.19568902254104614, 2.6725473403930664, 0.132341668009758, -112.8686752319336],
    [0.16898368299007416, -0.14393624663352966, 2.6907429695129395, -48.36130142211914],
    [0.0, 0.0, 0.0, 1.0]
],
  "dcmmeta_reorient_transform": [
    [0.0, -1.0, 0.0, 81.0],
    [1.0, 0.0, 0.0, 0.0],
    [0.0, 0.0, 1.0, 0.0],
    [0.0, 0.0, 0.0, 1.0]
],
  "dcmmeta_shape": [82, 82, 56, 872],
  "dcmmeta_slice_dim": 2,
  "dcmmeta_version": 0.6,
  "global": {
    "const": {
      "AccessionNumber": "A004059",
      "AcquisitionMatrix": [82, 0, 0, 82],
      "AngioFlag": "N",
      "BitsAllocated": 16,
      "BitsStored": 16,
      "BodyPartExamined": "BRAIN",
      "Columns": 656,
      "EchoNumbers": 1,
      "EchoTime": 27.2,
      "EchoTrainLength": 82,
      "FlipAngle": 44.0,
      "HighBit": 15,
      "ImageOrientationPatient": [0.99534560187138, -0.0729386340043, 0.06298482757675, 0.06960133333994, 0.99613123786307, 0.05364896411566],
      "ImagePositionPatient": [-933.70492602409, -814.46597710605, -149.8281611945],
      "ImageType": [
        "ORIGINAL",
        "PRIMARY",
        "M",
        "MB",
        "ND",
        "NORM",
        "MOSAIC"
],
      "ImagedNucleus": "1H",
      "ImagingFrequency": 123.252163,
      "InPlanePhaseEncodingDirection": "COL",
      "MRAcquisitionType": "2D",
      "MagneticFieldStrength": 3.0,
      "Manufacturer": "SIEMENS",
      "ManufacturerModelName": "Prisma",
      "Modality": "MR",
      "NumberOfAverages": 1.0,
      "NumberOfPhaseEncodingSteps": 82,
      "PercentPhaseFieldOfView": 100.0,
      "PercentSampling": 100.0,
      "PerformedProcedureStepStartTime": "205320.988000",
      "PhotometricInterpretation": "MONOCHROME2",
      "PixelBandwidth": 3050.0,
      "PixelRepresentation": 0,
      "PixelSpacing": [2.6829268932343, 2.6829268932343],
      "ProtocolName": "func_run-06_task-social_acq-ap-mb8",
      "RepetitionTime": 460.0,
      "Rows": 656,
      "SAR": 0.09799079902405,
      "SamplesPerPixel": 1,
      "ScanOptions": "FS",
      "ScanningSequence": "EP",
      "SequenceName": "epfid2d1_82",
      "SequenceVariant": [
        "SK",
        "SS"
],
      "SeriesDescription": "func_run-06_task-social_acq-ap-mb8",
      "SeriesNumber": 22,
      "SeriesTime": "214804.776000",
      "SliceLocation": -47.157680241921,
      "SliceThickness": 2.7000000476837,
      "SmallestImagePixelValue": 0,
      "SoftwareVersions": "syngo MR E11",
      "SpacingBetweenSlices": 2.6999999331052,
      "SpecificCharacterSet": "ISO_IR 100",
      "StudyID": "1",
      "StudyTime": "205320.928000",
      "TransmitCoilName": "Body",
      "VariableFlipAngleFlag": "N",
      "WindowCenterWidthExplanation": "Algo1"
    },
    "slices": {}
  },
  "time": {
    "samples": {
      "AcquisitionNumber": [1, 2, 3, 4, 5, 6, 7, 8, 9, 10, 11, 12, 13, 14, 15, 16, 17, 18, 19, 20, 21, 22, 23, 24, 25, 26, 27, 28, 29, 30, 31, 32, 33, 34, 35, 36, 37, 38, 39, 40, 41, 42, 43, 44, 45, 46, 47, 48, 49, 50, 51, 52, 53, 54, 55, 56, 57, 58, 59, 60, 61, 62, 63, 64, 65, 66, 67, 68, 69, 70, 71, 72, 73, 74, 75, 76, 77, 78, 79, 80, 81, 82, 83, 84, 85, 86, 87, 88, 89, 90, 91, 92, 93, 94, 95, 96, 97, 98, 99, 100, 101, 102, 103, 104, 105, 106, 107, 108, 109, 110, 111, 112, 113, 114, 115, 116, 117, 118, 119, 120, 121, 122, 123, 124, 125, 126, 127, 128, 129, 130, 131, 132, 133, 134, 135, 136, 137, 138, 139, 140, 141, 142, 143, 144, 145, 146, 147, 148, 149, 150, 151, 152, 153, 154, 155, 156, 157, 158, 159, 160, 161, 162, 163, 164, 165, 166, 167, 168, 169, 170, 171, 172, 173, 174, 175, 176, 177, 178, 179, 180, 181, 182, 183, 184, 185, 186, 187, 188, 189, 190, 191, 192, 193, 194, 195, 196, 197, 198, 199, 200, 201, 202, 203, 204, 205, 206, 207, 208, 209, 210, 211, 212, 213, 214, 215, 216, 217, 218, 219, 220, 221, 222, 223, 224, 225, 226, 227, 228, 229, 230, 231, 232, 233, 234, 235, 236, 237, 238, 239, 240, 241, 242, 243, 244, 245, 246, 247, 248, 249, 250, 251, 252, 253, 254, 255, 256, 257, 258, 259, 260, 261, 262, 263, 264, 265, 266, 267, 268, 269, 270, 271, 272, 273, 274, 275, 276, 277, 278, 279, 280, 281, 282, 283, 284, 285, 286, 287, 288, 289, 290, 291, 292, 293, 294, 295, 296, 297, 298, 299, 300, 301, 302, 303, 304, 305, 306, 307, 308, 309, 310, 311, 312, 313, 314, 315, 316, 317, 318, 319, 320, 321, 322, 323, 324, 325, 326, 327, 328, 329, 330, 331, 332, 333, 334, 335, 336, 337, 338, 339, 340, 341, 342, 343, 344, 345, 346, 347, 348, 349, 350, 351, 352, 353, 354, 355, 356, 357, 358, 359, 360, 361, 362, 363, 364, 365, 366, 367, 368, 369, 370, 371, 372, 373, 374, 375, 376, 377, 378, 379, 380, 381, 382, 383, 384, 385, 386, 387, 388, 389, 390, 391, 392, 393, 394, 395, 396, 397, 398, 399, 400, 401, 402, 403, 404, 405, 406, 407, 408, 409, 410, 411, 412, 413, 414, 415, 416, 417, 418, 419, 420, 421, 422, 423, 424, 425, 426, 427, 428, 429, 430, 431, 432, 433, 434, 435, 436, 437, 438, 439, 440, 441, 442, 443, 444, 445, 446, 447, 448, 449, 450, 451, 452, 453, 454, 455, 456, 457, 458, 459, 460, 461, 462, 463, 464, 465, 466, 467, 468, 469, 470, 471, 472, 473, 474, 475, 476, 477, 478, 479, 480, 481, 482, 483, 484, 485, 486, 487, 488, 489, 490, 491, 492, 493, 494, 495, 496, 497, 498, 499, 500, 501, 502, 503, 504, 505, 506, 507, 508, 509, 510, 511, 512, 513, 514, 515, 516, 517, 518, 519, 520, 521, 522, 523, 524, 525, 526, 527, 528, 529, 530, 531, 532, 533, 534, 535, 536, 537, 538, 539, 540, 541, 542, 543, 544, 545, 546, 547, 548, 549, 550, 551, 552, 553, 554, 555, 556, 557, 558, 559, 560, 561, 562, 563, 564, 565, 566, 567, 568, 569, 570, 571, 572, 573, 574, 575, 576, 577, 578, 579, 580, 581, 582, 583, 584, 585, 586, 587, 588, 589, 590, 591, 592, 593, 594, 595, 596, 597, 598, 599, 600, 601, 602, 603, 604, 605, 606, 607, 608, 609, 610, 611, 612, 613, 614, 615, 616, 617, 618, 619, 620, 621, 622, 623, 624, 625, 626, 627, 628, 629, 630, 631, 632, 633, 634, 635, 636, 637, 638, 639, 640, 641, 642, 643, 644, 645, 646, 647, 648, 649, 650, 651, 652, 653, 654, 655, 656, 657, 658, 659, 660, 661, 662, 663, 664, 665, 666, 667, 668, 669, 670, 671, 672, 673, 674, 675, 676, 677, 678, 679, 680, 681, 682, 683, 684, 685, 686, 687, 688, 689, 690, 691, 692, 693, 694, 695, 696, 697, 698, 699, 700, 701, 702, 703, 704, 705, 706, 707, 708, 709, 710, 711, 712, 713, 714, 715, 716, 717, 718, 719, 720, 721, 722, 723, 724, 725, 726, 727, 728, 729, 730, 731, 732, 733, 734, 735, 736, 737, 738, 739, 740, 741, 742, 743, 744, 745, 746, 747, 748, 749, 750, 751, 752, 753, 754, 755, 756, 757, 758, 759, 760, 761, 762, 763, 764, 765, 766, 767, 768, 769, 770, 771, 772, 773, 774, 775, 776, 777, 778, 779, 780, 781, 782, 783, 784, 785, 786, 787, 788, 789, 790, 791, 792, 793, 794, 795, 796, 797, 798, 799, 800, 801, 802, 803, 804, 805, 806, 807, 808, 809, 810, 811, 812, 813, 814, 815, 816, 817, 818, 819, 820, 821, 822, 823, 824, 825, 826, 827, 828, 829, 830, 831, 832, 833, 834, 835, 836, 837, 838, 839, 840, 841, 842, 843, 844, 845, 846, 847, 848, 849, 850, 851, 852, 853, 854, 855, 856, 857, 858, 859, 860, 861, 862, 863, 864, 865, 866, 867, 868, 869, 870, 871, 872],
      "AcquisitionTime": ["214754.882500", "214755.342500", "214755.802500", "214756.262500", "214756.722500", "214757.182500", "214757.642500", "214758.102500", "214758.562500", "214759.022500", "214759.482500", "214759.942500", "214800.402500", "214800.862500", "214801.322500", "214801.782500", "214802.242500", "214802.702500", "214803.162500", "214803.622500", "214804.082500", "214804.542500", "214805.002500", "214805.462500", "214805.922500", "214806.382500", "214806.842500", "214807.302500", "214807.762500", "214808.222500", "214808.682500", "214809.142500", "214809.602500", "214810.062500", "214810.522500", "214810.982500", "214811.442500", "214811.902500", "214812.362500", "214812.822500", "214813.282500", "214813.742500", "214814.202500", "214814.662500", "214815.122500", "214815.582500", "214816.042500", "214816.502500", "214816.962500", "214817.422500", "214817.882500", "214818.342500", "214818.802500", "214819.262500", "214819.722500", "214820.182500", "214820.642500", "214821.102500", "214821.562500", "214822.022500", "214822.482500", "214822.942500", "214823.402500", "214823.862500", "214824.322500", "214824.782500", "214825.242500", "214825.702500", "214826.162500", "214826.622500", "214827.082500", "214827.542500", "214828.002500", "214828.462500", "214828.922500", "214829.382500", "214829.842500", "214830.302500", "214830.762500", "214831.222500", "214831.682500", "214832.142500", "214832.602500", "214833.062500", "214833.522500", "214833.982500", "214834.442500", "214834.902500", "214835.362500", "214835.822500", "214836.282500", "214836.742500", "214837.202500", "214837.662500", "214838.122500", "214838.582500", "214839.042500", "214839.502500", "214839.962500", "214840.422500", "214840.882500", "214841.342500", "214841.802500", "214842.262500", "214842.722500", "214843.182500", "214843.642500", "214844.102500", "214844.562500", "214845.022500", "214845.482500", "214845.942500", "214846.402500", "214846.862500", "214847.322500", "214847.782500", "214848.242500", "214848.702500", "214849.162500", "214849.622500", "214850.082500", "214850.542500", "214851.002500", "214851.462500", "214851.922500", "214852.382500", "214852.842500", "214853.302500", "214853.762500", "214854.222500", "214854.682500", "214855.142500", "214855.602500", "214856.062500", "214856.522500", "214856.982500", "214857.442500", "214857.902500", "214858.362500", "214858.822500", "214859.282500", "214859.742500", "214900.202500", "214900.662500", "214901.122500", "214901.582500", "214902.042500", "214902.502500", "214902.962500", "214903.422500", "214903.882500", "214904.342500", "214904.802500", "214905.262500", "214905.722500", "214906.182500", "214906.642500", "214907.102500", "214907.562500", "214908.022500", "214908.482500", "214908.942500", "214909.402500", "214909.862500", "214910.322500", "214910.782500", "214911.242500", "214911.702500", "214912.162500", "214912.622500", "214913.082500", "214913.542500", "214914.002500", "214914.462500", "214914.922500", "214915.382500", "214915.842500", "214916.302500", "214916.762500", "214917.222500", "214917.682500", "214918.142500", "214918.602500", "214919.062500", "214919.522500", "214919.982500", "214920.442500", "214920.902500", "214921.362500", "214921.822500", "214922.282500", "214922.742500", "214923.202500", "214923.662500", "214924.122500", "214924.582500", "214925.042500", "214925.502500", "214925.962500", "214926.422500", "214926.882500", "214927.342500", "214927.802500", "214928.262500", "214928.722500", "214929.182500", "214929.642500", "214930.102500", "214930.562500", "214931.022500", "214931.482500", "214931.942500", "214932.402500", "214932.862500", "214933.322500", "214933.782500", "214934.242500", "214934.702500", "214935.162500", "214935.622500", "214936.082500", "214936.542500", "214937.002500", "214937.462500", "214937.922500", "214938.382500", "214938.842500", "214939.302500", "214939.762500", "214940.222500", "214940.682500", "214941.142500", "214941.602500", "214942.062500", "214942.522500", "214942.982500", "214943.442500", "214943.902500", "214944.362500", "214944.822500", "214945.282500", "214945.742500", "214946.202500", "214946.662500", "214947.122500", "214947.582500", "214948.042500", "214948.502500", "214948.962500", "214949.422500", "214949.882500", "214950.342500", "214950.802500", "214951.262500", "214951.722500", "214952.182500", "214952.642500", "214953.102500", "214953.562500", "214954.022500", "214954.482500", "214954.942500", "214955.402500", "214955.862500", "214956.322500", "214956.782500", "214957.242500", "214957.702500", "214958.162500", "214958.622500", "214959.082500", "214959.542500", "215000.002500", "215000.462500", "215000.922500", "215001.382500", "215001.842500", "215002.302500", "215002.762500", "215003.222500", "215003.682500", "215004.142500", "215004.602500", "215005.062500", "215005.522500", "215005.982500", "215006.442500", "215006.902500", "215007.362500", "215007.822500", "215008.282500", "215008.742500", "215009.202500", "215009.662500", "215010.122500", "215010.582500", "215011.042500", "215011.502500", "215011.962500", "215012.422500", "215012.882500", "215013.342500", "215013.802500", "215014.262500", "215014.722500", "215015.182500", "215015.642500", "215016.102500", "215016.562500", "215017.022500", "215017.482500", "215017.942500", "215018.402500", "215018.862500", "215019.322500", "215019.782500", "215020.242500", "215020.702500", "215021.162500", "215021.622500", "215022.082500", "215022.542500", "215023.002500", "215023.462500", "215023.922500", "215024.382500", "215024.842500", "215025.302500", "215025.762500", "215026.222500", "215026.682500", "215027.142500", "215027.602500", "215028.062500", "215028.522500", "215028.982500", "215029.442500", "215029.902500", "215030.362500", "215030.822500", "215031.282500", "215031.742500", "215032.202500", "215032.662500", "215033.122500", "215033.582500", "215034.042500", "215034.502500", "215034.962500", "215035.422500", "215035.882500", "215036.342500", "215036.802500", "215037.262500", "215037.722500", "215038.182500", "215038.642500", "215039.102500", "215039.562500", "215040.022500", "215040.482500", "215040.942500", "215041.402500", "215041.862500", "215042.322500", "215042.782500", "215043.242500", "215043.702500", "215044.162500", "215044.622500", "215045.082500", "215045.542500", "215046.002500", "215046.462500", "215046.922500", "215047.382500", "215047.842500", "215048.302500", "215048.762500", "215049.222500", "215049.682500", "215050.142500", "215050.602500", "215051.062500", "215051.522500", "215051.982500", "215052.442500", "215052.902500", "215053.362500", "215053.822500", "215054.282500", "215054.742500", "215055.202500", "215055.662500", "215056.122500", "215056.582500", "215057.042500", "215057.502500", "215057.962500", "215058.422500", "215058.882500", "215059.342500", "215059.802500", "215100.262500", "215100.722500", "215101.182500", "215101.642500", "215102.102500", "215102.562500", "215103.022500", "215103.482500", "215103.942500", "215104.402500", "215104.862500", "215105.322500", "215105.782500", "215106.242500", "215106.702500", "215107.162500", "215107.622500", "215108.082500", "215108.542500", "215109.002500", "215109.462500", "215109.922500", "215110.382500", "215110.842500", "215111.302500", "215111.762500", "215112.222500", "215112.682500", "215113.142500", "215113.602500", "215114.062500", "215114.522500", "215114.982500", "215115.442500", "215115.902500", "215116.362500", "215116.822500", "215117.282500", "215117.742500", "215118.202500", "215118.662500", "215119.122500", "215119.582500", "215120.042500", "215120.502500", "215120.962500", "215121.422500", "215121.882500", "215122.342500", "215122.802500", "215123.262500", "215123.722500", "215124.182500", "215124.642500", "215125.102500", "215125.562500", "215126.022500", "215126.482500", "215126.942500", "215127.402500", "215127.862500", "215128.322500", "215128.782500", "215129.242500", "215129.702500", "215130.162500", "215130.622500", "215131.082500", "215131.542500", "215132.002500", "215132.462500", "215132.922500", "215133.382500", "215133.842500", "215134.302500", "215134.762500", "215135.222500", "215135.682500", "215136.142500", "215136.602500", "215137.062500", "215137.522500", "215137.982500", "215138.442500", "215138.902500", "215139.362500", "215139.822500", "215140.282500", "215140.742500", "215141.202500", "215141.662500", "215142.122500", "215142.582500", "215143.042500", "215143.502500", "215143.962500", "215144.422500", "215144.882500", "215145.342500", "215145.802500", "215146.262500", "215146.722500", "215147.182500", "215147.642500", "215148.102500", "215148.562500", "215149.022500", "215149.482500", "215149.942500", "215150.402500", "215150.862500", "215151.322500", "215151.782500", "215152.242500", "215152.702500", "215153.162500", "215153.622500", "215154.082500", "215154.542500", "215155.002500", "215155.462500", "215155.922500", "215156.382500", "215156.842500", "215157.302500", "215157.762500", "215158.222500", "215158.682500", "215159.142500", "215159.602500", "215200.062500", "215200.522500", "215200.982500", "215201.442500", "215201.902500", "215202.362500", "215202.822500", "215203.282500", "215203.742500", "215204.202500", "215204.662500", "215205.122500", "215205.582500", "215206.042500", "215206.502500", "215206.962500", "215207.422500", "215207.882500", "215208.342500", "215208.802500", "215209.262500", "215209.722500", "215210.182500", "215210.642500", "215211.102500", "215211.562500", "215212.022500", "215212.482500", "215212.942500", "215213.402500", "215213.862500", "215214.322500", "215214.782500", "215215.242500", "215215.702500", "215216.162500", "215216.622500", "215217.082500", "215217.542500", "215218.002500", "215218.462500", "215218.922500", "215219.382500", "215219.842500", "215220.302500", "215220.762500", "215221.222500", "215221.682500", "215222.142500", "215222.602500", "215223.062500", "215223.522500", "215223.982500", "215224.442500", "215224.902500", "215225.362500", "215225.822500", "215226.282500", "215226.742500", "215227.202500", "215227.662500", "215228.122500", "215228.582500", "215229.042500", "215229.502500", "215229.962500", "215230.422500", "215230.882500", "215231.342500", "215231.802500", "215232.262500", "215232.722500", "215233.182500", "215233.642500", "215234.102500", "215234.562500", "215235.022500", "215235.482500", "215235.942500", "215236.402500", "215236.862500", "215237.322500", "215237.782500", "215238.242500", "215238.702500", "215239.162500", "215239.622500", "215240.082500", "215240.542500", "215241.002500", "215241.462500", "215241.922500", "215242.382500", "215242.842500", "215243.302500", "215243.762500", "215244.222500", "215244.682500", "215245.142500", "215245.602500", "215246.062500", "215246.522500", "215246.982500", "215247.442500", "215247.902500", "215248.362500", "215248.822500", "215249.282500", "215249.742500", "215250.202500", "215250.662500", "215251.122500", "215251.582500", "215252.042500", "215252.502500", "215252.962500", "215253.422500", "215253.882500", "215254.342500", "215254.802500", "215255.262500", "215255.722500", "215256.182500", "215256.642500", "215257.102500", "215257.562500", "215258.022500", "215258.482500", "215258.942500", "215259.402500", "215259.862500", "215300.322500", "215300.782500", "215301.242500", "215301.702500", "215302.162500", "215302.622500", "215303.082500", "215303.542500", "215304.002500", "215304.462500", "215304.922500", "215305.382500", "215305.842500", "215306.302500", "215306.762500", "215307.222500", "215307.682500", "215308.142500", "215308.602500", "215309.062500", "215309.522500", "215309.982500", "215310.442500", "215310.902500", "215311.362500", "215311.822500", "215312.282500", "215312.742500", "215313.202500", "215313.662500", "215314.122500", "215314.582500", "215315.042500", "215315.502500", "215315.962500", "215316.422500", "215316.882500", "215317.342500", "215317.802500", "215318.262500", "215318.722500", "215319.182500", "215319.642500", "215320.102500", "215320.562500", "215321.022500", "215321.482500", "215321.942500", "215322.402500", "215322.862500", "215323.322500", "215323.782500", "215324.242500", "215324.702500", "215325.162500", "215325.622500", "215326.082500", "215326.542500", "215327.002500", "215327.462500", "215327.922500", "215328.382500", "215328.842500", "215329.302500", "215329.762500", "215330.222500", "215330.682500", "215331.142500", "215331.602500", "215332.062500", "215332.522500", "215332.982500", "215333.442500", "215333.902500", "215334.362500", "215334.822500", "215335.282500", "215335.742500", "215336.202500", "215336.662500", "215337.122500", "215337.582500", "215338.042500", "215338.502500", "215338.962500", "215339.422500", "215339.882500", "215340.342500", "215340.802500", "215341.262500", "215341.722500", "215342.182500", "215342.642500", "215343.102500", "215343.562500", "215344.022500", "215344.482500", "215344.942500", "215345.402500", "215345.862500", "215346.322500", "215346.782500", "215347.242500", "215347.702500", "215348.162500", "215348.622500", "215349.082500", "215349.542500", "215350.002500", "215350.462500", "215350.922500", "215351.382500", "215351.842500", "215352.302500", "215352.762500", "215353.222500", "215353.682500", "215354.142500", "215354.602500", "215355.062500", "215355.522500", "215355.982500", "215356.442500", "215356.902500", "215357.362500", "215357.822500", "215358.282500", "215358.742500", "215359.202500", "215359.662500", "215400.122500", "215400.582500", "215401.042500", "215401.502500", "215401.962500", "215402.422500", "215402.882500", "215403.342500", "215403.802500", "215404.262500", "215404.722500", "215405.182500", "215405.642500", "215406.102500", "215406.562500", "215407.022500", "215407.482500", "215407.942500", "215408.402500", "215408.862500", "215409.322500", "215409.782500", "215410.242500", "215410.702500", "215411.162500", "215411.622500", "215412.082500", "215412.542500", "215413.002500", "215413.462500", "215413.922500", "215414.382500", "215414.842500", "215415.302500", "215415.762500", "215416.222500", "215416.682500", "215417.142500", "215417.602500", "215418.062500", "215418.522500", "215418.982500", "215419.442500", "215419.902500", "215420.362500", "215420.822500", "215421.282500", "215421.742500", "215422.202500", "215422.662500", "215423.122500", "215423.582500", "215424.042500", "215424.502500", "215424.962500", "215425.422500", "215425.882500", "215426.342500", "215426.802500", "215427.262500", "215427.722500", "215428.182500", "215428.642500", "215429.102500", "215429.562500", "215430.022500", "215430.482500", "215430.942500", "215431.402500", "215431.862500", "215432.322500", "215432.782500", "215433.242500", "215433.702500", "215434.162500", "215434.622500", "215435.082500", "215435.542500"],
