{
  "AcquisitionMatrixPE": 82,
  "AcquisitionNumber": 1,
  "AcquisitionTime": "22:16:52.822500",
  "BandwidthPerPixelPhaseEncode": 24.888,
  "BaseResolution": 82,
  "BodyPartExamined": "BRAIN",
  "ConsistencyInfo": "N4_VE11E_LATEST_20181129",
  "ConversionSoftware": "dcm2niix",
  "ConversionSoftwareVersion": "v1.0.20201102",
  "DerivedVendorReportedEchoSpacing": 0.00049,
  "DeviceSerialNumber": "66112",
  "DwellTime": 2e-06,
  "EchoTime": 0.0272,
  "EchoTrainLength": 82,
  "EffectiveEchoSpacing": 0.00049,
  "FlipAngle": 44,
  "ImageComments": "Unaliased MB8/PE3",
  "ImageOrientationPatientDICOM": [0.996543, -0.0436904, 0.0706698, 0.0405479, 0.99815, 0.0453069],
  "ImageType": [
    "ORIGINAL",
    "PRIMARY",
    "M",
    "MB",
    "ND",
    "NORM",
    "MOSAIC"
],
  "ImagingFrequency": 123.252,
  "InPlanePhaseEncodingDirectionDICOM": "COL",
  "InstitutionAddress": "Maynard 3,Hanover,NH,US,03755",
  "InstitutionName": "Dartmouth College - PBS",
  "InstitutionalDepartmentName": "Department",
  "MRAcquisitionType": "2D",
  "MagneticFieldStrength": 3,
  "Manufacturer": "Siemens",
  "ManufacturersModelName": "Prisma",
  "Modality": "MR",
  "MultibandAccelerationFactor": 8,
  "PartialFourier": 1,
  "PatientPosition": "HFS",
  "PercentPhaseFOV": 100,
  "PercentSampling": 100,
  "PhaseEncodingDirection": "j-",
  "PhaseEncodingSteps": 82,
  "PhaseResolution": 1,
  "PixelBandwidth": 3050,
  "ProcedureStepDescription": "Wager_Wager^1076_spacetop",
  "ProtocolName": "func_run-03_task-alignvideo_acq-ap-mb8",
  "PulseSequenceDetails": "%CustomerSeq%\\cmrr_mbep2d_bold",
  "ReceiveCoilActiveElements": "HEP",
  "ReceiveCoilName": "Head_32",
  "ReconMatrixPE": 82,
  "RepetitionTime": 0.46,
  "SAR": 0.0980772,
  "ScanOptions": "FS",
  "ScanningSequence": "EP",
  "SequenceName": "epfid2d1_82",
  "SequenceVariant": "SK\\SS",
  "SeriesDescription": "func_run-03_task-alignvideo_acq-ap-mb8",
  "SeriesNumber": 34,
  "ShimSetting": [4160, -7880, -7063, 969, -73, -189, 134, 58],
  "SliceThickness": 2.7,
  "SliceTiming": [0, 0.25, 0.0625, 0.3125, 0.125, 0.375, 0.1875, 0, 0.25, 0.0625, 0.3125, 0.125, 0.375, 0.1875, 0, 0.25, 0.0625, 0.3125, 0.125, 0.375, 0.1875, 0, 0.25, 0.0625, 0.3125, 0.125, 0.375, 0.1875, 0, 0.25, 0.0625, 0.3125, 0.125, 0.375, 0.1875, 0, 0.25, 0.0625, 0.3125, 0.125, 0.375, 0.1875, 0, 0.25, 0.0625, 0.3125, 0.125, 0.375, 0.1875, 0, 0.25, 0.0625, 0.3125, 0.125, 0.375, 0.1875],
  "SoftwareVersions": "syngo MR E11",
  "SpacingBetweenSlices": 2.7,
  "StationName": "AWP66112",
  "TaskName": "alignvideo",
  "TotalReadoutTime": 0.03969,
  "TxRefAmp": 232.014,
  "WipMemBlock": "3bec613a-6597-4f15-bdbf-cea6988d08b5||Sequence: R016 ve11e/master r/434b28f1; Aug  7 2019 18:53:46 by eja",
  "dcmmeta_affine": [
    [-2.6736507415771484, 0.10878702998161316, 0.19580012559890747, 100.83346557617188],
    [0.11721803992986679, 2.6779630184173584, 0.11416871845722198, -109.09630584716797],
    [0.18960201740264893, -0.12155502289533615, 2.690469741821289, -49.496788024902344],
    [0.0, 0.0, 0.0, 1.0]
],
  "dcmmeta_reorient_transform": [
    [0.0, -1.0, 0.0, 81.0],
    [1.0, 0.0, 0.0, 0.0],
    [0.0, 0.0, 1.0, 0.0],
    [0.0, 0.0, 0.0, 1.0]
],
  "dcmmeta_shape": [82, 82, 56, 1016],
  "dcmmeta_slice_dim": 2,
  "dcmmeta_version": 0.6,
  "global": {
    "const": {
      "AccessionNumber": "A004059",
      "AcquisitionMatrix": [82, 0, 0, 82],
      "AngioFlag": "N",
      "BitsAllocated": 16,
      "BitsStored": 16,
      "BodyPartExamined": "BRAIN",
      "Columns": 656,
      "EchoNumbers": 1,
      "EchoTime": 27.2,
      "EchoTrainLength": 82,
      "FlipAngle": 44.0,
      "HighBit": 15,
      "ImageOrientationPatient": [0.99654248586827, -0.0436903590182, 0.07066984072686, 0.04054789151586, 0.9981498664357, 0.04530687175277],
      "ImagePositionPatient": [-908.2048261883, -842.75254564662, -148.64481749031],
      "ImageType": [
        "ORIGINAL",
        "PRIMARY",
        "M",
        "MB",
        "ND",
        "NORM",
        "MOSAIC"
],
      "ImagedNucleus": "1H",
      "ImagingFrequency": 123.252165,
      "InPlanePhaseEncodingDirection": "COL",
      "MRAcquisitionType": "2D",
      "MagneticFieldStrength": 3.0,
      "Manufacturer": "SIEMENS",
      "ManufacturerModelName": "Prisma",
      "Modality": "MR",
      "NumberOfAverages": 1.0,
      "NumberOfPhaseEncodingSteps": 82,
      "PercentPhaseFieldOfView": 100.0,
      "PercentSampling": 100.0,
      "PerformedProcedureStepStartTime": "205320.988000",
      "PhotometricInterpretation": "MONOCHROME2",
      "PixelBandwidth": 3050.0,
      "PixelRepresentation": 0,
      "PixelSpacing": [2.6829268932343, 2.6829268932343],
      "ProtocolName": "func_run-03_task-alignvideo_acq-ap-mb8",
      "RepetitionTime": 460.0,
      "Rows": 656,
      "SAR": 0.09807720023072,
      "SamplesPerPixel": 1,
      "ScanOptions": "FS",
      "ScanningSequence": "EP",
      "SequenceName": "epfid2d1_82",
      "SequenceVariant": [
        "SK",
        "SS"
],
      "SeriesDescription": "func_run-03_task-alignvideo_acq-ap-mb8",
      "SeriesNumber": 34,
      "SeriesTime": "221704.782000",
      "SliceLocation": -46.62288816786,
      "SliceThickness": 2.7000000476837,
      "SmallestImagePixelValue": 0,
      "SoftwareVersions": "syngo MR E11",
      "SpacingBetweenSlices": 2.7000000321285,
      "SpecificCharacterSet": "ISO_IR 100",
      "StudyID": "1",
      "StudyTime": "205320.928000",
      "TransmitCoilName": "Body",
      "VariableFlipAngleFlag": "N",
      "WindowCenterWidthExplanation": "Algo1"
    },
    "slices": {}
  },
  "time": {
    "samples": {
      "AcquisitionNumber": [1, 2, 3, 4, 5, 6, 7, 8, 9, 10, 11, 12, 13, 14, 15, 16, 17, 18, 19, 20, 21, 22, 23, 24, 25, 26, 27, 28, 29, 30, 31, 32, 33, 34, 35, 36, 37, 38, 39, 40, 41, 42, 43, 44, 45, 46, 47, 48, 49, 50, 51, 52, 53, 54, 55, 56, 57, 58, 59, 60, 61, 62, 63, 64, 65, 66, 67, 68, 69, 70, 71, 72, 73, 74, 75, 76, 77, 78, 79, 80, 81, 82, 83, 84, 85, 86, 87, 88, 89, 90, 91, 92, 93, 94, 95, 96, 97, 98, 99, 100, 101, 102, 103, 104, 105, 106, 107, 108, 109, 110, 111, 112, 113, 114, 115, 116, 117, 118, 119, 120, 121, 122, 123, 124, 125, 126, 127, 128, 129, 130, 131, 132, 133, 134, 135, 136, 137, 138, 139, 140, 141, 142, 143, 144, 145, 146, 147, 148, 149, 150, 151, 152, 153, 154, 155, 156, 157, 158, 159, 160, 161, 162, 163, 164, 165, 166, 167, 168, 169, 170, 171, 172, 173, 174, 175, 176, 177, 178, 179, 180, 181, 182, 183, 184, 185, 186, 187, 188, 189, 190, 191, 192, 193, 194, 195, 196, 197, 198, 199, 200, 201, 202, 203, 204, 205, 206, 207, 208, 209, 210, 211, 212, 213, 214, 215, 216, 217, 218, 219, 220, 221, 222, 223, 224, 225, 226, 227, 228, 229, 230, 231, 232, 233, 234, 235, 236, 237, 238, 239, 240, 241, 242, 243, 244, 245, 246, 247, 248, 249, 250, 251, 252, 253, 254, 255, 256, 257, 258, 259, 260, 261, 262, 263, 264, 265, 266, 267, 268, 269, 270, 271, 272, 273, 274, 275, 276, 277, 278, 279, 280, 281, 282, 283, 284, 285, 286, 287, 288, 289, 290, 291, 292, 293, 294, 295, 296, 297, 298, 299, 300, 301, 302, 303, 304, 305, 306, 307, 308, 309, 310, 311, 312, 313, 314, 315, 316, 317, 318, 319, 320, 321, 322, 323, 324, 325, 326, 327, 328, 329, 330, 331, 332, 333, 334, 335, 336, 337, 338, 339, 340, 341, 342, 343, 344, 345, 346, 347, 348, 349, 350, 351, 352, 353, 354, 355, 356, 357, 358, 359, 360, 361, 362, 363, 364, 365, 366, 367, 368, 369, 370, 371, 372, 373, 374, 375, 376, 377, 378, 379, 380, 381, 382, 383, 384, 385, 386, 387, 388, 389, 390, 391, 392, 393, 394, 395, 396, 397, 398, 399, 400, 401, 402, 403, 404, 405, 406, 407, 408, 409, 410, 411, 412, 413, 414, 415, 416, 417, 418, 419, 420, 421, 422, 423, 424, 425, 426, 427, 428, 429, 430, 431, 432, 433, 434, 435, 436, 437, 438, 439, 440, 441, 442, 443, 444, 445, 446, 447, 448, 449, 450, 451, 452, 453, 454, 455, 456, 457, 458, 459, 460, 461, 462, 463, 464, 465, 466, 467, 468, 469, 470, 471, 472, 473, 474, 475, 476, 477, 478, 479, 480, 481, 482, 483, 484, 485, 486, 487, 488, 489, 490, 491, 492, 493, 494, 495, 496, 497, 498, 499, 500, 501, 502, 503, 504, 505, 506, 507, 508, 509, 510, 511, 512, 513, 514, 515, 516, 517, 518, 519, 520, 521, 522, 523, 524, 525, 526, 527, 528, 529, 530, 531, 532, 533, 534, 535, 536, 537, 538, 539, 540, 541, 542, 543, 544, 545, 546, 547, 548, 549, 550, 551, 552, 553, 554, 555, 556, 557, 558, 559, 560, 561, 562, 563, 564, 565, 566, 567, 568, 569, 570, 571, 572, 573, 574, 575, 576, 577, 578, 579, 580, 581, 582, 583, 584, 585, 586, 587, 588, 589, 590, 591, 592, 593, 594, 595, 596, 597, 598, 599, 600, 601, 602, 603, 604, 605, 606, 607, 608, 609, 610, 611, 612, 613, 614, 615, 616, 617, 618, 619, 620, 621, 622, 623, 624, 625, 626, 627, 628, 629, 630, 631, 632, 633, 634, 635, 636, 637, 638, 639, 640, 641, 642, 643, 644, 645, 646, 647, 648, 649, 650, 651, 652, 653, 654, 655, 656, 657, 658, 659, 660, 661, 662, 663, 664, 665, 666, 667, 668, 669, 670, 671, 672, 673, 674, 675, 676, 677, 678, 679, 680, 681, 682, 683, 684, 685, 686, 687, 688, 689, 690, 691, 692, 693, 694, 695, 696, 697, 698, 699, 700, 701, 702, 703, 704, 705, 706, 707, 708, 709, 710, 711, 712, 713, 714, 715, 716, 717, 718, 719, 720, 721, 722, 723, 724, 725, 726, 727, 728, 729, 730, 731, 732, 733, 734, 735, 736, 737, 738, 739, 740, 741, 742, 743, 744, 745, 746, 747, 748, 749, 750, 751, 752, 753, 754, 755, 756, 757, 758, 759, 760, 761, 762, 763, 764, 765, 766, 767, 768, 769, 770, 771, 772, 773, 774, 775, 776, 777, 778, 779, 780, 781, 782, 783, 784, 785, 786, 787, 788, 789, 790, 791, 792, 793, 794, 795, 796, 797, 798, 799, 800, 801, 802, 803, 804, 805, 806, 807, 808, 809, 810, 811, 812, 813, 814, 815, 816, 817, 818, 819, 820, 821, 822, 823, 824, 825, 826, 827, 828, 829, 830, 831, 832, 833, 834, 835, 836, 837, 838, 839, 840, 841, 842, 843, 844, 845, 846, 847, 848, 849, 850, 851, 852, 853, 854, 855, 856, 857, 858, 859, 860, 861, 862, 863, 864, 865, 866, 867, 868, 869, 870, 871, 872, 873, 874, 875, 876, 877, 878, 879, 880, 881, 882, 883, 884, 885, 886, 887, 888, 889, 890, 891, 892, 893, 894, 895, 896, 897, 898, 899, 900, 901, 902, 903, 904, 905, 906, 907, 908, 909, 910, 911, 912, 913, 914, 915, 916, 917, 918, 919, 920, 921, 922, 923, 924, 925, 926, 927, 928, 929, 930, 931, 932, 933, 934, 935, 936, 937, 938, 939, 940, 941, 942, 943, 944, 945, 946, 947, 948, 949, 950, 951, 952, 953, 954, 955, 956, 957, 958, 959, 960, 961, 962, 963, 964, 965, 966, 967, 968, 969, 970, 971, 972, 973, 974, 975, 976, 977, 978, 979, 980, 981, 982, 983, 984, 985, 986, 987, 988, 989, 990, 991, 992, 993, 994, 995, 996, 997, 998, 999, 1000, 1001, 1002, 1003, 1004, 1005, 1006, 1007, 1008, 1009, 1010, 1011, 1012, 1013, 1014, 1015, 1016],
      "AcquisitionTime": ["221652.822500", "221653.282500", "221653.742500", "221654.202500", "221654.662500", "221655.122500", "221655.582500", "221656.042500", "221656.502500", "221656.962500", "221657.422500", "221657.882500", "221658.342500", "221658.802500", "221659.262500", "221659.722500", "221700.182500", "221700.642500", "221701.102500", "221701.562500", "221702.022500", "221702.482500", "221702.942500", "221703.402500", "221703.862500", "221704.322500", "221704.782500", "221705.242500", "221705.702500", "221706.162500", "221706.622500", "221707.082500", "221707.542500", "221708.002500", "221708.462500", "221708.922500", "221709.382500", "221709.842500", "221710.302500", "221710.762500", "221711.222500", "221711.682500", "221712.142500", "221712.602500", "221713.062500", "221713.522500", "221713.982500", "221714.442500", "221714.902500", "221715.362500", "221715.822500", "221716.282500", "221716.742500", "221717.202500", "221717.662500", "221718.122500", "221718.582500", "221719.042500", "221719.502500", "221719.962500", "221720.422500", "221720.882500", "221721.342500", "221721.802500", "221722.262500", "221722.722500", "221723.182500", "221723.642500", "221724.102500", "221724.562500", "221725.022500", "221725.482500", "221725.942500", "221726.402500", "221726.862500", "221727.322500", "221727.782500", "221728.242500", "221728.702500", "221729.162500", "221729.622500", "221730.082500", "221730.542500", "221731.002500", "221731.462500", "221731.922500", "221732.382500", "221732.842500", "221733.302500", "221733.762500", "221734.222500", "221734.682500", "221735.142500", "221735.602500", "221736.062500", "221736.522500", "221736.982500", "221737.442500", "221737.902500", "221738.362500", "221738.822500", "221739.282500", "221739.742500", "221740.202500", "221740.662500", "221741.122500", "221741.582500", "221742.042500", "221742.502500", "221742.962500", "221743.422500", "221743.882500", "221744.342500", "221744.802500", "221745.262500", "221745.722500", "221746.182500", "221746.642500", "221747.102500", "221747.562500", "221748.022500", "221748.482500", "221748.942500", "221749.402500", "221749.862500", "221750.322500", "221750.782500", "221751.242500", "221751.702500", "221752.162500", "221752.622500", "221753.082500", "221753.542500", "221754.002500", "221754.462500", "221754.922500", "221755.382500", "221755.842500", "221756.302500", "221756.762500", "221757.222500", "221757.682500", "221758.142500", "221758.602500", "221759.062500", "221759.522500", "221759.982500", "221800.442500", "221800.902500", "221801.362500", "221801.822500", "221802.282500", "221802.742500", "221803.202500", "221803.662500", "221804.122500", "221804.582500", "221805.042500", "221805.502500", "221805.962500", "221806.422500", "221806.882500", "221807.342500", "221807.802500", "221808.262500", "221808.722500", "221809.182500", "221809.642500", "221810.102500", "221810.562500", "221811.022500", "221811.482500", "221811.942500", "221812.402500", "221812.862500", "221813.322500", "221813.782500", "221814.242500", "221814.702500", "221815.162500", "221815.622500", "221816.082500", "221816.542500", "221817.002500", "221817.462500", "221817.922500", "221818.382500", "221818.842500", "221819.302500", "221819.762500", "221820.222500", "221820.682500", "221821.142500", "221821.602500", "221822.062500", "221822.522500", "221822.982500", "221823.442500", "221823.902500", "221824.362500", "221824.822500", "221825.282500", "221825.742500", "221826.202500", "221826.662500", "221827.122500", "221827.582500", "221828.042500", "221828.502500", "221828.962500", "221829.422500", "221829.882500", "221830.342500", "221830.802500", "221831.262500", "221831.722500", "221832.182500", "221832.642500", "221833.102500", "221833.562500", "221834.022500", "221834.482500", "221834.942500", "221835.402500", "221835.862500", "221836.322500", "221836.782500", "221837.242500", "221837.702500", "221838.162500", "221838.622500", "221839.082500", "221839.542500", "221840.002500", "221840.462500", "221840.922500", "221841.382500", "221841.842500", "221842.302500", "221842.762500", "221843.222500", "221843.682500", "221844.142500", "221844.602500", "221845.062500", "221845.522500", "221845.982500", "221846.442500", "221846.902500", "221847.362500", "221847.822500", "221848.282500", "221848.742500", "221849.202500", "221849.662500", "221850.122500", "221850.582500", "221851.042500", "221851.502500", "221851.962500", "221852.422500", "221852.882500", "221853.342500", "221853.802500", "221854.262500", "221854.722500", "221855.182500", "221855.642500", "221856.102500", "221856.562500", "221857.022500", "221857.482500", "221857.942500", "221858.402500", "221858.862500", "221859.322500", "221859.782500", "221900.242500", "221900.702500", "221901.162500", "221901.622500", "221902.082500", "221902.542500", "221903.002500", "221903.462500", "221903.922500", "221904.382500", "221904.842500", "221905.302500", "221905.762500", "221906.222500", "221906.682500", "221907.142500", "221907.602500", "221908.062500", "221908.522500", "221908.982500", "221909.442500", "221909.902500", "221910.362500", "221910.822500", "221911.282500", "221911.742500", "221912.202500", "221912.662500", "221913.122500", "221913.582500", "221914.042500", "221914.502500", "221914.962500", "221915.422500", "221915.882500", "221916.342500", "221916.802500", "221917.262500", "221917.722500", "221918.182500", "221918.642500", "221919.102500", "221919.562500", "221920.022500", "221920.482500", "221920.942500", "221921.402500", "221921.862500", "221922.322500", "221922.782500", "221923.242500", "221923.702500", "221924.162500", "221924.622500", "221925.082500", "221925.542500", "221926.002500", "221926.462500", "221926.922500", "221927.382500", "221927.842500", "221928.302500", "221928.762500", "221929.222500", "221929.682500", "221930.142500", "221930.602500", "221931.062500", "221931.522500", "221931.982500", "221932.442500", "221932.902500", "221933.362500", "221933.822500", "221934.282500", "221934.742500", "221935.202500", "221935.662500", "221936.122500", "221936.582500", "221937.042500", "221937.502500", "221937.962500", "221938.422500", "221938.882500", "221939.342500", "221939.802500", "221940.262500", "221940.722500", "221941.182500", "221941.642500", "221942.102500", "221942.562500", "221943.022500", "221943.482500", "221943.942500", "221944.402500", "221944.862500", "221945.322500", "221945.782500", "221946.242500", "221946.702500", "221947.162500", "221947.622500", "221948.082500", "221948.542500", "221949.002500", "221949.462500", "221949.922500", "221950.382500", "221950.842500", "221951.302500", "221951.762500", "221952.222500", "221952.682500", "221953.142500", "221953.602500", "221954.062500", "221954.522500", "221954.982500", "221955.442500", "221955.902500", "221956.362500", "221956.822500", "221957.282500", "221957.742500", "221958.202500", "221958.662500", "221959.122500", "221959.582500", "222000.042500", "222000.502500", "222000.962500", "222001.422500", "222001.882500", "222002.342500", "222002.802500", "222003.262500", "222003.722500", "222004.182500", "222004.642500", "222005.102500", "222005.562500", "222006.022500", "222006.482500", "222006.942500", "222007.402500", "222007.862500", "222008.322500", "222008.782500", "222009.242500", "222009.702500", "222010.162500", "222010.622500", "222011.082500", "222011.542500", "222012.002500", "222012.462500", "222012.922500", "222013.382500", "222013.842500", "222014.302500", "222014.762500", "222015.222500", "222015.682500", "222016.142500", "222016.602500", "222017.062500", "222017.522500", "222017.982500", "222018.442500", "222018.902500", "222019.362500", "222019.822500", "222020.282500", "222020.742500", "222021.202500", "222021.662500", "222022.122500", "222022.582500", "222023.042500", "222023.502500", "222023.962500", "222024.422500", "222024.882500", "222025.342500", "222025.802500", "222026.262500", "222026.722500", "222027.182500", "222027.642500", "222028.102500", "222028.562500", "222029.022500", "222029.482500", "222029.942500", "222030.402500", "222030.862500", "222031.322500", "222031.782500", "222032.242500", "222032.702500", "222033.162500", "222033.622500", "222034.082500", "222034.542500", "222035.002500", "222035.462500", "222035.922500", "222036.382500", "222036.842500", "222037.302500", "222037.762500", "222038.222500", "222038.682500", "222039.142500", "222039.602500", "222040.062500", "222040.522500", "222040.982500", "222041.442500", "222041.902500", "222042.362500", "222042.822500", "222043.282500", "222043.742500", "222044.202500", "222044.662500", "222045.122500", "222045.582500", "222046.042500", "222046.502500", "222046.962500", "222047.422500", "222047.882500", "222048.342500", "222048.802500", "222049.262500", "222049.722500", "222050.182500", "222050.642500", "222051.102500", "222051.562500", "222052.022500", "222052.482500", "222052.942500", "222053.402500", "222053.862500", "222054.322500", "222054.782500", "222055.242500", "222055.702500", "222056.162500", "222056.622500", "222057.082500", "222057.542500", "222058.002500", "222058.462500", "222058.922500", "222059.382500", "222059.842500", "222100.302500", "222100.762500", "222101.222500", "222101.682500", "222102.142500", "222102.602500", "222103.062500", "222103.522500", "222103.982500", "222104.442500", "222104.902500", "222105.362500", "222105.822500", "222106.282500", "222106.742500", "222107.202500", "222107.662500", "222108.122500", "222108.582500", "222109.042500", "222109.502500", "222109.962500", "222110.422500", "222110.882500", "222111.342500", "222111.802500", "222112.262500", "222112.722500", "222113.182500", "222113.642500", "222114.102500", "222114.562500", "222115.022500", "222115.482500", "222115.942500", "222116.402500", "222116.862500", "222117.322500", "222117.782500", "222118.242500", "222118.702500", "222119.162500", "222119.622500", "222120.082500", "222120.542500", "222121.002500", "222121.462500", "222121.922500", "222122.382500", "222122.842500", "222123.302500", "222123.762500", "222124.222500", "222124.682500", "222125.142500", "222125.602500", "222126.062500", "222126.522500", "222126.982500", "222127.442500", "222127.902500", "222128.362500", "222128.822500", "222129.282500", "222129.742500", "222130.202500", "222130.662500", "222131.122500", "222131.582500", "222132.042500", "222132.502500", "222132.962500", "222133.422500", "222133.882500", "222134.342500", "222134.802500", "222135.262500", "222135.722500", "222136.182500", "222136.642500", "222137.102500", "222137.562500", "222138.022500", "222138.482500", "222138.942500", "222139.402500", "222139.862500", "222140.322500", "222140.782500", "222141.242500", "222141.702500", "222142.162500", "222142.622500", "222143.082500", "222143.542500", "222144.002500", "222144.462500", "222144.922500", "222145.382500", "222145.842500", "222146.302500", "222146.762500", "222147.222500", "222147.682500", "222148.142500", "222148.602500", "222149.062500", "222149.522500", "222149.982500", "222150.442500", "222150.902500", "222151.362500", "222151.822500", "222152.282500", "222152.742500", "222153.202500", "222153.662500", "222154.122500", "222154.582500", "222155.042500", "222155.502500", "222155.962500", "222156.422500", "222156.882500", "222157.342500", "222157.802500", "222158.262500", "222158.722500", "222159.182500", "222159.642500", "222200.102500", "222200.562500", "222201.022500", "222201.482500", "222201.942500", "222202.402500", "222202.862500", "222203.322500", "222203.782500", "222204.242500", "222204.702500", "222205.162500", "222205.622500", "222206.082500", "222206.542500", "222207.002500", "222207.462500", "222207.922500", "222208.382500", "222208.842500", "222209.302500", "222209.762500", "222210.222500", "222210.682500", "222211.142500", "222211.602500", "222212.062500", "222212.522500", "222212.982500", "222213.442500", "222213.902500", "222214.362500", "222214.822500", "222215.282500", "222215.742500", "222216.202500", "222216.662500", "222217.122500", "222217.582500", "222218.042500", "222218.502500", "222218.962500", "222219.422500", "222219.882500", "222220.342500", "222220.802500", "222221.262500", "222221.722500", "222222.182500", "222222.642500", "222223.102500", "222223.562500", "222224.022500", "222224.482500", "222224.942500", "222225.402500", "222225.862500", "222226.322500", "222226.782500", "222227.242500", "222227.702500", "222228.162500", "222228.622500", "222229.082500", "222229.542500", "222230.002500", "222230.462500", "222230.922500", "222231.382500", "222231.842500", "222232.302500", "222232.762500", "222233.222500", "222233.682500", "222234.142500", "222234.602500", "222235.062500", "222235.522500", "222235.982500", "222236.442500", "222236.902500", "222237.362500", "222237.822500", "222238.282500", "222238.742500", "222239.202500", "222239.662500", "222240.122500", "222240.582500", "222241.042500", "222241.502500", "222241.962500", "222242.422500", "222242.882500", "222243.342500", "222243.802500", "222244.262500", "222244.722500", "222245.182500", "222245.642500", "222246.102500", "222246.562500", "222247.022500", "222247.482500", "222247.942500", "222248.402500", "222248.862500", "222249.322500", "222249.782500", "222250.242500", "222250.702500", "222251.162500", "222251.622500", "222252.082500", "222252.542500", "222253.002500", "222253.462500", "222253.922500", "222254.382500", "222254.842500", "222255.302500", "222255.762500", "222256.222500", "222256.682500", "222257.142500", "222257.602500", "222258.062500", "222258.522500", "222258.982500", "222259.442500", "222259.902500", "222300.362500", "222300.822500", "222301.282500", "222301.742500", "222302.202500", "222302.662500", "222303.122500", "222303.582500", "222304.042500", "222304.502500", "222304.962500", "222305.422500", "222305.882500", "222306.342500", "222306.802500", "222307.262500", "222307.722500", "222308.182500", "222308.642500", "222309.102500", "222309.562500", "222310.022500", "222310.482500", "222310.942500", "222311.402500", "222311.862500", "222312.322500", "222312.782500", "222313.242500", "222313.702500", "222314.162500", "222314.622500", "222315.082500", "222315.542500", "222316.002500", "222316.462500", "222316.922500", "222317.382500", "222317.842500", "222318.302500", "222318.762500", "222319.222500", "222319.682500", "222320.142500", "222320.602500", "222321.062500", "222321.522500", "222321.982500", "222322.442500", "222322.902500", "222323.362500", "222323.822500", "222324.282500", "222324.742500", "222325.202500", "222325.662500", "222326.122500", "222326.582500", "222327.042500", "222327.502500", "222327.962500", "222328.422500", "222328.882500", "222329.342500", "222329.802500", "222330.262500", "222330.722500", "222331.182500", "222331.642500", "222332.102500", "222332.562500", "222333.022500", "222333.482500", "222333.942500", "222334.402500", "222334.862500", "222335.322500", "222335.782500", "222336.242500", "222336.702500", "222337.162500", "222337.622500", "222338.082500", "222338.542500", "222339.002500", "222339.462500", "222339.922500", "222340.382500", "222340.842500", "222341.302500", "222341.762500", "222342.222500", "222342.682500", "222343.142500", "222343.602500", "222344.062500", "222344.522500", "222344.982500", "222345.442500", "222345.902500", "222346.362500", "222346.822500", "222347.282500", "222347.742500", "222348.202500", "222348.662500", "222349.122500", "222349.582500", "222350.042500", "222350.502500", "222350.962500", "222351.422500", "222351.882500", "222352.342500", "222352.802500", "222353.262500", "222353.722500", "222354.182500", "222354.642500", "222355.102500", "222355.562500", "222356.022500", "222356.482500", "222356.942500", "222357.402500", "222357.862500", "222358.322500", "222358.782500", "222359.242500", "222359.702500", "222400.162500", "222400.622500", "222401.082500", "222401.542500", "222402.002500", "222402.462500", "222402.922500", "222403.382500", "222403.842500", "222404.302500", "222404.762500", "222405.222500", "222405.682500", "222406.142500", "222406.602500", "222407.062500", "222407.522500", "222407.982500", "222408.442500", "222408.902500", "222409.362500", "222409.822500", "222410.282500", "222410.742500", "222411.202500", "222411.662500", "222412.122500", "222412.582500", "222413.042500", "222413.502500", "222413.962500", "222414.422500", "222414.882500", "222415.342500", "222415.802500", "222416.262500", "222416.722500", "222417.182500", "222417.642500", "222418.102500", "222418.562500", "222419.022500", "222419.482500", "222419.942500", "222420.402500", "222420.862500", "222421.322500", "222421.782500", "222422.242500", "222422.702500", "222423.162500", "222423.622500", "222424.082500", "222424.542500", "222425.002500", "222425.462500", "222425.922500", "222426.382500", "222426.842500", "222427.302500", "222427.762500", "222428.222500", "222428.682500", "222429.142500", "222429.602500", "222430.062500", "222430.522500", "222430.982500", "222431.442500", "222431.902500", "222432.362500", "222432.822500", "222433.282500", "222433.742500", "222434.202500", "222434.662500", "222435.122500", "222435.582500", "222436.042500", "222436.502500", "222436.962500", "222437.422500", "222437.882500", "222438.342500", "222438.802500", "222439.262500", "222439.722500"],
