{
  "AcquisitionMatrixPE": 82,
  "AcquisitionNumber": 1,
  "AcquisitionTime": "21:40:24.050000",
  "BandwidthPerPixelPhaseEncode": 24.888,
  "BaseResolution": 82,
  "BodyPartExamined": "BRAIN",
  "ConsistencyInfo": "N4_VE11E_LATEST_20181129",
  "ConversionSoftware": "dcm2niix",
  "ConversionSoftwareVersion": "v1.0.20201102",
  "DerivedVendorReportedEchoSpacing": 0.00049,
  "DeviceSerialNumber": "66112",
  "DwellTime": 2e-06,
  "EchoTime": 0.0272,
  "EchoTrainLength": 82,
  "EffectiveEchoSpacing": 0.00049,
  "FlipAngle": 44,
  "ImageComments": "Unaliased MB8/PE3",
  "ImageOrientationPatientDICOM": [0.995346, -0.0729386, 0.0629848, 0.0696013, 0.996131, 0.053649],
  "ImageType": [
    "ORIGINAL",
    "PRIMARY",
    "M",
    "MB",
    "ND",
    "NORM",
    "MOSAIC"
],
  "ImagingFrequency": 123.252,
  "InPlanePhaseEncodingDirectionDICOM": "COL",
  "InstitutionAddress": "Maynard 3,Hanover,NH,US,03755",
  "InstitutionName": "Dartmouth College - PBS",
  "InstitutionalDepartmentName": "Department",
  "MRAcquisitionType": "2D",
  "MagneticFieldStrength": 3,
  "Manufacturer": "Siemens",
  "ManufacturersModelName": "Prisma",
  "Modality": "MR",
  "MultibandAccelerationFactor": 8,
  "PartialFourier": 1,
  "PatientPosition": "HFS",
  "PercentPhaseFOV": 100,
  "PercentSampling": 100,
  "PhaseEncodingDirection": "j-",
  "PhaseEncodingSteps": 82,
  "PhaseResolution": 1,
  "PixelBandwidth": 3050,
  "ProcedureStepDescription": "Wager_Wager^1076_spacetop",
  "ProtocolName": "func_run-05_task-social_acq-ap-mb8",
  "PulseSequenceDetails": "%CustomerSeq%\\cmrr_mbep2d_bold",
  "ReceiveCoilActiveElements": "HEP",
  "ReceiveCoilName": "Head_32",
  "ReconMatrixPE": 82,
  "RepetitionTime": 0.46,
  "SAR": 0.0979908,
  "ScanOptions": "FS",
  "ScanningSequence": "EP",
  "SequenceName": "epfid2d1_82",
  "SequenceVariant": "SK\\SS",
  "SeriesDescription": "func_run-05_task-social_acq-ap-mb8",
  "SeriesNumber": 20,
  "ShimSetting": [4160, -7880, -7064, 967, -72, -190, 134, 57],
  "SliceThickness": 2.7,
  "SliceTiming": [0, 0.25, 0.0625, 0.315, 0.125, 0.3775, 0.1875, 0, 0.25, 0.0625, 0.315, 0.125, 0.3775, 0.1875, 0, 0.25, 0.0625, 0.315, 0.125, 0.3775, 0.1875, 0, 0.25, 0.0625, 0.315, 0.125, 0.3775, 0.1875, 0, 0.25, 0.0625, 0.315, 0.125, 0.3775, 0.1875, 0, 0.25, 0.0625, 0.315, 0.125, 0.3775, 0.1875, 0, 0.25, 0.0625, 0.315, 0.125, 0.3775, 0.1875, 0, 0.25, 0.0625, 0.315, 0.125, 0.3775, 0.1875],
  "SoftwareVersions": "syngo MR E11",
  "SpacingBetweenSlices": 2.7,
  "StationName": "AWP66112",
  "TaskName": "social",
  "TotalReadoutTime": 0.03969,
  "TxRefAmp": 232.014,
  "WipMemBlock": "465066c7-5bff-4ec3-b42a-bc88ff9b71eb||Sequence: R016 ve11e/master r/434b28f1; Aug  7 2019 18:53:46 by eja",
  "dcmmeta_affine": [
    [-2.6704394817352295, 0.18673528730869293, 0.17996643483638763, 98.57020568847656],
    [0.19568902254104614, 2.6725473403930664, 0.132341668009758, -112.8686752319336],
    [0.16898368299007416, -0.14393624663352966, 2.6907429695129395, -48.36130142211914],
    [0.0, 0.0, 0.0, 1.0]
],
  "dcmmeta_reorient_transform": [
    [0.0, -1.0, 0.0, 81.0],
    [1.0, 0.0, 0.0, 0.0],
    [0.0, 0.0, 1.0, 0.0],
    [0.0, 0.0, 0.0, 1.0]
],
  "dcmmeta_shape": [82, 82, 56, 872],
  "dcmmeta_slice_dim": 2,
  "dcmmeta_version": 0.6,
  "global": {
    "const": {
      "AccessionNumber": "A004059",
      "AcquisitionMatrix": [82, 0, 0, 82],
      "AngioFlag": "N",
      "BitsAllocated": 16,
      "BitsStored": 16,
      "BodyPartExamined": "BRAIN",
      "Columns": 656,
      "EchoNumbers": 1,
      "EchoTime": 27.2,
      "EchoTrainLength": 82,
      "FlipAngle": 44.0,
      "HighBit": 15,
      "ImageOrientationPatient": [0.99534560187138, -0.0729386340043, 0.06298482757675, 0.06960133333994, 0.99613123786307, 0.05364896411566],
      "ImagePositionPatient": [-933.70492602409, -814.46597710605, -149.8281611945],
      "ImageType": [
        "ORIGINAL",
        "PRIMARY",
        "M",
        "MB",
        "ND",
        "NORM",
        "MOSAIC"
],
      "ImagedNucleus": "1H",
      "ImagingFrequency": 123.252161,
      "InPlanePhaseEncodingDirection": "COL",
      "MRAcquisitionType": "2D",
      "MagneticFieldStrength": 3.0,
      "Manufacturer": "SIEMENS",
      "ManufacturerModelName": "Prisma",
      "Modality": "MR",
      "NumberOfAverages": 1.0,
      "NumberOfPhaseEncodingSteps": 82,
      "PercentPhaseFieldOfView": 100.0,
      "PercentSampling": 100.0,
      "PerformedProcedureStepStartTime": "205320.988000",
      "PhotometricInterpretation": "MONOCHROME2",
      "PixelBandwidth": 3050.0,
      "PixelRepresentation": 0,
      "PixelSpacing": [2.6829268932343, 2.6829268932343],
      "ProtocolName": "func_run-05_task-social_acq-ap-mb8",
      "RepetitionTime": 460.0,
      "Rows": 656,
      "SAR": 0.09799079902405,
      "SamplesPerPixel": 1,
      "ScanOptions": "FS",
      "ScanningSequence": "EP",
      "SequenceName": "epfid2d1_82",
      "SequenceVariant": [
        "SK",
        "SS"
],
      "SeriesDescription": "func_run-05_task-social_acq-ap-mb8",
      "SeriesNumber": 20,
      "SeriesTime": "214044.679000",
      "SliceLocation": -47.157680241921,
      "SliceThickness": 2.7000000476837,
      "SmallestImagePixelValue": 0,
      "SoftwareVersions": "syngo MR E11",
      "SpacingBetweenSlices": 2.6999999331052,
      "SpecificCharacterSet": "ISO_IR 100",
      "StudyID": "1",
      "StudyTime": "205320.928000",
      "TransmitCoilName": "Body",
      "VariableFlipAngleFlag": "N",
      "WindowCenterWidthExplanation": "Algo1"
    },
    "slices": {}
  },
  "time": {
    "samples": {
      "AcquisitionNumber": [1, 2, 3, 4, 5, 6, 7, 8, 9, 10, 11, 12, 13, 14, 15, 16, 17, 18, 19, 20, 21, 22, 23, 24, 25, 26, 27, 28, 29, 30, 31, 32, 33, 34, 35, 36, 37, 38, 39, 40, 41, 42, 43, 44, 45, 46, 47, 48, 49, 50, 51, 52, 53, 54, 55, 56, 57, 58, 59, 60, 61, 62, 63, 64, 65, 66, 67, 68, 69, 70, 71, 72, 73, 74, 75, 76, 77, 78, 79, 80, 81, 82, 83, 84, 85, 86, 87, 88, 89, 90, 91, 92, 93, 94, 95, 96, 97, 98, 99, 100, 101, 102, 103, 104, 105, 106, 107, 108, 109, 110, 111, 112, 113, 114, 115, 116, 117, 118, 119, 120, 121, 122, 123, 124, 125, 126, 127, 128, 129, 130, 131, 132, 133, 134, 135, 136, 137, 138, 139, 140, 141, 142, 143, 144, 145, 146, 147, 148, 149, 150, 151, 152, 153, 154, 155, 156, 157, 158, 159, 160, 161, 162, 163, 164, 165, 166, 167, 168, 169, 170, 171, 172, 173, 174, 175, 176, 177, 178, 179, 180, 181, 182, 183, 184, 185, 186, 187, 188, 189, 190, 191, 192, 193, 194, 195, 196, 197, 198, 199, 200, 201, 202, 203, 204, 205, 206, 207, 208, 209, 210, 211, 212, 213, 214, 215, 216, 217, 218, 219, 220, 221, 222, 223, 224, 225, 226, 227, 228, 229, 230, 231, 232, 233, 234, 235, 236, 237, 238, 239, 240, 241, 242, 243, 244, 245, 246, 247, 248, 249, 250, 251, 252, 253, 254, 255, 256, 257, 258, 259, 260, 261, 262, 263, 264, 265, 266, 267, 268, 269, 270, 271, 272, 273, 274, 275, 276, 277, 278, 279, 280, 281, 282, 283, 284, 285, 286, 287, 288, 289, 290, 291, 292, 293, 294, 295, 296, 297, 298, 299, 300, 301, 302, 303, 304, 305, 306, 307, 308, 309, 310, 311, 312, 313, 314, 315, 316, 317, 318, 319, 320, 321, 322, 323, 324, 325, 326, 327, 328, 329, 330, 331, 332, 333, 334, 335, 336, 337, 338, 339, 340, 341, 342, 343, 344, 345, 346, 347, 348, 349, 350, 351, 352, 353, 354, 355, 356, 357, 358, 359, 360, 361, 362, 363, 364, 365, 366, 367, 368, 369, 370, 371, 372, 373, 374, 375, 376, 377, 378, 379, 380, 381, 382, 383, 384, 385, 386, 387, 388, 389, 390, 391, 392, 393, 394, 395, 396, 397, 398, 399, 400, 401, 402, 403, 404, 405, 406, 407, 408, 409, 410, 411, 412, 413, 414, 415, 416, 417, 418, 419, 420, 421, 422, 423, 424, 425, 426, 427, 428, 429, 430, 431, 432, 433, 434, 435, 436, 437, 438, 439, 440, 441, 442, 443, 444, 445, 446, 447, 448, 449, 450, 451, 452, 453, 454, 455, 456, 457, 458, 459, 460, 461, 462, 463, 464, 465, 466, 467, 468, 469, 470, 471, 472, 473, 474, 475, 476, 477, 478, 479, 480, 481, 482, 483, 484, 485, 486, 487, 488, 489, 490, 491, 492, 493, 494, 495, 496, 497, 498, 499, 500, 501, 502, 503, 504, 505, 506, 507, 508, 509, 510, 511, 512, 513, 514, 515, 516, 517, 518, 519, 520, 521, 522, 523, 524, 525, 526, 527, 528, 529, 530, 531, 532, 533, 534, 535, 536, 537, 538, 539, 540, 541, 542, 543, 544, 545, 546, 547, 548, 549, 550, 551, 552, 553, 554, 555, 556, 557, 558, 559, 560, 561, 562, 563, 564, 565, 566, 567, 568, 569, 570, 571, 572, 573, 574, 575, 576, 577, 578, 579, 580, 581, 582, 583, 584, 585, 586, 587, 588, 589, 590, 591, 592, 593, 594, 595, 596, 597, 598, 599, 600, 601, 602, 603, 604, 605, 606, 607, 608, 609, 610, 611, 612, 613, 614, 615, 616, 617, 618, 619, 620, 621, 622, 623, 624, 625, 626, 627, 628, 629, 630, 631, 632, 633, 634, 635, 636, 637, 638, 639, 640, 641, 642, 643, 644, 645, 646, 647, 648, 649, 650, 651, 652, 653, 654, 655, 656, 657, 658, 659, 660, 661, 662, 663, 664, 665, 666, 667, 668, 669, 670, 671, 672, 673, 674, 675, 676, 677, 678, 679, 680, 681, 682, 683, 684, 685, 686, 687, 688, 689, 690, 691, 692, 693, 694, 695, 696, 697, 698, 699, 700, 701, 702, 703, 704, 705, 706, 707, 708, 709, 710, 711, 712, 713, 714, 715, 716, 717, 718, 719, 720, 721, 722, 723, 724, 725, 726, 727, 728, 729, 730, 731, 732, 733, 734, 735, 736, 737, 738, 739, 740, 741, 742, 743, 744, 745, 746, 747, 748, 749, 750, 751, 752, 753, 754, 755, 756, 757, 758, 759, 760, 761, 762, 763, 764, 765, 766, 767, 768, 769, 770, 771, 772, 773, 774, 775, 776, 777, 778, 779, 780, 781, 782, 783, 784, 785, 786, 787, 788, 789, 790, 791, 792, 793, 794, 795, 796, 797, 798, 799, 800, 801, 802, 803, 804, 805, 806, 807, 808, 809, 810, 811, 812, 813, 814, 815, 816, 817, 818, 819, 820, 821, 822, 823, 824, 825, 826, 827, 828, 829, 830, 831, 832, 833, 834, 835, 836, 837, 838, 839, 840, 841, 842, 843, 844, 845, 846, 847, 848, 849, 850, 851, 852, 853, 854, 855, 856, 857, 858, 859, 860, 861, 862, 863, 864, 865, 866, 867, 868, 869, 870, 871, 872],
      "AcquisitionTime": ["214024.050000", "214024.510000", "214024.970000", "214025.430000", "214025.890000", "214026.350000", "214026.810000", "214027.270000", "214027.730000", "214028.190000", "214028.650000", "214029.110000", "214029.570000", "214030.030000", "214030.490000", "214030.950000", "214031.410000", "214031.870000", "214032.330000", "214032.790000", "214033.250000", "214033.710000", "214034.170000", "214034.630000", "214035.090000", "214035.550000", "214036.010000", "214036.470000", "214036.930000", "214037.390000", "214037.850000", "214038.310000", "214038.770000", "214039.230000", "214039.690000", "214040.150000", "214040.610000", "214041.070000", "214041.530000", "214041.990000", "214042.450000", "214042.910000", "214043.370000", "214043.830000", "214044.290000", "214044.750000", "214045.210000", "214045.670000", "214046.130000", "214046.590000", "214047.050000", "214047.510000", "214047.970000", "214048.430000", "214048.890000", "214049.350000", "214049.810000", "214050.270000", "214050.730000", "214051.190000", "214051.650000", "214052.110000", "214052.570000", "214053.030000", "214053.490000", "214053.950000", "214054.410000", "214054.870000", "214055.330000", "214055.790000", "214056.250000", "214056.710000", "214057.170000", "214057.630000", "214058.090000", "214058.550000", "214059.010000", "214059.470000", "214059.930000", "214100.390000", "214100.850000", "214101.310000", "214101.770000", "214102.230000", "214102.690000", "214103.150000", "214103.610000", "214104.070000", "214104.530000", "214104.990000", "214105.450000", "214105.910000", "214106.370000", "214106.830000", "214107.290000", "214107.750000", "214108.210000", "214108.670000", "214109.130000", "214109.590000", "214110.050000", "214110.510000", "214110.970000", "214111.430000", "214111.890000", "214112.350000", "214112.810000", "214113.270000", "214113.730000", "214114.190000", "214114.650000", "214115.110000", "214115.570000", "214116.030000", "214116.490000", "214116.950000", "214117.410000", "214117.870000", "214118.330000", "214118.790000", "214119.250000", "214119.710000", "214120.170000", "214120.630000", "214121.090000", "214121.550000", "214122.010000", "214122.470000", "214122.930000", "214123.390000", "214123.850000", "214124.310000", "214124.770000", "214125.230000", "214125.690000", "214126.150000", "214126.610000", "214127.070000", "214127.530000", "214127.990000", "214128.450000", "214128.910000", "214129.370000", "214129.830000", "214130.290000", "214130.750000", "214131.210000", "214131.670000", "214132.130000", "214132.590000", "214133.050000", "214133.510000", "214133.970000", "214134.430000", "214134.890000", "214135.350000", "214135.810000", "214136.270000", "214136.730000", "214137.190000", "214137.650000", "214138.110000", "214138.570000", "214139.030000", "214139.490000", "214139.950000", "214140.410000", "214140.870000", "214141.330000", "214141.790000", "214142.250000", "214142.710000", "214143.170000", "214143.630000", "214144.090000", "214144.550000", "214145.010000", "214145.470000", "214145.930000", "214146.390000", "214146.850000", "214147.310000", "214147.770000", "214148.230000", "214148.690000", "214149.150000", "214149.610000", "214150.070000", "214150.530000", "214150.990000", "214151.450000", "214151.910000", "214152.370000", "214152.830000", "214153.290000", "214153.750000", "214154.210000", "214154.670000", "214155.130000", "214155.590000", "214156.050000", "214156.510000", "214156.970000", "214157.430000", "214157.890000", "214158.350000", "214158.810000", "214159.270000", "214159.730000", "214200.190000", "214200.650000", "214201.110000", "214201.570000", "214202.030000", "214202.490000", "214202.950000", "214203.410000", "214203.870000", "214204.330000", "214204.790000", "214205.250000", "214205.710000", "214206.170000", "214206.630000", "214207.090000", "214207.550000", "214208.010000", "214208.470000", "214208.930000", "214209.390000", "214209.850000", "214210.310000", "214210.770000", "214211.230000", "214211.690000", "214212.150000", "214212.610000", "214213.070000", "214213.530000", "214213.990000", "214214.450000", "214214.910000", "214215.370000", "214215.830000", "214216.290000", "214216.750000", "214217.210000", "214217.670000", "214218.130000", "214218.590000", "214219.050000", "214219.510000", "214219.970000", "214220.430000", "214220.890000", "214221.350000", "214221.810000", "214222.270000", "214222.730000", "214223.190000", "214223.650000", "214224.110000", "214224.570000", "214225.030000", "214225.490000", "214225.950000", "214226.410000", "214226.870000", "214227.330000", "214227.790000", "214228.250000", "214228.710000", "214229.170000", "214229.630000", "214230.090000", "214230.550000", "214231.010000", "214231.470000", "214231.930000", "214232.390000", "214232.850000", "214233.310000", "214233.770000", "214234.230000", "214234.690000", "214235.150000", "214235.610000", "214236.070000", "214236.530000", "214236.990000", "214237.450000", "214237.910000", "214238.370000", "214238.830000", "214239.290000", "214239.750000", "214240.210000", "214240.670000", "214241.130000", "214241.590000", "214242.050000", "214242.510000", "214242.970000", "214243.430000", "214243.890000", "214244.350000", "214244.810000", "214245.270000", "214245.730000", "214246.190000", "214246.650000", "214247.110000", "214247.570000", "214248.030000", "214248.490000", "214248.950000", "214249.410000", "214249.870000", "214250.330000", "214250.790000", "214251.250000", "214251.710000", "214252.170000", "214252.630000", "214253.090000", "214253.550000", "214254.010000", "214254.470000", "214254.930000", "214255.390000", "214255.850000", "214256.310000", "214256.770000", "214257.230000", "214257.690000", "214258.150000", "214258.610000", "214259.070000", "214259.530000", "214259.990000", "214300.450000", "214300.910000", "214301.370000", "214301.830000", "214302.290000", "214302.750000", "214303.210000", "214303.670000", "214304.130000", "214304.590000", "214305.050000", "214305.510000", "214305.970000", "214306.430000", "214306.890000", "214307.350000", "214307.810000", "214308.270000", "214308.730000", "214309.190000", "214309.650000", "214310.110000", "214310.570000", "214311.030000", "214311.490000", "214311.950000", "214312.410000", "214312.870000", "214313.330000", "214313.790000", "214314.250000", "214314.710000", "214315.170000", "214315.630000", "214316.090000", "214316.550000", "214317.010000", "214317.470000", "214317.930000", "214318.390000", "214318.850000", "214319.310000", "214319.770000", "214320.230000", "214320.690000", "214321.150000", "214321.610000", "214322.070000", "214322.530000", "214322.990000", "214323.450000", "214323.910000", "214324.370000", "214324.830000", "214325.290000", "214325.750000", "214326.210000", "214326.670000", "214327.130000", "214327.590000", "214328.050000", "214328.510000", "214328.970000", "214329.430000", "214329.890000", "214330.350000", "214330.810000", "214331.270000", "214331.730000", "214332.190000", "214332.650000", "214333.110000", "214333.570000", "214334.030000", "214334.490000", "214334.950000", "214335.410000", "214335.870000", "214336.330000", "214336.790000", "214337.250000", "214337.710000", "214338.170000", "214338.630000", "214339.090000", "214339.550000", "214340.010000", "214340.470000", "214340.930000", "214341.390000", "214341.850000", "214342.310000", "214342.770000", "214343.230000", "214343.690000", "214344.150000", "214344.610000", "214345.070000", "214345.530000", "214345.990000", "214346.450000", "214346.910000", "214347.370000", "214347.830000", "214348.290000", "214348.750000", "214349.210000", "214349.670000", "214350.130000", "214350.590000", "214351.050000", "214351.510000", "214351.970000", "214352.430000", "214352.890000", "214353.350000", "214353.810000", "214354.270000", "214354.730000", "214355.190000", "214355.650000", "214356.110000", "214356.570000", "214357.030000", "214357.490000", "214357.950000", "214358.410000", "214358.870000", "214359.330000", "214359.790000", "214400.250000", "214400.710000", "214401.170000", "214401.630000", "214402.090000", "214402.550000", "214403.010000", "214403.470000", "214403.930000", "214404.390000", "214404.850000", "214405.310000", "214405.770000", "214406.230000", "214406.690000", "214407.150000", "214407.610000", "214408.070000", "214408.530000", "214408.990000", "214409.450000", "214409.910000", "214410.370000", "214410.830000", "214411.290000", "214411.750000", "214412.210000", "214412.670000", "214413.130000", "214413.590000", "214414.050000", "214414.510000", "214414.970000", "214415.430000", "214415.890000", "214416.350000", "214416.810000", "214417.270000", "214417.730000", "214418.190000", "214418.650000", "214419.110000", "214419.570000", "214420.030000", "214420.490000", "214420.950000", "214421.410000", "214421.870000", "214422.330000", "214422.790000", "214423.250000", "214423.710000", "214424.170000", "214424.630000", "214425.090000", "214425.550000", "214426.010000", "214426.470000", "214426.930000", "214427.390000", "214427.850000", "214428.310000", "214428.770000", "214429.230000", "214429.690000", "214430.150000", "214430.610000", "214431.070000", "214431.530000", "214431.990000", "214432.450000", "214432.910000", "214433.370000", "214433.830000", "214434.290000", "214434.750000", "214435.210000", "214435.670000", "214436.130000", "214436.590000", "214437.050000", "214437.510000", "214437.970000", "214438.430000", "214438.890000", "214439.350000", "214439.810000", "214440.270000", "214440.730000", "214441.190000", "214441.650000", "214442.110000", "214442.570000", "214443.030000", "214443.490000", "214443.950000", "214444.410000", "214444.870000", "214445.330000", "214445.790000", "214446.250000", "214446.710000", "214447.170000", "214447.630000", "214448.090000", "214448.550000", "214449.010000", "214449.470000", "214449.930000", "214450.390000", "214450.850000", "214451.310000", "214451.770000", "214452.230000", "214452.690000", "214453.150000", "214453.610000", "214454.070000", "214454.530000", "214454.990000", "214455.450000", "214455.910000", "214456.370000", "214456.830000", "214457.290000", "214457.750000", "214458.210000", "214458.670000", "214459.130000", "214459.590000", "214500.050000", "214500.510000", "214500.970000", "214501.430000", "214501.890000", "214502.350000", "214502.810000", "214503.270000", "214503.730000", "214504.190000", "214504.650000", "214505.110000", "214505.570000", "214506.030000", "214506.490000", "214506.950000", "214507.410000", "214507.870000", "214508.330000", "214508.790000", "214509.250000", "214509.710000", "214510.170000", "214510.630000", "214511.090000", "214511.550000", "214512.010000", "214512.470000", "214512.930000", "214513.390000", "214513.850000", "214514.310000", "214514.770000", "214515.230000", "214515.690000", "214516.150000", "214516.610000", "214517.070000", "214517.530000", "214517.990000", "214518.450000", "214518.910000", "214519.370000", "214519.830000", "214520.290000", "214520.750000", "214521.210000", "214521.670000", "214522.130000", "214522.590000", "214523.050000", "214523.510000", "214523.970000", "214524.430000", "214524.890000", "214525.350000", "214525.810000", "214526.270000", "214526.730000", "214527.190000", "214527.650000", "214528.110000", "214528.570000", "214529.030000", "214529.490000", "214529.950000", "214530.410000", "214530.870000", "214531.330000", "214531.790000", "214532.250000", "214532.710000", "214533.170000", "214533.630000", "214534.090000", "214534.550000", "214535.010000", "214535.470000", "214535.930000", "214536.390000", "214536.850000", "214537.310000", "214537.770000", "214538.230000", "214538.690000", "214539.150000", "214539.610000", "214540.070000", "214540.530000", "214540.990000", "214541.450000", "214541.910000", "214542.370000", "214542.830000", "214543.290000", "214543.750000", "214544.210000", "214544.670000", "214545.130000", "214545.590000", "214546.050000", "214546.510000", "214546.970000", "214547.430000", "214547.890000", "214548.350000", "214548.810000", "214549.270000", "214549.730000", "214550.190000", "214550.650000", "214551.110000", "214551.570000", "214552.030000", "214552.490000", "214552.950000", "214553.410000", "214553.870000", "214554.330000", "214554.790000", "214555.250000", "214555.710000", "214556.170000", "214556.630000", "214557.090000", "214557.550000", "214558.010000", "214558.470000", "214558.930000", "214559.390000", "214559.850000", "214600.310000", "214600.770000", "214601.230000", "214601.690000", "214602.150000", "214602.610000", "214603.070000", "214603.530000", "214603.990000", "214604.450000", "214604.910000", "214605.370000", "214605.830000", "214606.290000", "214606.750000", "214607.210000", "214607.670000", "214608.130000", "214608.590000", "214609.050000", "214609.510000", "214609.970000", "214610.430000", "214610.890000", "214611.350000", "214611.810000", "214612.270000", "214612.730000", "214613.190000", "214613.650000", "214614.110000", "214614.570000", "214615.030000", "214615.490000", "214615.950000", "214616.410000", "214616.870000", "214617.330000", "214617.790000", "214618.250000", "214618.710000", "214619.170000", "214619.630000", "214620.090000", "214620.550000", "214621.010000", "214621.470000", "214621.930000", "214622.390000", "214622.850000", "214623.310000", "214623.770000", "214624.230000", "214624.690000", "214625.150000", "214625.610000", "214626.070000", "214626.530000", "214626.990000", "214627.450000", "214627.910000", "214628.370000", "214628.830000", "214629.290000", "214629.750000", "214630.210000", "214630.670000", "214631.130000", "214631.590000", "214632.050000", "214632.510000", "214632.970000", "214633.430000", "214633.890000", "214634.350000", "214634.810000", "214635.270000", "214635.730000", "214636.190000", "214636.650000", "214637.110000", "214637.570000", "214638.030000", "214638.490000", "214638.950000", "214639.410000", "214639.870000", "214640.330000", "214640.790000", "214641.250000", "214641.710000", "214642.170000", "214642.630000", "214643.090000", "214643.550000", "214644.010000", "214644.470000", "214644.930000", "214645.390000", "214645.850000", "214646.310000", "214646.770000", "214647.230000", "214647.690000", "214648.150000", "214648.610000", "214649.070000", "214649.530000", "214649.990000", "214650.450000", "214650.910000", "214651.370000", "214651.830000", "214652.290000", "214652.750000", "214653.210000", "214653.670000", "214654.130000", "214654.590000", "214655.050000", "214655.510000", "214655.970000", "214656.430000", "214656.890000", "214657.350000", "214657.810000", "214658.270000", "214658.730000", "214659.190000", "214659.650000", "214700.110000", "214700.570000", "214701.030000", "214701.490000", "214701.950000", "214702.410000", "214702.870000", "214703.330000", "214703.790000", "214704.250000", "214704.710000"],
