{
  "AcquisitionMatrixPE": 140,
  "AcquisitionNumber": 1,
  "AcquisitionTime": "18:42:24.087500",
  "BandwidthPerPixelPhaseEncode": 10.352,
  "BaseResolution": 140,
  "BodyPartExamined": "BRAIN",
  "ConsistencyInfo": "N4_VE11E_LATEST_20181129",
  "ConversionSoftware": "dcm2niix",
  "ConversionSoftwareVersion": "v1.0.20201102",
  "DerivedVendorReportedEchoSpacing": 0.000689998,
  "DeviceSerialNumber": "66112",
  "DiffusionScheme": "Monopolar",
  "DwellTime": 2.1e-06,
  "EchoTime": 0.0884,
  "EchoTrainLength": 105,
  "EffectiveEchoSpacing": 0.000689998,
  "FlipAngle": 90,
  "ImageComments": "Unaliased MB3/PE3 SENSE1",
  "ImageOrientationPatientDICOM": [0.999247, -0.00473128, 0.0385206, -0.00261602, 0.982073, 0.188484],
  "ImageType": [
    "ORIGINAL",
    "PRIMARY",
    "DIFFUSION",
    "NONE",
    "MB",
    "ND",
    "MOSAIC"
],
  "ImagingFrequency": 123.259,
  "InPlanePhaseEncodingDirectionDICOM": "COL",
  "InstitutionAddress": "Maynard 3,Hanover,NH,US,03755",
  "InstitutionName": "Dartmouth College - PBS",
  "InstitutionalDepartmentName": "Department",
  "MRAcquisitionType": "2D",
  "MagneticFieldStrength": 3,
  "Manufacturer": "Siemens",
  "ManufacturersModelName": "Prisma",
  "Modality": "MR",
  "MultibandAccelerationFactor": 3,
  "PartialFourier": 0.75,
  "PatientPosition": "HFS",
  "PercentPhaseFOV": 100,
  "PercentSampling": 100,
  "PhaseEncodingDirection": "j-",
  "PhaseEncodingSteps": 105,
  "PhaseResolution": 1,
  "PixelBandwidth": 1700,
  "ProcedureStepDescription": "Wager_Wager^1076_spacetop",
  "ProtocolName": "dwi_acq-96dir-6b0-mb",
  "PulseSequenceDetails": "%CustomerSeq%\\cmrr_mbep2d_diff",
  "ReceiveCoilActiveElements": "HEA;HEP",
  "ReceiveCoilName": "Head_32",
  "ReconMatrixPE": 140,
  "RepetitionTime": 4.11,
  "SAR": 0.328312,
  "ScanOptions": "PFP\\FS",
  "ScanningSequence": "EP",
  "SequenceName": "ep_b5#1",
  "SequenceVariant": "SK\\SS",
  "SeriesDescription": "dwi_acq-96dir-6b0-mb",
  "SeriesNumber": 8,
  "ShimSetting": [4213, -7771, -7262, 226, -161, -93, -39, 57],
  "SliceThickness": 1.7,
  "SliceTiming": [0, 2.1225, 0.1525, 2.2725, 0.305, 2.425, 0.455, 2.575, 0.6075, 2.7275, 0.7575, 2.88, 0.91, 3.03, 1.0625, 3.1825, 1.2125, 3.3325, 1.365, 3.485, 1.515, 3.6375, 1.6675, 3.7875, 1.8175, 3.94, 1.97, 0, 2.1225, 0.1525, 2.2725, 0.305, 2.425, 0.455, 2.575, 0.6075, 2.7275, 0.7575, 2.88, 0.91, 3.03, 1.0625, 3.1825, 1.2125, 3.3325, 1.365, 3.485, 1.515, 3.6375, 1.6675, 3.7875, 1.8175, 3.94, 1.97, 0, 2.1225, 0.1525, 2.2725, 0.305, 2.425, 0.455, 2.575, 0.6075, 2.7275, 0.7575, 2.88, 0.91, 3.03, 1.0625, 3.1825, 1.2125, 3.3325, 1.365, 3.485, 1.515, 3.6375, 1.6675, 3.7875, 1.8175, 3.94, 1.97],
  "SoftwareVersions": "syngo MR E11",
  "SpacingBetweenSlices": 1.7,
  "StationName": "AWP66112",
  "TotalReadoutTime": 0.0959097,
  "TxRefAmp": 283.487,
  "WipMemBlock": "3054ef51-3d6f-47fc-939d-10828a3f6d6a||Sequence: R016 ve11e/master r/434b28f1; Aug  7 2019 19:06:17 by eja",
  "dcmmeta_affine": [
    [-1.7129942178726196, -0.004484598524868488, 0.06582701206207275, 123.19044494628906],
    [0.008110766299068928, 1.6835533380508423, 0.3203525245189667, -92.214111328125],
    [0.06603526324033737, -0.3231152296066284, 1.6682449579238892, -39.772464752197266],
    [0.0, 0.0, 0.0, 1.0]
],
  "dcmmeta_reorient_transform": [
    [0.0, -1.0, 0.0, 139.0],
    [1.0, 0.0, 0.0, 0.0],
    [0.0, 0.0, 1.0, 0.0],
    [0.0, 0.0, 0.0, 1.0]
],
  "dcmmeta_shape": [140, 140, 81, 103],
  "dcmmeta_slice_dim": 2,
  "dcmmeta_version": 0.6,
  "global": {
    "const": {
      "AccessionNumber": "A004368",
      "AcquisitionMatrix": [140, 0, 0, 140],
      "AngioFlag": "N",
      "BitsAllocated": 16,
      "BitsStored": 16,
      "BodyPartExamined": "BRAIN",
      "Columns": 1260,
      "EchoNumbers": 1,
      "EchoTime": 88.4,
      "EchoTrainLength": 105,
      "FlipAngle": 90.0,
      "HighBit": 15,
      "ImageOrientationPatient": [0.99924660657127, -0.0047312802488, 0.03852056908982, -0.0026160156715, 0.98207279897659, 0.1884838825266],
      "ImagePositionPatient": [-1079.3324641457, -1080.0476762427, -302.60975647029],
      "ImageType": [
        "ORIGINAL",
        "PRIMARY",
        "DIFFUSION",
        "NONE",
        "MB",
        "ND",
        "MOSAIC"
],
      "ImagedNucleus": "1H",
      "ImagingFrequency": 123.259088,
      "InPlanePhaseEncodingDirection": "COL",
      "MRAcquisitionType": "2D",
      "MagneticFieldStrength": 3.0,
      "Manufacturer": "SIEMENS",
      "ManufacturerModelName": "Prisma",
      "Modality": "MR",
      "NumberOfAverages": 1.0,
      "NumberOfPhaseEncodingSteps": 105,
      "PercentPhaseFieldOfView": 100.0,
      "PercentSampling": 100.0,
      "PerformedProcedureStepStartTime": "182153.808000",
      "PhotometricInterpretation": "MONOCHROME2",
      "PixelBandwidth": 1700.0,
      "PixelRepresentation": 0,
      "PixelSpacing": [1.7142857313156, 1.7142857313156],
      "ProtocolName": "dwi_acq-96dir-6b0-mb",
      "RepetitionTime": 4110.0,
      "Rows": 1260,
      "SAR": 0.32831230702775,
      "SamplesPerPixel": 1,
      "ScanOptions": [
        "PFP",
        "FS"
],
      "ScanningSequence": "EP",
      "SequenceVariant": [
        "SK",
        "SS"
],
      "SeriesDescription": "dwi_acq-96dir-6b0-mb",
      "SeriesNumber": 8,
      "SeriesTime": "184353.116000",
      "SliceLocation": -51.636454470257,
      "SliceThickness": 1.7000000476837,
      "SmallestImagePixelValue": 0,
      "SoftwareVersions": "syngo MR E11",
      "SpacingBetweenSlices": 1.7000000243939,
      "SpecificCharacterSet": "ISO_IR 100",
      "StudyID": "1",
      "StudyTime": "182153.680000",
      "TransmitCoilName": "Body",
      "VariableFlipAngleFlag": "N",
      "WindowCenterWidthExplanation": "Algo1"
    },
    "slices": {}
  },
  "time": {
    "samples": {
      "AcquisitionNumber": [1, 2, 3, 4, 5, 6, 7, 8, 9, 10, 11, 12, 13, 14, 15, 16, 17, 18, 19, 20, 21, 22, 23, 24, 25, 26, 27, 28, 29, 30, 31, 32, 33, 34, 35, 36, 37, 38, 39, 40, 41, 42, 43, 44, 45, 46, 47, 48, 49, 50, 51, 52, 53, 54, 55, 56, 57, 58, 59, 60, 61, 62, 63, 64, 65, 66, 67, 68, 69, 70, 71, 72, 73, 74, 75, 76, 77, 78, 79, 80, 81, 82, 83, 84, 85, 86, 87, 88, 89, 90, 91, 92, 93, 94, 95, 96, 97, 98, 99, 100, 101, 102, 103],
      "AcquisitionTime": ["184224.087500", "184228.197500", "184232.307500", "184236.417500", "184240.527500", "184244.637500", "184248.747500", "184252.857500", "184256.967500", "184301.077500", "184305.187500", "184309.297500", "184313.407500", "184317.517500", "184321.627500", "184325.737500", "184329.847500", "184333.957500", "184338.067500", "184342.177500", "184346.287500", "184350.397500", "184354.507500", "184358.617500", "184402.727500", "184406.837500", "184410.947500", "184415.057500", "184419.167500", "184423.277500", "184427.387500", "184431.497500", "184435.607500", "184439.717500", "184443.827500", "184447.937500", "184452.047500", "184456.157500", "184500.267500", "184504.377500", "184508.487500", "184512.597500", "184516.707500", "184520.817500", "184524.927500", "184529.037500", "184533.147500", "184537.257500", "184541.367500", "184545.477500", "184549.587500", "184553.697500", "184557.807500", "184601.917500", "184606.027500", "184610.137500", "184614.247500", "184618.357500", "184622.467500", "184626.577500", "184630.687500", "184634.797500", "184638.907500", "184643.017500", "184647.127500", "184651.237500", "184655.347500", "184659.457500", "184703.567500", "184707.677500", "184711.787500", "184715.897500", "184720.007500", "184724.117500", "184728.227500", "184732.337500", "184736.447500", "184740.557500", "184744.667500", "184748.777500", "184752.887500", "184756.997500", "184801.107500", "184805.217500", "184809.327500", "184813.437500", "184817.547500", "184821.657500", "184825.767500", "184829.877500", "184833.987500", "184838.097500", "184842.207500", "184846.317500", "184850.427500", "184854.537500", "184858.647500", "184902.757500", "184906.867500", "184910.977500", "184915.087500", "184919.197500", "184923.307500"],
      "ContentTime": ["184353.120000", "184353.124000", "184353.127000", "184353.141000", "184353.144000", "184353.147000", "184353.150000", "184353.153000", "184353.156000", "184353.159000", "184353.162000", "184353.165000", "184353.168000", "184353.171000", "184353.174000", "184353.178000", "184353.181000", "184353.184000", "184353.186000", "184353.190000", "184353.193000", "184453.115000", "184453.118000", "184453.121000", "184453.124000", "184453.127000", "184453.130000", "184453.133000", "184453.137000", "184453.139000", "184453.142000", "184453.146000", "184453.149000", "184453.152000", "184453.155000", "184453.158000", "184633.115000", "184633.118000", "184633.121000", "184633.124000", "184633.127000", "184633.130000", "184633.133000", "184633.136000", "184633.139000", "184633.142000", "184633.145000", "184633.148000", "184633.151000", "184633.154000", "184633.157000", "184633.160000", "184633.164000", "184633.167000", "184633.169000", "184633.172000", "184633.176000", "184633.179000", "184633.182000", "184633.185000", "184813.115000", "184813.119000", "184813.122000", "184813.125000", "184813.128000", "184813.131000", "184813.134000", "184813.137000", "184813.140000", "184813.143000", "184813.146000", "184813.149000", "184813.152000", "184813.155000", "184813.158000", "184813.161000", "184813.164000", "184813.167000", "184813.170000", "184813.173000", "184813.176000", "184813.179000", "184813.182000", "184813.185000", "184928.171000", "184928.174000", "184928.177000", "184928.180000", "184928.184000", "184928.186000", "184928.190000", "184928.193000", "184928.196000", "184928.199000", "184928.202000", "184928.205000", "184928.208000", "184928.211000", "184928.214000", "184928.217000", "184928.220000", "184928.223000", "184928.227000"],
      "InstanceCreationTime": ["184353.120000", "184353.124000", "184353.127000", "184353.141000", "184353.144000", "184353.147000", "184353.150000", "184353.153000", "184353.156000", "184353.159000", "184353.162000", "184353.165000", "184353.168000", "184353.171000", "184353.174000", "184353.178000", "184353.181000", "184353.184000", "184353.186000", "184353.190000", "184353.193000", "184453.115000", "184453.118000", "184453.121000", "184453.124000", "184453.127000", "184453.130000", "184453.133000", "184453.137000", "184453.139000", "184453.142000", "184453.146000", "184453.149000", "184453.152000", "184453.155000", "184453.158000", "184633.115000", "184633.118000", "184633.121000", "184633.124000", "184633.127000", "184633.130000", "184633.133000", "184633.136000", "184633.139000", "184633.142000", "184633.145000", "184633.148000", "184633.151000", "184633.154000", "184633.157000", "184633.160000", "184633.164000", "184633.167000", "184633.169000", "184633.172000", "184633.176000", "184633.179000", "184633.182000", "184633.185000", "184813.115000", "184813.119000", "184813.122000", "184813.125000", "184813.128000", "184813.131000", "184813.134000", "184813.137000", "184813.140000", "184813.143000", "184813.146000", "184813.149000", "184813.152000", "184813.155000", "184813.158000", "184813.161000", "184813.164000", "184813.167000", "184813.170000", "184813.173000", "184813.176000", "184813.179000", "184813.182000", "184813.185000", "184928.171000", "184928.174000", "184928.177000", "184928.180000", "184928.184000", "184928.186000", "184928.190000", "184928.193000", "184928.196000", "184928.199000", "184928.202000", "184928.205000", "184928.208000", "184928.211000", "184928.214000", "184928.217000", "184928.220000", "184928.223000", "184928.227000"],
      "InstanceNumber": [1, 2, 3, 4, 5, 6, 7, 8, 9, 10, 11, 12, 13, 14, 15, 16, 17, 18, 19, 20, 21, 22, 23, 24, 25, 26, 27, 28, 29, 30, 31, 32, 33, 34, 35, 36, 37, 38, 39, 40, 41, 42, 43, 44, 45, 46, 47, 48, 49, 50, 51, 52, 53, 54, 55, 56, 57, 58, 59, 60, 61, 62, 63, 64, 65, 66, 67, 68, 69, 70, 71, 72, 73, 74, 75, 76, 77, 78, 79, 80, 81, 82, 83, 84, 85, 86, 87, 88, 89, 90, 91, 92, 93, 94, 95, 96, 97, 98, 99, 100, 101, 102, 103],
      "LargestImagePixelValue": [65535, 65535, 65535, 65535, 65535, 65535, 65535, 65535, 65535, 52289, 57919, 52975, 55069, 56329, 51824, 55300, 54906, 56554, 53207, 50608, 55408, 50911, 54360, 55392, 65535, 24722, 26525, 27292, 26426, 29089, 32374, 26921, 31476, 27849, 28675, 26313, 27883, 26552, 26916, 26808, 65535, 14302, 16928, 16248, 18202, 15044, 16529, 17000, 16786, 15656, 17343, 15829, 14172, 14137, 16550, 14170, 14345, 14868, 15720, 16515, 15531, 16260, 16882, 16559, 15318, 16221, 14213, 15919, 16314, 14939, 16810, 15011, 16236, 65535, 19111, 16288, 16262, 14921, 16457, 15910, 16621, 19004, 17384, 16844, 14055, 13289, 17582, 16825, 16217, 18233, 15842, 15213, 14449, 14599, 15086, 16296, 15343, 14501, 15185, 15102, 15322, 16261, 65535],
      "SequenceName": [
 "ep_b5#1",
 "ep_b5#1",
 "ep_b500#2",
 "ep_b500#3",
 "ep_b500#4",
 "ep_b505#5",
 "ep_b495#6",
 "ep_b500#7",
 "ep_b5#8",
 "ep_b1000#9",
 "ep_b1005#10",
 "ep_b1000#11",
 "ep_b1005#12",
 "ep_b995#13",
 "ep_b995#14",
 "ep_b1005#15",
 "ep_b1000#16",
 "ep_b1000#17",
 "ep_b995#18",
 "ep_b1000#19",
 "ep_b995#20",
 "ep_b1000#21",
 "ep_b1005#22",
 "ep_b1005#23",
 "ep_b5#24",
 "ep_b2000#25",
 "ep_b2000#26",
 "ep_b1995#27",
 "ep_b1995#28",
 "ep_b2005#29",
 "ep_b2010#30",
 "ep_b2005#31",
 "ep_b2005#32",
 "ep_b1995#33",
 "ep_b1990#34",
 "ep_b1995#35",
 "ep_b2005#36",
 "ep_b2000#37",
 "ep_b2010#38",
 "ep_b2000#39",
 "ep_b5#40",
 "ep_b3000#41",
 "ep_b3005#42",
 "ep_b3010#43",
 "ep_b3010#44",
 "ep_b2995#45",
 "ep_b3000#46",
 "ep_b2990#47",
 "ep_b3005#48",
 "ep_b3000#49",
 "ep_b2990#50",
 "ep_b2990#51",
 "ep_b2995#52",
 "ep_b2995#53",
 "ep_b3010#54",
 "ep_b3000#55",
 "ep_b2995#56",
 "ep_b3000#57",
 "ep_b2990#58",
 "ep_b2990#59",
 "ep_b3000#60",
 "ep_b2990#61",
 "ep_b2990#62",
 "ep_b2995#63",
 "ep_b3005#64",
 "ep_b3010#65",
 "ep_b3000#66",
 "ep_b3005#67",
 "ep_b3010#68",
 "ep_b3005#69",
 "ep_b3005#70",
 "ep_b3010#71",
 "ep_b2990#72",
 "ep_b5#73",
 "ep_b3010#74",
 "ep_b3000#75",
 "ep_b3005#76",
 "ep_b3005#77",
 "ep_b2995#78",
 "ep_b3005#79",
 "ep_b2995#80",
 "ep_b3010#81",
 "ep_b3010#82",
 "ep_b3005#83",
 "ep_b3000#84",
 "ep_b3000#85",
 "ep_b3010#86",
 "ep_b3010#87",
 "ep_b2990#88",
 "ep_b3010#89",
 "ep_b2990#90",
 "ep_b2995#91",
 "ep_b2995#92",
 "ep_b2995#93",
 "ep_b3005#94",
 "ep_b3005#95",
 "ep_b2995#96",
 "ep_b3000#97",
 "ep_b2990#98",
 "ep_b3000#99",
 "ep_b3000#100",
 "ep_b2995#101",
 "ep_b5#102"
],
      "WindowCenter": [11454.0, 11466.0, 8358.0, 8357.0, 8324.0, 8291.0, 8388.0, 8382.0, 11463.0, 6417.0, 6396.0, 6391.0, 6404.0, 6415.0, 6386.0, 6376.0, 6502.0, 6471.0, 6449.0, 6340.0, 6475.0, 6391.0, 6397.0, 6446.0, 11469.0, 4090.0, 4044.0, 4048.0, 4182.0, 4098.0, 4124.0, 4105.0, 4116.0, 4146.0, 4151.0, 4077.0, 4068.0, 4056.0, 4073.0, 4102.0, 11462.0, 2871.0, 2860.0, 2897.0, 2901.0, 2844.0, 2934.0, 2892.0, 2873.0, 2861.0, 2852.0, 2847.0, 2843.0, 2848.0, 2893.0, 2811.0, 2848.0, 2797.0, 2870.0, 2868.0, 2875.0, 2856.0, 2942.0, 2967.0, 2917.0, 2903.0, 2782.0, 2873.0, 2872.0, 2819.0, 2896.0, 2904.0, 2881.0, 11416.0, 2901.0, 2912.0, 2852.0, 2858.0, 2839.0, 2821.0, 2863.0, 2897.0, 2896.0, 2833.0, 2825.0, 2792.0, 2837.0, 2850.0, 2884.0, 2888.0, 2905.0, 2823.0, 2775.0, 2862.0, 2831.0, 2911.0, 2946.0, 2786.0, 2862.0, 2827.0, 2847.0, 2932.0, 11453.0],
      "WindowWidth": [26502.0, 26539.0, 17789.0, 17795.0, 17707.0, 17701.0, 17863.0, 17838.0, 26532.0, 13654.0, 13632.0, 13602.0, 13660.0, 13687.0, 13624.0, 13587.0, 13792.0, 13764.0, 13696.0, 13502.0, 13749.0, 13618.0, 13636.0, 13680.0, 26551.0, 9114.0, 9015.0, 9064.0, 9259.0, 9130.0, 9182.0, 9130.0, 9171.0, 9191.0, 9193.0, 9085.0, 9069.0, 9026.0, 9074.0, 9131.0, 26520.0, 6799.0, 6731.0, 6815.0, 6790.0, 6722.0, 6855.0, 6785.0, 6755.0, 6757.0, 6706.0, 6705.0, 6744.0, 6762.0, 6796.0, 6672.0, 6763.0, 6610.0, 6747.0, 6739.0, 6760.0, 6724.0, 6871.0, 6933.0, 6841.0, 6803.0, 6608.0, 6748.0, 6771.0, 6682.0, 6818.0, 6816.0, 6761.0, 26378.0, 6794.0, 6827.0, 6723.0, 6752.0, 6688.0, 6658.0, 6735.0, 6788.0, 6785.0, 6680.0, 6705.0, 6660.0, 6669.0, 6716.0, 6782.0, 6775.0, 6846.0, 6660.0, 6571.0, 6764.0, 6699.0, 6850.0, 6900.0, 6599.0, 6747.0, 6674.0, 6730.0, 6871.0, 26486.0]
    },
    "slices": {}
  }
}