{
  "AcquisitionMatrixPE": 82,
  "AcquisitionNumber": 1,
  "AcquisitionTime": "13:27:51.250000",
  "BandwidthPerPixelPhaseEncode": 24.888,
  "BaseResolution": 82,
  "BodyPartExamined": "BRAIN",
  "ConsistencyInfo": "N4_VE11E_LATEST_20181129",
  "ConversionSoftware": "dcm2niix",
  "ConversionSoftwareVersion": "v1.0.20201102",
  "DerivedVendorReportedEchoSpacing": 0.00049,
  "DeviceSerialNumber": "66112",
  "DwellTime": 2e-06,
  "EchoTime": 0.0272,
  "EchoTrainLength": 82,
  "EffectiveEchoSpacing": 0.00049,
  "FlipAngle": 44,
  "ImageComments": "Unaliased MB8/PE3",
  "ImageOrientationPatientDICOM": [0.999312, 0.0205425, 0.0308868, -0.0249462, 0.988413, 0.149724],
  "ImageType": [
    "ORIGINAL",
    "PRIMARY",
    "M",
    "MB",
    "ND",
    "NORM",
    "MOSAIC"
],
  "ImagingFrequency": 123.259,
  "InPlanePhaseEncodingDirectionDICOM": "COL",
  "InstitutionAddress": "Maynard 3,Hanover,NH,US,03755",
  "InstitutionName": "Dartmouth College - PBS",
  "InstitutionalDepartmentName": "Department",
  "MRAcquisitionType": "2D",
  "MagneticFieldStrength": 3,
  "Manufacturer": "Siemens",
  "ManufacturersModelName": "Prisma",
  "Modality": "MR",
  "MultibandAccelerationFactor": 8,
  "PartialFourier": 1,
  "PatientPosition": "HFS",
  "PercentPhaseFOV": 100,
  "PercentSampling": 100,
  "PhaseEncodingDirection": "j-",
  "PhaseEncodingSteps": 82,
  "PhaseResolution": 1,
  "PixelBandwidth": 3050,
  "ProcedureStepDescription": "Wager_Wager^1076_spacetop",
  "ProtocolName": "func_run-02_task-faces_acq-ap-mb8",
  "PulseSequenceDetails": "%CustomerSeq%\\cmrr_mbep2d_bold",
  "ReceiveCoilActiveElements": "HEA;HEP",
  "ReceiveCoilName": "Head_32",
  "ReconMatrixPE": 82,
  "RepetitionTime": 0.46,
  "SAR": 0.0862041,
  "ScanOptions": "FS",
  "ScanningSequence": "EP",
  "SequenceName": "epfid2d1_82",
  "SequenceVariant": "SK\\SS",
  "SeriesDescription": "func_run-02_task-faces_acq-ap-mb8",
  "SeriesNumber": 20,
  "ShimSetting": [4222, -7804, -7218, 292, -55, -65, -107, 80],
  "SliceThickness": 2.7,
  "SliceTiming": [0, 0.2525, 0.065, 0.315, 0.1275, 0.3775, 0.19, 0, 0.2525, 0.065, 0.315, 0.1275, 0.3775, 0.19, 0, 0.2525, 0.065, 0.315, 0.1275, 0.3775, 0.19, 0, 0.2525, 0.065, 0.315, 0.1275, 0.3775, 0.19, 0, 0.2525, 0.065, 0.315, 0.1275, 0.3775, 0.19, 0, 0.2525, 0.065, 0.315, 0.1275, 0.3775, 0.19, 0, 0.2525, 0.065, 0.315, 0.1275, 0.3775, 0.19, 0, 0.2525, 0.065, 0.315, 0.1275, 0.3775, 0.19],
  "SoftwareVersions": "syngo MR E11",
  "SpacingBetweenSlices": 2.7,
  "StationName": "AWP66112",
  "TaskName": "faces",
  "TotalReadoutTime": 0.03969,
  "TxRefAmp": 218.424,
  "WipMemBlock": "b199e6d1-3ef4-403b-8e85-c590b4df5787||Sequence: R016 ve11e/master r/434b28f1; Aug  7 2019 18:53:46 by eja",
  "dcmmeta_affine": [
    [-2.6810803413391113, -0.06692880392074585, 0.07412362843751907, 120.0682373046875],
    [-0.055114131420850754, 2.6518397331237793, 0.4060581624507904, -104.01276397705078],
    [0.08286702632904053, -0.4016997516155243, 2.668262243270874, -49.03840637207031],
    [0.0, 0.0, 0.0, 1.0]
],
  "dcmmeta_reorient_transform": [
    [0.0, -1.0, 0.0, 81.0],
    [1.0, 0.0, 0.0, 0.0],
    [0.0, 0.0, 1.0, 0.0],
    [0.0, 0.0, 0.0, 1.0]
],
  "dcmmeta_shape": [82, 82, 56, 914],
  "dcmmeta_slice_dim": 2,
  "dcmmeta_version": 0.6,
  "global": {
    "const": {
      "AccessionNumber": "A004717",
      "AcquisitionMatrix": [82, 0, 0, 82],
      "AngioFlag": "N",
      "BitsAllocated": 16,
      "BitsStored": 16,
      "BodyPartExamined": "BRAIN",
      "Columns": 656,
      "EchoNumbers": 1,
      "EchoTime": 27.2,
      "EchoTrainLength": 82,
      "FlipAngle": 44.0,
      "HighBit": 15,
      "ImageOrientationPatient": [0.99931176796888, 0.02054253899688, 0.03088680123415, -0.0249461907202, 0.98841301001283, 0.14972444424987],
      "ImagePositionPatient": [-864.90851623697, -887.68205281619, -220.64674686121],
      "ImageType": [
        "ORIGINAL",
        "PRIMARY",
        "M",
        "MB",
        "ND",
        "NORM",
        "MOSAIC"
],
      "ImagedNucleus": "1H",
      "ImagingFrequency": 123.259088,
      "InPlanePhaseEncodingDirection": "COL",
      "MRAcquisitionType": "2D",
      "MagneticFieldStrength": 3.0,
      "Manufacturer": "SIEMENS",
      "ManufacturerModelName": "Prisma",
      "Modality": "MR",
      "NumberOfAverages": 1.0,
      "NumberOfPhaseEncodingSteps": 82,
      "PercentPhaseFieldOfView": 100.0,
      "PercentSampling": 100.0,
      "PerformedProcedureStepStartTime": "122807.605000",
      "PhotometricInterpretation": "MONOCHROME2",
      "PixelBandwidth": 3050.0,
      "PixelRepresentation": 0,
      "PixelSpacing": [2.6829268932343, 2.6829268932343],
      "ProtocolName": "func_run-02_task-faces_acq-ap-mb8",
      "RepetitionTime": 460.0,
      "Rows": 656,
      "SAR": 0.08620413207918,
      "SamplesPerPixel": 1,
      "ScanOptions": "FS",
      "ScanningSequence": "EP",
      "SequenceName": "epfid2d1_82",
      "SequenceVariant": [
        "SK",
        "SS"
],
      "SeriesDescription": "func_run-02_task-faces_acq-ap-mb8",
      "SeriesNumber": 20,
      "SeriesTime": "132808.589000",
      "SliceLocation": -60.80839101021,
      "SliceThickness": 2.7000000476837,
      "SmallestImagePixelValue": 0,
      "SoftwareVersions": "syngo MR E11",
      "SpacingBetweenSlices": 2.7000000693213,
      "SpecificCharacterSet": "ISO_IR 100",
      "StudyID": "1",
      "StudyTime": "122807.433000",
      "TransmitCoilName": "Body",
      "VariableFlipAngleFlag": "N",
      "WindowCenterWidthExplanation": "Algo1"
    },
    "slices": {}
  },
  "time": {
    "samples": {
      "AcquisitionNumber": [1, 2, 3, 4, 5, 6, 7, 8, 9, 10, 11, 12, 13, 14, 15, 16, 17, 18, 19, 20, 21, 22, 23, 24, 25, 26, 27, 28, 29, 30, 31, 32, 33, 34, 35, 36, 37, 38, 39, 40, 41, 42, 43, 44, 45, 46, 47, 48, 49, 50, 51, 52, 53, 54, 55, 56, 57, 58, 59, 60, 61, 62, 63, 64, 65, 66, 67, 68, 69, 70, 71, 72, 73, 74, 75, 76, 77, 78, 79, 80, 81, 82, 83, 84, 85, 86, 87, 88, 89, 90, 91, 92, 93, 94, 95, 96, 97, 98, 99, 100, 101, 102, 103, 104, 105, 106, 107, 108, 109, 110, 111, 112, 113, 114, 115, 116, 117, 118, 119, 120, 121, 122, 123, 124, 125, 126, 127, 128, 129, 130, 131, 132, 133, 134, 135, 136, 137, 138, 139, 140, 141, 142, 143, 144, 145, 146, 147, 148, 149, 150, 151, 152, 153, 154, 155, 156, 157, 158, 159, 160, 161, 162, 163, 164, 165, 166, 167, 168, 169, 170, 171, 172, 173, 174, 175, 176, 177, 178, 179, 180, 181, 182, 183, 184, 185, 186, 187, 188, 189, 190, 191, 192, 193, 194, 195, 196, 197, 198, 199, 200, 201, 202, 203, 204, 205, 206, 207, 208, 209, 210, 211, 212, 213, 214, 215, 216, 217, 218, 219, 220, 221, 222, 223, 224, 225, 226, 227, 228, 229, 230, 231, 232, 233, 234, 235, 236, 237, 238, 239, 240, 241, 242, 243, 244, 245, 246, 247, 248, 249, 250, 251, 252, 253, 254, 255, 256, 257, 258, 259, 260, 261, 262, 263, 264, 265, 266, 267, 268, 269, 270, 271, 272, 273, 274, 275, 276, 277, 278, 279, 280, 281, 282, 283, 284, 285, 286, 287, 288, 289, 290, 291, 292, 293, 294, 295, 296, 297, 298, 299, 300, 301, 302, 303, 304, 305, 306, 307, 308, 309, 310, 311, 312, 313, 314, 315, 316, 317, 318, 319, 320, 321, 322, 323, 324, 325, 326, 327, 328, 329, 330, 331, 332, 333, 334, 335, 336, 337, 338, 339, 340, 341, 342, 343, 344, 345, 346, 347, 348, 349, 350, 351, 352, 353, 354, 355, 356, 357, 358, 359, 360, 361, 362, 363, 364, 365, 366, 367, 368, 369, 370, 371, 372, 373, 374, 375, 376, 377, 378, 379, 380, 381, 382, 383, 384, 385, 386, 387, 388, 389, 390, 391, 392, 393, 394, 395, 396, 397, 398, 399, 400, 401, 402, 403, 404, 405, 406, 407, 408, 409, 410, 411, 412, 413, 414, 415, 416, 417, 418, 419, 420, 421, 422, 423, 424, 425, 426, 427, 428, 429, 430, 431, 432, 433, 434, 435, 436, 437, 438, 439, 440, 441, 442, 443, 444, 445, 446, 447, 448, 449, 450, 451, 452, 453, 454, 455, 456, 457, 458, 459, 460, 461, 462, 463, 464, 465, 466, 467, 468, 469, 470, 471, 472, 473, 474, 475, 476, 477, 478, 479, 480, 481, 482, 483, 484, 485, 486, 487, 488, 489, 490, 491, 492, 493, 494, 495, 496, 497, 498, 499, 500, 501, 502, 503, 504, 505, 506, 507, 508, 509, 510, 511, 512, 513, 514, 515, 516, 517, 518, 519, 520, 521, 522, 523, 524, 525, 526, 527, 528, 529, 530, 531, 532, 533, 534, 535, 536, 537, 538, 539, 540, 541, 542, 543, 544, 545, 546, 547, 548, 549, 550, 551, 552, 553, 554, 555, 556, 557, 558, 559, 560, 561, 562, 563, 564, 565, 566, 567, 568, 569, 570, 571, 572, 573, 574, 575, 576, 577, 578, 579, 580, 581, 582, 583, 584, 585, 586, 587, 588, 589, 590, 591, 592, 593, 594, 595, 596, 597, 598, 599, 600, 601, 602, 603, 604, 605, 606, 607, 608, 609, 610, 611, 612, 613, 614, 615, 616, 617, 618, 619, 620, 621, 622, 623, 624, 625, 626, 627, 628, 629, 630, 631, 632, 633, 634, 635, 636, 637, 638, 639, 640, 641, 642, 643, 644, 645, 646, 647, 648, 649, 650, 651, 652, 653, 654, 655, 656, 657, 658, 659, 660, 661, 662, 663, 664, 665, 666, 667, 668, 669, 670, 671, 672, 673, 674, 675, 676, 677, 678, 679, 680, 681, 682, 683, 684, 685, 686, 687, 688, 689, 690, 691, 692, 693, 694, 695, 696, 697, 698, 699, 700, 701, 702, 703, 704, 705, 706, 707, 708, 709, 710, 711, 712, 713, 714, 715, 716, 717, 718, 719, 720, 721, 722, 723, 724, 725, 726, 727, 728, 729, 730, 731, 732, 733, 734, 735, 736, 737, 738, 739, 740, 741, 742, 743, 744, 745, 746, 747, 748, 749, 750, 751, 752, 753, 754, 755, 756, 757, 758, 759, 760, 761, 762, 763, 764, 765, 766, 767, 768, 769, 770, 771, 772, 773, 774, 775, 776, 777, 778, 779, 780, 781, 782, 783, 784, 785, 786, 787, 788, 789, 790, 791, 792, 793, 794, 795, 796, 797, 798, 799, 800, 801, 802, 803, 804, 805, 806, 807, 808, 809, 810, 811, 812, 813, 814, 815, 816, 817, 818, 819, 820, 821, 822, 823, 824, 825, 826, 827, 828, 829, 830, 831, 832, 833, 834, 835, 836, 837, 838, 839, 840, 841, 842, 843, 844, 845, 846, 847, 848, 849, 850, 851, 852, 853, 854, 855, 856, 857, 858, 859, 860, 861, 862, 863, 864, 865, 866, 867, 868, 869, 870, 871, 872, 873, 874, 875, 876, 877, 878, 879, 880, 881, 882, 883, 884, 885, 886, 887, 888, 889, 890, 891, 892, 893, 894, 895, 896, 897, 898, 899, 900, 901, 902, 903, 904, 905, 906, 907, 908, 909, 910, 911, 912, 913, 914],
      "AcquisitionTime": ["132751.250000", "132751.710000", "132752.170000", "132752.630000", "132753.090000", "132753.550000", "132754.010000", "132754.470000", "132754.930000", "132755.390000", "132755.850000", "132756.310000", "132756.770000", "132757.230000", "132757.690000", "132758.150000", "132758.610000", "132759.070000", "132759.530000", "132759.990000", "132800.450000", "132800.910000", "132801.370000", "132801.830000", "132802.290000", "132802.750000", "132803.210000", "132803.670000", "132804.130000", "132804.590000", "132805.050000", "132805.510000", "132805.970000", "132806.430000", "132806.890000", "132807.350000", "132807.810000", "132808.270000", "132808.730000", "132809.190000", "132809.650000", "132810.110000", "132810.570000", "132811.030000", "132811.490000", "132811.950000", "132812.410000", "132812.870000", "132813.330000", "132813.790000", "132814.250000", "132814.710000", "132815.170000", "132815.630000", "132816.090000", "132816.550000", "132817.010000", "132817.470000", "132817.930000", "132818.390000", "132818.850000", "132819.310000", "132819.770000", "132820.230000", "132820.690000", "132821.150000", "132821.610000", "132822.070000", "132822.530000", "132822.990000", "132823.450000", "132823.910000", "132824.370000", "132824.830000", "132825.290000", "132825.750000", "132826.210000", "132826.670000", "132827.130000", "132827.590000", "132828.050000", "132828.510000", "132828.970000", "132829.430000", "132829.890000", "132830.350000", "132830.810000", "132831.270000", "132831.730000", "132832.190000", "132832.650000", "132833.110000", "132833.570000", "132834.030000", "132834.490000", "132834.950000", "132835.410000", "132835.870000", "132836.330000", "132836.790000", "132837.250000", "132837.710000", "132838.170000", "132838.630000", "132839.090000", "132839.550000", "132840.010000", "132840.470000", "132840.930000", "132841.390000", "132841.850000", "132842.310000", "132842.770000", "132843.230000", "132843.690000", "132844.150000", "132844.610000", "132845.070000", "132845.530000", "132845.990000", "132846.450000", "132846.910000", "132847.370000", "132847.830000", "132848.290000", "132848.750000", "132849.210000", "132849.670000", "132850.130000", "132850.590000", "132851.050000", "132851.510000", "132851.970000", "132852.430000", "132852.890000", "132853.350000", "132853.810000", "132854.270000", "132854.730000", "132855.190000", "132855.650000", "132856.110000", "132856.570000", "132857.030000", "132857.490000", "132857.950000", "132858.410000", "132858.870000", "132859.330000", "132859.790000", "132900.250000", "132900.710000", "132901.170000", "132901.630000", "132902.090000", "132902.550000", "132903.010000", "132903.470000", "132903.930000", "132904.390000", "132904.850000", "132905.310000", "132905.770000", "132906.230000", "132906.690000", "132907.150000", "132907.610000", "132908.070000", "132908.530000", "132908.990000", "132909.450000", "132909.910000", "132910.370000", "132910.830000", "132911.290000", "132911.750000", "132912.210000", "132912.670000", "132913.130000", "132913.590000", "132914.050000", "132914.510000", "132914.970000", "132915.430000", "132915.890000", "132916.350000", "132916.810000", "132917.270000", "132917.730000", "132918.190000", "132918.650000", "132919.110000", "132919.570000", "132920.030000", "132920.490000", "132920.950000", "132921.410000", "132921.870000", "132922.330000", "132922.790000", "132923.250000", "132923.710000", "132924.170000", "132924.630000", "132925.090000", "132925.550000", "132926.010000", "132926.470000", "132926.930000", "132927.390000", "132927.850000", "132928.310000", "132928.770000", "132929.230000", "132929.690000", "132930.150000", "132930.610000", "132931.070000", "132931.530000", "132931.990000", "132932.450000", "132932.910000", "132933.370000", "132933.830000", "132934.290000", "132934.750000", "132935.210000", "132935.670000", "132936.130000", "132936.590000", "132937.050000", "132937.510000", "132937.970000", "132938.430000", "132938.890000", "132939.350000", "132939.810000", "132940.270000", "132940.730000", "132941.190000", "132941.650000", "132942.110000", "132942.570000", "132943.030000", "132943.490000", "132943.950000", "132944.410000", "132944.870000", "132945.330000", "132945.790000", "132946.250000", "132946.710000", "132947.170000", "132947.630000", "132948.090000", "132948.550000", "132949.010000", "132949.470000", "132949.930000", "132950.390000", "132950.850000", "132951.310000", "132951.770000", "132952.230000", "132952.690000", "132953.150000", "132953.610000", "132954.070000", "132954.530000", "132954.990000", "132955.450000", "132955.910000", "132956.370000", "132956.830000", "132957.290000", "132957.750000", "132958.210000", "132958.670000", "132959.130000", "132959.590000", "133000.050000", "133000.510000", "133000.970000", "133001.430000", "133001.890000", "133002.350000", "133002.810000", "133003.270000", "133003.730000", "133004.190000", "133004.650000", "133005.110000", "133005.570000", "133006.030000", "133006.490000", "133006.950000", "133007.410000", "133007.870000", "133008.330000", "133008.790000", "133009.250000", "133009.710000", "133010.170000", "133010.630000", "133011.090000", "133011.550000", "133012.010000", "133012.470000", "133012.930000", "133013.390000", "133013.850000", "133014.310000", "133014.770000", "133015.230000", "133015.690000", "133016.150000", "133016.610000", "133017.070000", "133017.530000", "133017.990000", "133018.450000", "133018.910000", "133019.370000", "133019.830000", "133020.290000", "133020.750000", "133021.210000", "133021.670000", "133022.130000", "133022.590000", "133023.050000", "133023.510000", "133023.970000", "133024.430000", "133024.890000", "133025.350000", "133025.810000", "133026.270000", "133026.730000", "133027.190000", "133027.650000", "133028.110000", "133028.570000", "133029.030000", "133029.490000", "133029.950000", "133030.410000", "133030.870000", "133031.330000", "133031.790000", "133032.250000", "133032.710000", "133033.170000", "133033.630000", "133034.090000", "133034.550000", "133035.010000", "133035.470000", "133035.930000", "133036.390000", "133036.850000", "133037.310000", "133037.770000", "133038.230000", "133038.690000", "133039.150000", "133039.610000", "133040.070000", "133040.530000", "133040.990000", "133041.450000", "133041.910000", "133042.370000", "133042.830000", "133043.290000", "133043.750000", "133044.210000", "133044.670000", "133045.130000", "133045.590000", "133046.050000", "133046.510000", "133046.970000", "133047.430000", "133047.890000", "133048.350000", "133048.810000", "133049.270000", "133049.730000", "133050.190000", "133050.650000", "133051.110000", "133051.570000", "133052.030000", "133052.490000", "133052.950000", "133053.410000", "133053.870000", "133054.330000", "133054.790000", "133055.250000", "133055.710000", "133056.170000", "133056.630000", "133057.090000", "133057.550000", "133058.010000", "133058.470000", "133058.930000", "133059.390000", "133059.850000", "133100.310000", "133100.770000", "133101.230000", "133101.690000", "133102.150000", "133102.610000", "133103.070000", "133103.530000", "133103.990000", "133104.450000", "133104.910000", "133105.370000", "133105.830000", "133106.290000", "133106.750000", "133107.210000", "133107.670000", "133108.130000", "133108.590000", "133109.050000", "133109.510000", "133109.970000", "133110.430000", "133110.890000", "133111.350000", "133111.810000", "133112.270000", "133112.730000", "133113.190000", "133113.650000", "133114.110000", "133114.570000", "133115.030000", "133115.490000", "133115.950000", "133116.410000", "133116.870000", "133117.330000", "133117.790000", "133118.250000", "133118.710000", "133119.170000", "133119.630000", "133120.090000", "133120.550000", "133121.010000", "133121.470000", "133121.930000", "133122.390000", "133122.850000", "133123.310000", "133123.770000", "133124.230000", "133124.690000", "133125.150000", "133125.610000", "133126.070000", "133126.530000", "133126.990000", "133127.450000", "133127.910000", "133128.370000", "133128.830000", "133129.290000", "133129.750000", "133130.210000", "133130.670000", "133131.130000", "133131.590000", "133132.050000", "133132.510000", "133132.970000", "133133.430000", "133133.890000", "133134.350000", "133134.810000", "133135.270000", "133135.730000", "133136.190000", "133136.650000", "133137.110000", "133137.570000", "133138.030000", "133138.490000", "133138.950000", "133139.410000", "133139.870000", "133140.330000", "133140.790000", "133141.250000", "133141.710000", "133142.170000", "133142.630000", "133143.090000", "133143.550000", "133144.010000", "133144.470000", "133144.930000", "133145.390000", "133145.850000", "133146.310000", "133146.770000", "133147.230000", "133147.690000", "133148.150000", "133148.610000", "133149.070000", "133149.530000", "133149.990000", "133150.450000", "133150.910000", "133151.370000", "133151.830000", "133152.290000", "133152.750000", "133153.210000", "133153.670000", "133154.130000", "133154.590000", "133155.050000", "133155.510000", "133155.970000", "133156.430000", "133156.890000", "133157.350000", "133157.810000", "133158.270000", "133158.730000", "133159.190000", "133159.650000", "133200.110000", "133200.570000", "133201.030000", "133201.490000", "133201.950000", "133202.410000", "133202.870000", "133203.330000", "133203.790000", "133204.250000", "133204.710000", "133205.170000", "133205.630000", "133206.090000", "133206.550000", "133207.010000", "133207.470000", "133207.930000", "133208.390000", "133208.850000", "133209.310000", "133209.770000", "133210.230000", "133210.690000", "133211.150000", "133211.610000", "133212.070000", "133212.530000", "133212.990000", "133213.450000", "133213.910000", "133214.370000", "133214.830000", "133215.290000", "133215.750000", "133216.210000", "133216.670000", "133217.130000", "133217.590000", "133218.050000", "133218.510000", "133218.970000", "133219.430000", "133219.890000", "133220.350000", "133220.810000", "133221.270000", "133221.730000", "133222.190000", "133222.650000", "133223.110000", "133223.570000", "133224.030000", "133224.490000", "133224.950000", "133225.410000", "133225.870000", "133226.330000", "133226.790000", "133227.250000", "133227.710000", "133228.170000", "133228.630000", "133229.090000", "133229.550000", "133230.010000", "133230.470000", "133230.930000", "133231.390000", "133231.850000", "133232.310000", "133232.770000", "133233.230000", "133233.690000", "133234.150000", "133234.610000", "133235.070000", "133235.530000", "133235.990000", "133236.450000", "133236.910000", "133237.370000", "133237.830000", "133238.290000", "133238.750000", "133239.210000", "133239.670000", "133240.130000", "133240.590000", "133241.050000", "133241.510000", "133241.970000", "133242.430000", "133242.890000", "133243.350000", "133243.810000", "133244.270000", "133244.730000", "133245.190000", "133245.650000", "133246.110000", "133246.570000", "133247.030000", "133247.490000", "133247.950000", "133248.410000", "133248.870000", "133249.330000", "133249.790000", "133250.250000", "133250.710000", "133251.170000", "133251.630000", "133252.090000", "133252.550000", "133253.010000", "133253.470000", "133253.930000", "133254.390000", "133254.850000", "133255.310000", "133255.770000", "133256.230000", "133256.690000", "133257.150000", "133257.610000", "133258.070000", "133258.530000", "133258.990000", "133259.450000", "133259.910000", "133300.370000", "133300.830000", "133301.290000", "133301.750000", "133302.210000", "133302.670000", "133303.130000", "133303.590000", "133304.050000", "133304.510000", "133304.970000", "133305.430000", "133305.890000", "133306.350000", "133306.810000", "133307.270000", "133307.730000", "133308.190000", "133308.650000", "133309.110000", "133309.570000", "133310.030000", "133310.490000", "133310.950000", "133311.410000", "133311.870000", "133312.330000", "133312.790000", "133313.250000", "133313.710000", "133314.170000", "133314.630000", "133315.090000", "133315.550000", "133316.010000", "133316.470000", "133316.930000", "133317.390000", "133317.850000", "133318.310000", "133318.770000", "133319.230000", "133319.690000", "133320.150000", "133320.610000", "133321.070000", "133321.530000", "133321.990000", "133322.450000", "133322.910000", "133323.370000", "133323.830000", "133324.290000", "133324.750000", "133325.210000", "133325.670000", "133326.130000", "133326.590000", "133327.050000", "133327.510000", "133327.970000", "133328.430000", "133328.890000", "133329.350000", "133329.810000", "133330.270000", "133330.730000", "133331.190000", "133331.650000", "133332.110000", "133332.570000", "133333.030000", "133333.490000", "133333.950000", "133334.410000", "133334.870000", "133335.330000", "133335.790000", "133336.250000", "133336.710000", "133337.170000", "133337.630000", "133338.090000", "133338.550000", "133339.010000", "133339.470000", "133339.930000", "133340.390000", "133340.850000", "133341.310000", "133341.770000", "133342.230000", "133342.690000", "133343.150000", "133343.610000", "133344.070000", "133344.530000", "133344.990000", "133345.450000", "133345.910000", "133346.370000", "133346.830000", "133347.290000", "133347.750000", "133348.210000", "133348.670000", "133349.130000", "133349.590000", "133350.050000", "133350.510000", "133350.970000", "133351.430000", "133351.890000", "133352.350000", "133352.810000", "133353.270000", "133353.730000", "133354.190000", "133354.650000", "133355.110000", "133355.570000", "133356.030000", "133356.490000", "133356.950000", "133357.410000", "133357.870000", "133358.330000", "133358.790000", "133359.250000", "133359.710000", "133400.170000", "133400.630000", "133401.090000", "133401.550000", "133402.010000", "133402.470000", "133402.930000", "133403.390000", "133403.850000", "133404.310000", "133404.770000", "133405.230000", "133405.690000", "133406.150000", "133406.610000", "133407.070000", "133407.530000", "133407.990000", "133408.450000", "133408.910000", "133409.370000", "133409.830000", "133410.290000", "133410.750000", "133411.210000", "133411.670000", "133412.130000", "133412.590000", "133413.050000", "133413.510000", "133413.970000", "133414.430000", "133414.890000", "133415.350000", "133415.810000", "133416.270000", "133416.730000", "133417.190000", "133417.650000", "133418.110000", "133418.570000", "133419.030000", "133419.490000", "133419.950000", "133420.410000", "133420.870000", "133421.330000", "133421.790000", "133422.250000", "133422.710000", "133423.170000", "133423.630000", "133424.090000", "133424.550000", "133425.010000", "133425.470000", "133425.930000", "133426.390000", "133426.850000", "133427.310000", "133427.770000", "133428.230000", "133428.690000", "133429.150000", "133429.610000", "133430.070000", "133430.530000", "133430.990000", "133431.450000", "133431.910000", "133432.370000", "133432.830000", "133433.290000", "133433.750000", "133434.210000", "133434.670000", "133435.130000", "133435.590000", "133436.050000", "133436.510000", "133436.970000", "133437.430000", "133437.890000", "133438.350000", "133438.810000", "133439.270000", "133439.730000", "133440.190000", "133440.650000", "133441.110000", "133441.570000", "133442.030000", "133442.490000", "133442.950000", "133443.410000", "133443.870000", "133444.330000", "133444.790000", "133445.250000", "133445.710000", "133446.170000", "133446.630000", "133447.090000", "133447.550000", "133448.010000", "133448.470000", "133448.930000", "133449.390000", "133449.850000", "133450.310000", "133450.770000", "133451.230000"],
