{
  "AcquisitionMatrixPE": 82,
  "AcquisitionNumber": 1,
  "AcquisitionTime": "13:35:20.757500",
  "BandwidthPerPixelPhaseEncode": 24.888,
  "BaseResolution": 82,
  "BodyPartExamined": "BRAIN",
  "ConsistencyInfo": "N4_VE11E_LATEST_20181129",
  "ConversionSoftware": "dcm2niix",
  "ConversionSoftwareVersion": "v1.0.20201102",
  "DerivedVendorReportedEchoSpacing": 0.00049,
  "DeviceSerialNumber": "66112",
  "DwellTime": 2e-06,
  "EchoTime": 0.0272,
  "EchoTrainLength": 82,
  "EffectiveEchoSpacing": 0.00049,
  "FlipAngle": 44,
  "ImageComments": "Unaliased MB8/PE3",
  "ImageOrientationPatientDICOM": [0.999312, 0.0205425, 0.0308868, -0.0249462, 0.988413, 0.149724],
  "ImageType": [
    "ORIGINAL",
    "PRIMARY",
    "M",
    "MB",
    "ND",
    "NORM",
    "MOSAIC"
],
  "ImagingFrequency": 123.259,
  "InPlanePhaseEncodingDirectionDICOM": "COL",
  "InstitutionAddress": "Maynard 3,Hanover,NH,US,03755",
  "InstitutionName": "Dartmouth College - PBS",
  "InstitutionalDepartmentName": "Department",
  "MRAcquisitionType": "2D",
  "MagneticFieldStrength": 3,
  "Manufacturer": "Siemens",
  "ManufacturersModelName": "Prisma",
  "Modality": "MR",
  "MultibandAccelerationFactor": 8,
  "PartialFourier": 1,
  "PatientPosition": "HFS",
  "PercentPhaseFOV": 100,
  "PercentSampling": 100,
  "PhaseEncodingDirection": "j-",
  "PhaseEncodingSteps": 82,
  "PhaseResolution": 1,
  "PixelBandwidth": 3050,
  "ProcedureStepDescription": "Wager_Wager^1076_spacetop",
  "ProtocolName": "func_run-03_task-faces_acq-ap-mb8",
  "PulseSequenceDetails": "%CustomerSeq%\\cmrr_mbep2d_bold",
  "ReceiveCoilActiveElements": "HEA;HEP",
  "ReceiveCoilName": "Head_32",
  "ReconMatrixPE": 82,
  "RepetitionTime": 0.46,
  "SAR": 0.0862041,
  "ScanOptions": "FS",
  "ScanningSequence": "EP",
  "SequenceName": "epfid2d1_82",
  "SequenceVariant": "SK\\SS",
  "SeriesDescription": "func_run-03_task-faces_acq-ap-mb8",
  "SeriesNumber": 22,
  "ShimSetting": [4222, -7804, -7218, 292, -55, -65, -107, 80],
  "SliceThickness": 2.7,
  "SliceTiming": [0, 0.25, 0.0625, 0.315, 0.125, 0.3775, 0.1875, 0, 0.25, 0.0625, 0.315, 0.125, 0.3775, 0.1875, 0, 0.25, 0.0625, 0.315, 0.125, 0.3775, 0.1875, 0, 0.25, 0.0625, 0.315, 0.125, 0.3775, 0.1875, 0, 0.25, 0.0625, 0.315, 0.125, 0.3775, 0.1875, 0, 0.25, 0.0625, 0.315, 0.125, 0.3775, 0.1875, 0, 0.25, 0.0625, 0.315, 0.125, 0.3775, 0.1875, 0, 0.25, 0.0625, 0.315, 0.125, 0.3775, 0.1875],
  "SoftwareVersions": "syngo MR E11",
  "SpacingBetweenSlices": 2.7,
  "StationName": "AWP66112",
  "TaskName": "faces",
  "TotalReadoutTime": 0.03969,
  "TxRefAmp": 218.424,
  "WipMemBlock": "5c259f44-6d44-496a-81f2-31d7e2f73e16||Sequence: R016 ve11e/master r/434b28f1; Aug  7 2019 18:53:46 by eja",
  "dcmmeta_affine": [
    [-2.6810803413391113, -0.06692880392074585, 0.07412362843751907, 120.0682373046875],
    [-0.055114131420850754, 2.6518397331237793, 0.4060581624507904, -104.01276397705078],
    [0.08286702632904053, -0.4016997516155243, 2.668262243270874, -49.03840637207031],
    [0.0, 0.0, 0.0, 1.0]
],
  "dcmmeta_reorient_transform": [
    [0.0, -1.0, 0.0, 81.0],
    [1.0, 0.0, 0.0, 0.0],
    [0.0, 0.0, 1.0, 0.0],
    [0.0, 0.0, 0.0, 1.0]
],
  "dcmmeta_shape": [82, 82, 56, 914],
  "dcmmeta_slice_dim": 2,
  "dcmmeta_version": 0.6,
  "global": {
    "const": {
      "AccessionNumber": "A004717",
      "AcquisitionMatrix": [82, 0, 0, 82],
      "AngioFlag": "N",
      "BitsAllocated": 16,
      "BitsStored": 16,
      "BodyPartExamined": "BRAIN",
      "Columns": 656,
      "EchoNumbers": 1,
      "EchoTime": 27.2,
      "EchoTrainLength": 82,
      "FlipAngle": 44.0,
      "HighBit": 15,
      "ImageOrientationPatient": [0.99931176796888, 0.02054253899688, 0.03088680123415, -0.0249461907202, 0.98841301001283, 0.14972444424987],
      "ImagePositionPatient": [-864.90851623697, -887.68205281619, -220.64674686121],
      "ImageType": [
        "ORIGINAL",
        "PRIMARY",
        "M",
        "MB",
        "ND",
        "NORM",
        "MOSAIC"
],
      "ImagedNucleus": "1H",
      "ImagingFrequency": 123.259091,
      "InPlanePhaseEncodingDirection": "COL",
      "MRAcquisitionType": "2D",
      "MagneticFieldStrength": 3.0,
      "Manufacturer": "SIEMENS",
      "ManufacturerModelName": "Prisma",
      "Modality": "MR",
      "NumberOfAverages": 1.0,
      "NumberOfPhaseEncodingSteps": 82,
      "PercentPhaseFieldOfView": 100.0,
      "PercentSampling": 100.0,
      "PerformedProcedureStepStartTime": "122807.605000",
      "PhotometricInterpretation": "MONOCHROME2",
      "PixelBandwidth": 3050.0,
      "PixelRepresentation": 0,
      "PixelSpacing": [2.6829268932343, 2.6829268932343],
      "ProtocolName": "func_run-03_task-faces_acq-ap-mb8",
      "RepetitionTime": 460.0,
      "Rows": 656,
      "SAR": 0.08620413207918,
      "SamplesPerPixel": 1,
      "ScanOptions": "FS",
      "ScanningSequence": "EP",
      "SequenceName": "epfid2d1_82",
      "SequenceVariant": [
        "SK",
        "SS"
],
      "SeriesDescription": "func_run-03_task-faces_acq-ap-mb8",
      "SeriesNumber": 22,
      "SeriesTime": "133548.677000",
      "SliceLocation": -60.80839101021,
      "SliceThickness": 2.7000000476837,
      "SmallestImagePixelValue": 0,
      "SoftwareVersions": "syngo MR E11",
      "SpacingBetweenSlices": 2.7000000693213,
      "SpecificCharacterSet": "ISO_IR 100",
      "StudyID": "1",
      "StudyTime": "122807.433000",
      "TransmitCoilName": "Body",
      "VariableFlipAngleFlag": "N",
      "WindowCenterWidthExplanation": "Algo1"
    },
    "slices": {}
  },
  "time": {
    "samples": {
      "AcquisitionNumber": [1, 2, 3, 4, 5, 6, 7, 8, 9, 10, 11, 12, 13, 14, 15, 16, 17, 18, 19, 20, 21, 22, 23, 24, 25, 26, 27, 28, 29, 30, 31, 32, 33, 34, 35, 36, 37, 38, 39, 40, 41, 42, 43, 44, 45, 46, 47, 48, 49, 50, 51, 52, 53, 54, 55, 56, 57, 58, 59, 60, 61, 62, 63, 64, 65, 66, 67, 68, 69, 70, 71, 72, 73, 74, 75, 76, 77, 78, 79, 80, 81, 82, 83, 84, 85, 86, 87, 88, 89, 90, 91, 92, 93, 94, 95, 96, 97, 98, 99, 100, 101, 102, 103, 104, 105, 106, 107, 108, 109, 110, 111, 112, 113, 114, 115, 116, 117, 118, 119, 120, 121, 122, 123, 124, 125, 126, 127, 128, 129, 130, 131, 132, 133, 134, 135, 136, 137, 138, 139, 140, 141, 142, 143, 144, 145, 146, 147, 148, 149, 150, 151, 152, 153, 154, 155, 156, 157, 158, 159, 160, 161, 162, 163, 164, 165, 166, 167, 168, 169, 170, 171, 172, 173, 174, 175, 176, 177, 178, 179, 180, 181, 182, 183, 184, 185, 186, 187, 188, 189, 190, 191, 192, 193, 194, 195, 196, 197, 198, 199, 200, 201, 202, 203, 204, 205, 206, 207, 208, 209, 210, 211, 212, 213, 214, 215, 216, 217, 218, 219, 220, 221, 222, 223, 224, 225, 226, 227, 228, 229, 230, 231, 232, 233, 234, 235, 236, 237, 238, 239, 240, 241, 242, 243, 244, 245, 246, 247, 248, 249, 250, 251, 252, 253, 254, 255, 256, 257, 258, 259, 260, 261, 262, 263, 264, 265, 266, 267, 268, 269, 270, 271, 272, 273, 274, 275, 276, 277, 278, 279, 280, 281, 282, 283, 284, 285, 286, 287, 288, 289, 290, 291, 292, 293, 294, 295, 296, 297, 298, 299, 300, 301, 302, 303, 304, 305, 306, 307, 308, 309, 310, 311, 312, 313, 314, 315, 316, 317, 318, 319, 320, 321, 322, 323, 324, 325, 326, 327, 328, 329, 330, 331, 332, 333, 334, 335, 336, 337, 338, 339, 340, 341, 342, 343, 344, 345, 346, 347, 348, 349, 350, 351, 352, 353, 354, 355, 356, 357, 358, 359, 360, 361, 362, 363, 364, 365, 366, 367, 368, 369, 370, 371, 372, 373, 374, 375, 376, 377, 378, 379, 380, 381, 382, 383, 384, 385, 386, 387, 388, 389, 390, 391, 392, 393, 394, 395, 396, 397, 398, 399, 400, 401, 402, 403, 404, 405, 406, 407, 408, 409, 410, 411, 412, 413, 414, 415, 416, 417, 418, 419, 420, 421, 422, 423, 424, 425, 426, 427, 428, 429, 430, 431, 432, 433, 434, 435, 436, 437, 438, 439, 440, 441, 442, 443, 444, 445, 446, 447, 448, 449, 450, 451, 452, 453, 454, 455, 456, 457, 458, 459, 460, 461, 462, 463, 464, 465, 466, 467, 468, 469, 470, 471, 472, 473, 474, 475, 476, 477, 478, 479, 480, 481, 482, 483, 484, 485, 486, 487, 488, 489, 490, 491, 492, 493, 494, 495, 496, 497, 498, 499, 500, 501, 502, 503, 504, 505, 506, 507, 508, 509, 510, 511, 512, 513, 514, 515, 516, 517, 518, 519, 520, 521, 522, 523, 524, 525, 526, 527, 528, 529, 530, 531, 532, 533, 534, 535, 536, 537, 538, 539, 540, 541, 542, 543, 544, 545, 546, 547, 548, 549, 550, 551, 552, 553, 554, 555, 556, 557, 558, 559, 560, 561, 562, 563, 564, 565, 566, 567, 568, 569, 570, 571, 572, 573, 574, 575, 576, 577, 578, 579, 580, 581, 582, 583, 584, 585, 586, 587, 588, 589, 590, 591, 592, 593, 594, 595, 596, 597, 598, 599, 600, 601, 602, 603, 604, 605, 606, 607, 608, 609, 610, 611, 612, 613, 614, 615, 616, 617, 618, 619, 620, 621, 622, 623, 624, 625, 626, 627, 628, 629, 630, 631, 632, 633, 634, 635, 636, 637, 638, 639, 640, 641, 642, 643, 644, 645, 646, 647, 648, 649, 650, 651, 652, 653, 654, 655, 656, 657, 658, 659, 660, 661, 662, 663, 664, 665, 666, 667, 668, 669, 670, 671, 672, 673, 674, 675, 676, 677, 678, 679, 680, 681, 682, 683, 684, 685, 686, 687, 688, 689, 690, 691, 692, 693, 694, 695, 696, 697, 698, 699, 700, 701, 702, 703, 704, 705, 706, 707, 708, 709, 710, 711, 712, 713, 714, 715, 716, 717, 718, 719, 720, 721, 722, 723, 724, 725, 726, 727, 728, 729, 730, 731, 732, 733, 734, 735, 736, 737, 738, 739, 740, 741, 742, 743, 744, 745, 746, 747, 748, 749, 750, 751, 752, 753, 754, 755, 756, 757, 758, 759, 760, 761, 762, 763, 764, 765, 766, 767, 768, 769, 770, 771, 772, 773, 774, 775, 776, 777, 778, 779, 780, 781, 782, 783, 784, 785, 786, 787, 788, 789, 790, 791, 792, 793, 794, 795, 796, 797, 798, 799, 800, 801, 802, 803, 804, 805, 806, 807, 808, 809, 810, 811, 812, 813, 814, 815, 816, 817, 818, 819, 820, 821, 822, 823, 824, 825, 826, 827, 828, 829, 830, 831, 832, 833, 834, 835, 836, 837, 838, 839, 840, 841, 842, 843, 844, 845, 846, 847, 848, 849, 850, 851, 852, 853, 854, 855, 856, 857, 858, 859, 860, 861, 862, 863, 864, 865, 866, 867, 868, 869, 870, 871, 872, 873, 874, 875, 876, 877, 878, 879, 880, 881, 882, 883, 884, 885, 886, 887, 888, 889, 890, 891, 892, 893, 894, 895, 896, 897, 898, 899, 900, 901, 902, 903, 904, 905, 906, 907, 908, 909, 910, 911, 912, 913, 914],
      "AcquisitionTime": ["133520.757500", "133521.217500", "133521.677500", "133522.137500", "133522.597500", "133523.057500", "133523.517500", "133523.977500", "133524.437500", "133524.897500", "133525.357500", "133525.817500", "133526.277500", "133526.737500", "133527.197500", "133527.657500", "133528.117500", "133528.577500", "133529.037500", "133529.497500", "133529.957500", "133530.417500", "133530.877500", "133531.337500", "133531.797500", "133532.257500", "133532.717500", "133533.177500", "133533.637500", "133534.097500", "133534.557500", "133535.017500", "133535.477500", "133535.937500", "133536.397500", "133536.857500", "133537.317500", "133537.777500", "133538.237500", "133538.697500", "133539.157500", "133539.617500", "133540.077500", "133540.537500", "133540.997500", "133541.457500", "133541.917500", "133542.377500", "133542.837500", "133543.297500", "133543.757500", "133544.217500", "133544.677500", "133545.137500", "133545.597500", "133546.057500", "133546.517500", "133546.977500", "133547.437500", "133547.897500", "133548.357500", "133548.817500", "133549.277500", "133549.737500", "133550.197500", "133550.657500", "133551.117500", "133551.577500", "133552.037500", "133552.497500", "133552.957500", "133553.417500", "133553.877500", "133554.337500", "133554.797500", "133555.257500", "133555.717500", "133556.177500", "133556.637500", "133557.097500", "133557.557500", "133558.017500", "133558.477500", "133558.937500", "133559.397500", "133559.857500", "133600.317500", "133600.777500", "133601.237500", "133601.697500", "133602.157500", "133602.617500", "133603.077500", "133603.537500", "133603.997500", "133604.457500", "133604.917500", "133605.377500", "133605.837500", "133606.297500", "133606.757500", "133607.217500", "133607.677500", "133608.137500", "133608.597500", "133609.057500", "133609.517500", "133609.977500", "133610.437500", "133610.897500", "133611.357500", "133611.817500", "133612.277500", "133612.737500", "133613.197500", "133613.657500", "133614.117500", "133614.577500", "133615.037500", "133615.497500", "133615.957500", "133616.417500", "133616.877500", "133617.337500", "133617.797500", "133618.257500", "133618.717500", "133619.177500", "133619.637500", "133620.097500", "133620.557500", "133621.017500", "133621.477500", "133621.937500", "133622.397500", "133622.857500", "133623.317500", "133623.777500", "133624.237500", "133624.697500", "133625.157500", "133625.617500", "133626.077500", "133626.537500", "133626.997500", "133627.457500", "133627.917500", "133628.377500", "133628.837500", "133629.297500", "133629.757500", "133630.217500", "133630.677500", "133631.137500", "133631.597500", "133632.057500", "133632.517500", "133632.977500", "133633.437500", "133633.897500", "133634.357500", "133634.817500", "133635.277500", "133635.737500", "133636.197500", "133636.657500", "133637.117500", "133637.577500", "133638.037500", "133638.497500", "133638.957500", "133639.417500", "133639.877500", "133640.337500", "133640.797500", "133641.257500", "133641.717500", "133642.177500", "133642.637500", "133643.097500", "133643.557500", "133644.017500", "133644.477500", "133644.937500", "133645.397500", "133645.857500", "133646.317500", "133646.777500", "133647.237500", "133647.697500", "133648.157500", "133648.617500", "133649.077500", "133649.537500", "133649.997500", "133650.457500", "133650.917500", "133651.377500", "133651.837500", "133652.297500", "133652.757500", "133653.217500", "133653.677500", "133654.137500", "133654.597500", "133655.057500", "133655.517500", "133655.977500", "133656.437500", "133656.897500", "133657.357500", "133657.817500", "133658.277500", "133658.737500", "133659.197500", "133659.657500", "133700.117500", "133700.577500", "133701.037500", "133701.497500", "133701.957500", "133702.417500", "133702.877500", "133703.337500", "133703.797500", "133704.257500", "133704.717500", "133705.177500", "133705.637500", "133706.097500", "133706.557500", "133707.017500", "133707.477500", "133707.937500", "133708.397500", "133708.857500", "133709.317500", "133709.777500", "133710.237500", "133710.697500", "133711.157500", "133711.617500", "133712.077500", "133712.537500", "133712.997500", "133713.457500", "133713.917500", "133714.377500", "133714.837500", "133715.297500", "133715.757500", "133716.217500", "133716.677500", "133717.137500", "133717.597500", "133718.057500", "133718.517500", "133718.977500", "133719.437500", "133719.897500", "133720.357500", "133720.817500", "133721.277500", "133721.737500", "133722.197500", "133722.657500", "133723.117500", "133723.577500", "133724.037500", "133724.497500", "133724.957500", "133725.417500", "133725.877500", "133726.337500", "133726.797500", "133727.257500", "133727.717500", "133728.177500", "133728.637500", "133729.097500", "133729.557500", "133730.017500", "133730.477500", "133730.937500", "133731.397500", "133731.857500", "133732.317500", "133732.777500", "133733.237500", "133733.697500", "133734.157500", "133734.617500", "133735.077500", "133735.537500", "133735.997500", "133736.457500", "133736.917500", "133737.377500", "133737.837500", "133738.297500", "133738.757500", "133739.217500", "133739.677500", "133740.137500", "133740.597500", "133741.057500", "133741.517500", "133741.977500", "133742.437500", "133742.897500", "133743.357500", "133743.817500", "133744.277500", "133744.737500", "133745.197500", "133745.657500", "133746.117500", "133746.577500", "133747.037500", "133747.497500", "133747.957500", "133748.417500", "133748.877500", "133749.337500", "133749.797500", "133750.257500", "133750.717500", "133751.177500", "133751.637500", "133752.097500", "133752.557500", "133753.017500", "133753.477500", "133753.937500", "133754.397500", "133754.857500", "133755.317500", "133755.777500", "133756.237500", "133756.697500", "133757.157500", "133757.617500", "133758.077500", "133758.537500", "133758.997500", "133759.457500", "133759.917500", "133800.377500", "133800.837500", "133801.297500", "133801.757500", "133802.217500", "133802.677500", "133803.137500", "133803.597500", "133804.057500", "133804.517500", "133804.977500", "133805.437500", "133805.897500", "133806.357500", "133806.817500", "133807.277500", "133807.737500", "133808.197500", "133808.657500", "133809.117500", "133809.577500", "133810.037500", "133810.497500", "133810.957500", "133811.417500", "133811.877500", "133812.337500", "133812.797500", "133813.257500", "133813.717500", "133814.177500", "133814.637500", "133815.097500", "133815.557500", "133816.017500", "133816.477500", "133816.937500", "133817.397500", "133817.857500", "133818.317500", "133818.777500", "133819.237500", "133819.697500", "133820.157500", "133820.617500", "133821.077500", "133821.537500", "133821.997500", "133822.457500", "133822.917500", "133823.377500", "133823.837500", "133824.297500", "133824.757500", "133825.217500", "133825.677500", "133826.137500", "133826.597500", "133827.057500", "133827.517500", "133827.977500", "133828.437500", "133828.897500", "133829.357500", "133829.817500", "133830.277500", "133830.737500", "133831.197500", "133831.657500", "133832.117500", "133832.577500", "133833.037500", "133833.497500", "133833.957500", "133834.417500", "133834.877500", "133835.337500", "133835.797500", "133836.257500", "133836.717500", "133837.177500", "133837.637500", "133838.097500", "133838.557500", "133839.017500", "133839.477500", "133839.937500", "133840.397500", "133840.857500", "133841.317500", "133841.777500", "133842.237500", "133842.697500", "133843.157500", "133843.617500", "133844.077500", "133844.537500", "133844.997500", "133845.457500", "133845.917500", "133846.377500", "133846.837500", "133847.297500", "133847.757500", "133848.217500", "133848.677500", "133849.137500", "133849.597500", "133850.057500", "133850.517500", "133850.977500", "133851.437500", "133851.897500", "133852.357500", "133852.817500", "133853.277500", "133853.737500", "133854.197500", "133854.657500", "133855.117500", "133855.577500", "133856.037500", "133856.497500", "133856.957500", "133857.417500", "133857.877500", "133858.337500", "133858.797500", "133859.257500", "133859.717500", "133900.177500", "133900.637500", "133901.097500", "133901.557500", "133902.017500", "133902.477500", "133902.937500", "133903.397500", "133903.857500", "133904.317500", "133904.777500", "133905.237500", "133905.697500", "133906.157500", "133906.617500", "133907.077500", "133907.537500", "133907.997500", "133908.457500", "133908.917500", "133909.377500", "133909.837500", "133910.297500", "133910.757500", "133911.217500", "133911.677500", "133912.137500", "133912.597500", "133913.057500", "133913.517500", "133913.977500", "133914.437500", "133914.897500", "133915.357500", "133915.817500", "133916.277500", "133916.737500", "133917.197500", "133917.657500", "133918.117500", "133918.577500", "133919.037500", "133919.497500", "133919.957500", "133920.417500", "133920.877500", "133921.337500", "133921.797500", "133922.257500", "133922.717500", "133923.177500", "133923.637500", "133924.097500", "133924.557500", "133925.017500", "133925.477500", "133925.937500", "133926.397500", "133926.857500", "133927.317500", "133927.777500", "133928.237500", "133928.697500", "133929.157500", "133929.617500", "133930.077500", "133930.537500", "133930.997500", "133931.457500", "133931.917500", "133932.377500", "133932.837500", "133933.297500", "133933.757500", "133934.217500", "133934.677500", "133935.137500", "133935.597500", "133936.057500", "133936.517500", "133936.977500", "133937.437500", "133937.897500", "133938.357500", "133938.817500", "133939.277500", "133939.737500", "133940.197500", "133940.657500", "133941.117500", "133941.577500", "133942.037500", "133942.497500", "133942.957500", "133943.417500", "133943.877500", "133944.337500", "133944.797500", "133945.257500", "133945.717500", "133946.177500", "133946.637500", "133947.097500", "133947.557500", "133948.017500", "133948.477500", "133948.937500", "133949.397500", "133949.857500", "133950.317500", "133950.777500", "133951.237500", "133951.697500", "133952.157500", "133952.617500", "133953.077500", "133953.537500", "133953.997500", "133954.457500", "133954.917500", "133955.377500", "133955.837500", "133956.297500", "133956.757500", "133957.217500", "133957.677500", "133958.137500", "133958.597500", "133959.057500", "133959.517500", "133959.977500", "134000.437500", "134000.897500", "134001.357500", "134001.817500", "134002.277500", "134002.737500", "134003.197500", "134003.657500", "134004.117500", "134004.577500", "134005.037500", "134005.497500", "134005.957500", "134006.417500", "134006.877500", "134007.337500", "134007.797500", "134008.257500", "134008.717500", "134009.177500", "134009.637500", "134010.097500", "134010.557500", "134011.017500", "134011.477500", "134011.937500", "134012.397500", "134012.857500", "134013.317500", "134013.777500", "134014.237500", "134014.697500", "134015.157500", "134015.617500", "134016.077500", "134016.537500", "134016.997500", "134017.457500", "134017.917500", "134018.377500", "134018.837500", "134019.297500", "134019.757500", "134020.217500", "134020.677500", "134021.137500", "134021.597500", "134022.057500", "134022.517500", "134022.977500", "134023.437500", "134023.897500", "134024.357500", "134024.817500", "134025.277500", "134025.737500", "134026.197500", "134026.657500", "134027.117500", "134027.577500", "134028.037500", "134028.497500", "134028.957500", "134029.417500", "134029.877500", "134030.337500", "134030.797500", "134031.257500", "134031.717500", "134032.177500", "134032.637500", "134033.097500", "134033.557500", "134034.017500", "134034.477500", "134034.937500", "134035.397500", "134035.857500", "134036.317500", "134036.777500", "134037.237500", "134037.697500", "134038.157500", "134038.617500", "134039.077500", "134039.537500", "134039.997500", "134040.457500", "134040.917500", "134041.377500", "134041.837500", "134042.297500", "134042.757500", "134043.217500", "134043.677500", "134044.137500", "134044.597500", "134045.057500", "134045.517500", "134045.977500", "134046.437500", "134046.897500", "134047.357500", "134047.817500", "134048.277500", "134048.737500", "134049.197500", "134049.657500", "134050.117500", "134050.577500", "134051.037500", "134051.497500", "134051.957500", "134052.417500", "134052.877500", "134053.337500", "134053.797500", "134054.257500", "134054.717500", "134055.177500", "134055.637500", "134056.097500", "134056.557500", "134057.017500", "134057.477500", "134057.937500", "134058.397500", "134058.857500", "134059.317500", "134059.777500", "134100.237500", "134100.697500", "134101.157500", "134101.617500", "134102.077500", "134102.537500", "134102.997500", "134103.457500", "134103.917500", "134104.377500", "134104.837500", "134105.297500", "134105.757500", "134106.217500", "134106.677500", "134107.137500", "134107.597500", "134108.057500", "134108.517500", "134108.977500", "134109.437500", "134109.897500", "134110.357500", "134110.817500", "134111.277500", "134111.737500", "134112.197500", "134112.657500", "134113.117500", "134113.577500", "134114.037500", "134114.497500", "134114.957500", "134115.417500", "134115.877500", "134116.337500", "134116.797500", "134117.257500", "134117.717500", "134118.177500", "134118.637500", "134119.097500", "134119.557500", "134120.017500", "134120.477500", "134120.937500", "134121.397500", "134121.857500", "134122.317500", "134122.777500", "134123.237500", "134123.697500", "134124.157500", "134124.617500", "134125.077500", "134125.537500", "134125.997500", "134126.457500", "134126.917500", "134127.377500", "134127.837500", "134128.297500", "134128.757500", "134129.217500", "134129.677500", "134130.137500", "134130.597500", "134131.057500", "134131.517500", "134131.977500", "134132.437500", "134132.897500", "134133.357500", "134133.817500", "134134.277500", "134134.737500", "134135.197500", "134135.657500", "134136.117500", "134136.577500", "134137.037500", "134137.497500", "134137.957500", "134138.417500", "134138.877500", "134139.337500", "134139.797500", "134140.257500", "134140.717500", "134141.177500", "134141.637500", "134142.097500", "134142.557500", "134143.017500", "134143.477500", "134143.937500", "134144.397500", "134144.857500", "134145.317500", "134145.777500", "134146.237500", "134146.697500", "134147.157500", "134147.617500", "134148.077500", "134148.537500", "134148.997500", "134149.457500", "134149.917500", "134150.377500", "134150.837500", "134151.297500", "134151.757500", "134152.217500", "134152.677500", "134153.137500", "134153.597500", "134154.057500", "134154.517500", "134154.977500", "134155.437500", "134155.897500", "134156.357500", "134156.817500", "134157.277500", "134157.737500", "134158.197500", "134158.657500", "134159.117500", "134159.577500", "134200.037500", "134200.497500", "134200.957500", "134201.417500", "134201.877500", "134202.337500", "134202.797500", "134203.257500", "134203.717500", "134204.177500", "134204.637500", "134205.097500", "134205.557500", "134206.017500", "134206.477500", "134206.937500", "134207.397500", "134207.857500", "134208.317500", "134208.777500", "134209.237500", "134209.697500", "134210.157500", "134210.617500", "134211.077500", "134211.537500", "134211.997500", "134212.457500", "134212.917500", "134213.377500", "134213.837500", "134214.297500", "134214.757500", "134215.217500", "134215.677500", "134216.137500", "134216.597500", "134217.057500", "134217.517500", "134217.977500", "134218.437500", "134218.897500", "134219.357500", "134219.817500", "134220.277500", "134220.737500"],
