{
  "AcquisitionMatrixPE": 82,
  "AcquisitionNumber": 1,
  "AcquisitionTime": "19:03:41.185000",
  "BandwidthPerPixelPhaseEncode": 24.888,
  "BaseResolution": 82,
  "BodyPartExamined": "BRAIN",
  "ConsistencyInfo": "N4_VE11E_LATEST_20181129",
  "ConversionSoftware": "dcm2niix",
  "ConversionSoftwareVersion": "v1.0.20201102",
  "DerivedVendorReportedEchoSpacing": 0.00049,
  "DeviceSerialNumber": "66112",
  "DwellTime": 2e-06,
  "EchoTime": 0.0272,
  "EchoTrainLength": 82,
  "EffectiveEchoSpacing": 0.00049,
  "FlipAngle": 44,
  "ImageComments": "Unaliased MB8/PE3",
  "ImageOrientationPatientDICOM": [0.998353, -0.0290406, 0.0494762, 0.0216098, 0.989254, 0.144602],
  "ImageType": [
    "ORIGINAL",
    "PRIMARY",
    "M",
    "MB",
    "ND",
    "NORM",
    "MOSAIC"
],
  "ImagingFrequency": 123.252,
  "InPlanePhaseEncodingDirectionDICOM": "COL",
  "InstitutionAddress": "Maynard 3,Hanover,NH,US,03755",
  "InstitutionName": "Dartmouth College - PBS",
  "InstitutionalDepartmentName": "Department",
  "MRAcquisitionType": "2D",
  "MagneticFieldStrength": 3,
  "Manufacturer": "Siemens",
  "ManufacturersModelName": "Prisma",
  "Modality": "MR",
  "MultibandAccelerationFactor": 8,
  "PartialFourier": 1,
  "PatientPosition": "HFS",
  "PercentPhaseFOV": 100,
  "PercentSampling": 100,
  "PhaseEncodingDirection": "j-",
  "PhaseEncodingSteps": 82,
  "PhaseResolution": 1,
  "PixelBandwidth": 3050,
  "ProcedureStepDescription": "Wager_Wager^1076_spacetop",
  "ProtocolName": "func_run-02_task-faces_acq-ap-mb8",
  "PulseSequenceDetails": "%CustomerSeq%\\cmrr_mbep2d_bold",
  "ReceiveCoilActiveElements": "HEA;HEP",
  "ReceiveCoilName": "Head_32",
  "ReconMatrixPE": 82,
  "RepetitionTime": 0.46,
  "SAR": 0.0883246,
  "ScanOptions": "FS",
  "ScanningSequence": "EP",
  "SequenceName": "epfid2d1_82",
  "SequenceVariant": "SK\\SS",
  "SeriesDescription": "func_run-02_task-faces_acq-ap-mb8",
  "SeriesNumber": 18,
  "ShimSetting": [4150, -7739, -7280, 695, -46, -17, -44, 83],
  "SliceThickness": 2.7,
  "SliceTiming": [0, 0.2525, 0.0625, 0.315, 0.125, 0.3775, 0.19, 0, 0.2525, 0.0625, 0.315, 0.125, 0.3775, 0.19, 0, 0.2525, 0.0625, 0.315, 0.125, 0.3775, 0.19, 0, 0.2525, 0.0625, 0.315, 0.125, 0.3775, 0.19, 0, 0.2525, 0.0625, 0.315, 0.125, 0.3775, 0.19, 0, 0.2525, 0.0625, 0.315, 0.125, 0.3775, 0.19, 0, 0.2525, 0.0625, 0.315, 0.125, 0.3775, 0.19, 0, 0.2525, 0.0625, 0.315, 0.125, 0.3775, 0.19],
  "SoftwareVersions": "syngo MR E11",
  "SpacingBetweenSlices": 2.7,
  "StationName": "AWP66112",
  "TaskName": "faces",
  "TotalReadoutTime": 0.03969,
  "TxRefAmp": 230.207,
  "WipMemBlock": "e78b44b1-fc64-41c6-af69-b02f2959b8a9||Sequence: R016 ve11e/master r/434b28f1; Aug  7 2019 18:53:46 by eja",
  "dcmmeta_affine": [
    [-2.6785080432891846, 0.05797749385237694, 0.14348851144313812, 102.58131408691406],
    [0.07791393250226974, 2.6540958881378174, 0.3868960738182068, -112.21342468261719],
    [0.13274110853672028, -0.38795703649520874, 2.668280839920044, -57.98200988769531],
    [0.0, 0.0, 0.0, 1.0]
],
  "dcmmeta_reorient_transform": [
    [0.0, -1.0, 0.0, 81.0],
    [1.0, 0.0, 0.0, 0.0],
    [0.0, 0.0, 1.0, 0.0],
    [0.0, 0.0, 0.0, 1.0]
],
  "dcmmeta_shape": [82, 82, 56, 914],
  "dcmmeta_slice_dim": 2,
  "dcmmeta_version": 0.6,
  "global": {
    "const": {
      "AccessionNumber": "A003975",
      "AcquisitionMatrix": [82, 0, 0, 82],
      "AngioFlag": "N",
      "BitsAllocated": 16,
      "BitsStored": 16,
      "BodyPartExamined": "BRAIN",
      "Columns": 656,
      "EchoNumbers": 1,
      "EchoTime": 27.2,
      "EchoTrainLength": 82,
      "FlipAngle": 44.0,
      "HighBit": 15,
      "ImageOrientationPatient": [0.99835301550827, -0.0290406462114, 0.04947622957709, 0.02160979298544, 0.98925387600043, 0.14460216341833],
      "ImagePositionPatient": [-892.64887017516, -842.13254432418, -238.84689701238],
      "ImageType": [
        "ORIGINAL",
        "PRIMARY",
        "M",
        "MB",
        "ND",
        "NORM",
        "MOSAIC"
],
      "ImagedNucleus": "1H",
      "ImagingFrequency": 123.252212,
      "InPlanePhaseEncodingDirection": "COL",
      "MRAcquisitionType": "2D",
      "MagneticFieldStrength": 3.0,
      "Manufacturer": "SIEMENS",
      "ManufacturerModelName": "Prisma",
      "Modality": "MR",
      "NumberOfAverages": 1.0,
      "NumberOfPhaseEncodingSteps": 82,
      "PercentPhaseFieldOfView": 100.0,
      "PercentSampling": 100.0,
      "PerformedProcedureStepStartTime": "180247.366000",
      "PhotometricInterpretation": "MONOCHROME2",
      "PixelBandwidth": 3050.0,
      "PixelRepresentation": 0,
      "PixelSpacing": [2.6829268932343, 2.6829268932343],
      "ProtocolName": "func_run-02_task-faces_acq-ap-mb8",
      "RepetitionTime": 460.0,
      "Rows": 656,
      "SAR": 0.08832461359954,
      "SamplesPerPixel": 1,
      "ScanOptions": "FS",
      "ScanningSequence": "EP",
      "SequenceName": "epfid2d1_82",
      "SequenceVariant": [
        "SK",
        "SS"
],
      "SeriesDescription": "func_run-02_task-faces_acq-ap-mb8",
      "SeriesNumber": 18,
      "SeriesTime": "190353.796000",
      "SliceLocation": -67.928880987665,
      "SliceThickness": 2.7000000476837,
      "SmallestImagePixelValue": 0,
      "SoftwareVersions": "syngo MR E11",
      "SpacingBetweenSlices": 2.7000000517446,
      "SpecificCharacterSet": "ISO_IR 100",
      "StudyID": "1",
      "StudyTime": "180247.311000",
      "TransmitCoilName": "Body",
      "VariableFlipAngleFlag": "N",
      "WindowCenterWidthExplanation": "Algo1"
    },
    "slices": {}
  },
  "time": {
    "samples": {
      "AcquisitionNumber": [1, 2, 3, 4, 5, 6, 7, 8, 9, 10, 11, 12, 13, 14, 15, 16, 17, 18, 19, 20, 21, 22, 23, 24, 25, 26, 27, 28, 29, 30, 31, 32, 33, 34, 35, 36, 37, 38, 39, 40, 41, 42, 43, 44, 45, 46, 47, 48, 49, 50, 51, 52, 53, 54, 55, 56, 57, 58, 59, 60, 61, 62, 63, 64, 65, 66, 67, 68, 69, 70, 71, 72, 73, 74, 75, 76, 77, 78, 79, 80, 81, 82, 83, 84, 85, 86, 87, 88, 89, 90, 91, 92, 93, 94, 95, 96, 97, 98, 99, 100, 101, 102, 103, 104, 105, 106, 107, 108, 109, 110, 111, 112, 113, 114, 115, 116, 117, 118, 119, 120, 121, 122, 123, 124, 125, 126, 127, 128, 129, 130, 131, 132, 133, 134, 135, 136, 137, 138, 139, 140, 141, 142, 143, 144, 145, 146, 147, 148, 149, 150, 151, 152, 153, 154, 155, 156, 157, 158, 159, 160, 161, 162, 163, 164, 165, 166, 167, 168, 169, 170, 171, 172, 173, 174, 175, 176, 177, 178, 179, 180, 181, 182, 183, 184, 185, 186, 187, 188, 189, 190, 191, 192, 193, 194, 195, 196, 197, 198, 199, 200, 201, 202, 203, 204, 205, 206, 207, 208, 209, 210, 211, 212, 213, 214, 215, 216, 217, 218, 219, 220, 221, 222, 223, 224, 225, 226, 227, 228, 229, 230, 231, 232, 233, 234, 235, 236, 237, 238, 239, 240, 241, 242, 243, 244, 245, 246, 247, 248, 249, 250, 251, 252, 253, 254, 255, 256, 257, 258, 259, 260, 261, 262, 263, 264, 265, 266, 267, 268, 269, 270, 271, 272, 273, 274, 275, 276, 277, 278, 279, 280, 281, 282, 283, 284, 285, 286, 287, 288, 289, 290, 291, 292, 293, 294, 295, 296, 297, 298, 299, 300, 301, 302, 303, 304, 305, 306, 307, 308, 309, 310, 311, 312, 313, 314, 315, 316, 317, 318, 319, 320, 321, 322, 323, 324, 325, 326, 327, 328, 329, 330, 331, 332, 333, 334, 335, 336, 337, 338, 339, 340, 341, 342, 343, 344, 345, 346, 347, 348, 349, 350, 351, 352, 353, 354, 355, 356, 357, 358, 359, 360, 361, 362, 363, 364, 365, 366, 367, 368, 369, 370, 371, 372, 373, 374, 375, 376, 377, 378, 379, 380, 381, 382, 383, 384, 385, 386, 387, 388, 389, 390, 391, 392, 393, 394, 395, 396, 397, 398, 399, 400, 401, 402, 403, 404, 405, 406, 407, 408, 409, 410, 411, 412, 413, 414, 415, 416, 417, 418, 419, 420, 421, 422, 423, 424, 425, 426, 427, 428, 429, 430, 431, 432, 433, 434, 435, 436, 437, 438, 439, 440, 441, 442, 443, 444, 445, 446, 447, 448, 449, 450, 451, 452, 453, 454, 455, 456, 457, 458, 459, 460, 461, 462, 463, 464, 465, 466, 467, 468, 469, 470, 471, 472, 473, 474, 475, 476, 477, 478, 479, 480, 481, 482, 483, 484, 485, 486, 487, 488, 489, 490, 491, 492, 493, 494, 495, 496, 497, 498, 499, 500, 501, 502, 503, 504, 505, 506, 507, 508, 509, 510, 511, 512, 513, 514, 515, 516, 517, 518, 519, 520, 521, 522, 523, 524, 525, 526, 527, 528, 529, 530, 531, 532, 533, 534, 535, 536, 537, 538, 539, 540, 541, 542, 543, 544, 545, 546, 547, 548, 549, 550, 551, 552, 553, 554, 555, 556, 557, 558, 559, 560, 561, 562, 563, 564, 565, 566, 567, 568, 569, 570, 571, 572, 573, 574, 575, 576, 577, 578, 579, 580, 581, 582, 583, 584, 585, 586, 587, 588, 589, 590, 591, 592, 593, 594, 595, 596, 597, 598, 599, 600, 601, 602, 603, 604, 605, 606, 607, 608, 609, 610, 611, 612, 613, 614, 615, 616, 617, 618, 619, 620, 621, 622, 623, 624, 625, 626, 627, 628, 629, 630, 631, 632, 633, 634, 635, 636, 637, 638, 639, 640, 641, 642, 643, 644, 645, 646, 647, 648, 649, 650, 651, 652, 653, 654, 655, 656, 657, 658, 659, 660, 661, 662, 663, 664, 665, 666, 667, 668, 669, 670, 671, 672, 673, 674, 675, 676, 677, 678, 679, 680, 681, 682, 683, 684, 685, 686, 687, 688, 689, 690, 691, 692, 693, 694, 695, 696, 697, 698, 699, 700, 701, 702, 703, 704, 705, 706, 707, 708, 709, 710, 711, 712, 713, 714, 715, 716, 717, 718, 719, 720, 721, 722, 723, 724, 725, 726, 727, 728, 729, 730, 731, 732, 733, 734, 735, 736, 737, 738, 739, 740, 741, 742, 743, 744, 745, 746, 747, 748, 749, 750, 751, 752, 753, 754, 755, 756, 757, 758, 759, 760, 761, 762, 763, 764, 765, 766, 767, 768, 769, 770, 771, 772, 773, 774, 775, 776, 777, 778, 779, 780, 781, 782, 783, 784, 785, 786, 787, 788, 789, 790, 791, 792, 793, 794, 795, 796, 797, 798, 799, 800, 801, 802, 803, 804, 805, 806, 807, 808, 809, 810, 811, 812, 813, 814, 815, 816, 817, 818, 819, 820, 821, 822, 823, 824, 825, 826, 827, 828, 829, 830, 831, 832, 833, 834, 835, 836, 837, 838, 839, 840, 841, 842, 843, 844, 845, 846, 847, 848, 849, 850, 851, 852, 853, 854, 855, 856, 857, 858, 859, 860, 861, 862, 863, 864, 865, 866, 867, 868, 869, 870, 871, 872, 873, 874, 875, 876, 877, 878, 879, 880, 881, 882, 883, 884, 885, 886, 887, 888, 889, 890, 891, 892, 893, 894, 895, 896, 897, 898, 899, 900, 901, 902, 903, 904, 905, 906, 907, 908, 909, 910, 911, 912, 913, 914],
      "AcquisitionTime": ["190341.185000", "190341.645000", "190342.105000", "190342.565000", "190343.025000", "190343.485000", "190343.945000", "190344.405000", "190344.865000", "190345.325000", "190345.785000", "190346.245000", "190346.705000", "190347.165000", "190347.625000", "190348.085000", "190348.545000", "190349.005000", "190349.465000", "190349.925000", "190350.385000", "190350.845000", "190351.305000", "190351.765000", "190352.225000", "190352.685000", "190353.145000", "190353.605000", "190354.065000", "190354.525000", "190354.985000", "190355.445000", "190355.905000", "190356.365000", "190356.825000", "190357.285000", "190357.745000", "190358.205000", "190358.665000", "190359.125000", "190359.585000", "190400.045000", "190400.505000", "190400.965000", "190401.425000", "190401.885000", "190402.345000", "190402.805000", "190403.265000", "190403.725000", "190404.185000", "190404.645000", "190405.105000", "190405.565000", "190406.025000", "190406.485000", "190406.945000", "190407.405000", "190407.865000", "190408.325000", "190408.785000", "190409.245000", "190409.705000", "190410.165000", "190410.625000", "190411.085000", "190411.545000", "190412.005000", "190412.465000", "190412.925000", "190413.385000", "190413.845000", "190414.305000", "190414.765000", "190415.225000", "190415.685000", "190416.145000", "190416.605000", "190417.065000", "190417.525000", "190417.985000", "190418.445000", "190418.905000", "190419.365000", "190419.825000", "190420.285000", "190420.745000", "190421.205000", "190421.665000", "190422.125000", "190422.585000", "190423.045000", "190423.505000", "190423.965000", "190424.425000", "190424.885000", "190425.345000", "190425.805000", "190426.265000", "190426.725000", "190427.185000", "190427.645000", "190428.105000", "190428.565000", "190429.025000", "190429.485000", "190429.945000", "190430.405000", "190430.865000", "190431.325000", "190431.785000", "190432.245000", "190432.705000", "190433.165000", "190433.625000", "190434.085000", "190434.545000", "190435.005000", "190435.465000", "190435.925000", "190436.385000", "190436.845000", "190437.305000", "190437.765000", "190438.225000", "190438.685000", "190439.145000", "190439.605000", "190440.065000", "190440.525000", "190440.985000", "190441.445000", "190441.905000", "190442.365000", "190442.825000", "190443.285000", "190443.745000", "190444.205000", "190444.665000", "190445.125000", "190445.585000", "190446.045000", "190446.505000", "190446.965000", "190447.425000", "190447.885000", "190448.345000", "190448.805000", "190449.265000", "190449.725000", "190450.185000", "190450.645000", "190451.105000", "190451.565000", "190452.025000", "190452.485000", "190452.945000", "190453.405000", "190453.865000", "190454.325000", "190454.785000", "190455.245000", "190455.705000", "190456.165000", "190456.625000", "190457.085000", "190457.545000", "190458.005000", "190458.465000", "190458.925000", "190459.385000", "190459.845000", "190500.305000", "190500.765000", "190501.225000", "190501.685000", "190502.145000", "190502.605000", "190503.065000", "190503.525000", "190503.985000", "190504.445000", "190504.905000", "190505.365000", "190505.825000", "190506.285000", "190506.745000", "190507.205000", "190507.665000", "190508.125000", "190508.585000", "190509.045000", "190509.505000", "190509.965000", "190510.425000", "190510.885000", "190511.345000", "190511.805000", "190512.265000", "190512.725000", "190513.185000", "190513.645000", "190514.105000", "190514.565000", "190515.025000", "190515.485000", "190515.945000", "190516.405000", "190516.865000", "190517.325000", "190517.785000", "190518.245000", "190518.705000", "190519.165000", "190519.625000", "190520.085000", "190520.545000", "190521.005000", "190521.465000", "190521.925000", "190522.385000", "190522.845000", "190523.305000", "190523.765000", "190524.225000", "190524.685000", "190525.145000", "190525.605000", "190526.065000", "190526.525000", "190526.985000", "190527.445000", "190527.905000", "190528.365000", "190528.825000", "190529.285000", "190529.745000", "190530.205000", "190530.665000", "190531.125000", "190531.585000", "190532.045000", "190532.505000", "190532.965000", "190533.425000", "190533.885000", "190534.345000", "190534.805000", "190535.265000", "190535.725000", "190536.185000", "190536.645000", "190537.105000", "190537.565000", "190538.025000", "190538.485000", "190538.945000", "190539.405000", "190539.865000", "190540.325000", "190540.785000", "190541.245000", "190541.705000", "190542.165000", "190542.625000", "190543.085000", "190543.545000", "190544.005000", "190544.465000", "190544.925000", "190545.385000", "190545.845000", "190546.305000", "190546.765000", "190547.225000", "190547.685000", "190548.145000", "190548.605000", "190549.065000", "190549.525000", "190549.985000", "190550.445000", "190550.905000", "190551.365000", "190551.825000", "190552.285000", "190552.745000", "190553.205000", "190553.665000", "190554.125000", "190554.585000", "190555.045000", "190555.505000", "190555.965000", "190556.425000", "190556.885000", "190557.345000", "190557.805000", "190558.265000", "190558.725000", "190559.185000", "190559.645000", "190600.105000", "190600.565000", "190601.025000", "190601.485000", "190601.945000", "190602.405000", "190602.865000", "190603.325000", "190603.785000", "190604.245000", "190604.705000", "190605.165000", "190605.625000", "190606.085000", "190606.545000", "190607.005000", "190607.465000", "190607.925000", "190608.385000", "190608.845000", "190609.305000", "190609.765000", "190610.225000", "190610.685000", "190611.145000", "190611.605000", "190612.065000", "190612.525000", "190612.985000", "190613.445000", "190613.905000", "190614.365000", "190614.825000", "190615.285000", "190615.745000", "190616.205000", "190616.665000", "190617.125000", "190617.585000", "190618.045000", "190618.505000", "190618.965000", "190619.425000", "190619.885000", "190620.345000", "190620.805000", "190621.265000", "190621.725000", "190622.185000", "190622.645000", "190623.105000", "190623.565000", "190624.025000", "190624.485000", "190624.945000", "190625.405000", "190625.865000", "190626.325000", "190626.785000", "190627.245000", "190627.705000", "190628.165000", "190628.625000", "190629.085000", "190629.545000", "190630.005000", "190630.465000", "190630.925000", "190631.385000", "190631.845000", "190632.305000", "190632.765000", "190633.225000", "190633.685000", "190634.145000", "190634.605000", "190635.065000", "190635.525000", "190635.985000", "190636.445000", "190636.905000", "190637.365000", "190637.825000", "190638.285000", "190638.745000", "190639.205000", "190639.665000", "190640.125000", "190640.585000", "190641.045000", "190641.505000", "190641.965000", "190642.425000", "190642.885000", "190643.345000", "190643.805000", "190644.265000", "190644.725000", "190645.185000", "190645.645000", "190646.105000", "190646.565000", "190647.025000", "190647.485000", "190647.945000", "190648.405000", "190648.865000", "190649.325000", "190649.785000", "190650.245000", "190650.705000", "190651.165000", "190651.625000", "190652.085000", "190652.545000", "190653.005000", "190653.465000", "190653.925000", "190654.385000", "190654.845000", "190655.305000", "190655.765000", "190656.225000", "190656.685000", "190657.145000", "190657.605000", "190658.065000", "190658.525000", "190658.985000", "190659.445000", "190659.905000", "190700.365000", "190700.825000", "190701.285000", "190701.745000", "190702.205000", "190702.665000", "190703.125000", "190703.585000", "190704.045000", "190704.505000", "190704.965000", "190705.425000", "190705.885000", "190706.345000", "190706.805000", "190707.265000", "190707.725000", "190708.185000", "190708.645000", "190709.105000", "190709.565000", "190710.025000", "190710.485000", "190710.945000", "190711.405000", "190711.865000", "190712.325000", "190712.785000", "190713.245000", "190713.705000", "190714.165000", "190714.625000", "190715.085000", "190715.545000", "190716.005000", "190716.465000", "190716.925000", "190717.385000", "190717.845000", "190718.305000", "190718.765000", "190719.225000", "190719.685000", "190720.145000", "190720.605000", "190721.065000", "190721.525000", "190721.985000", "190722.445000", "190722.905000", "190723.365000", "190723.825000", "190724.285000", "190724.745000", "190725.205000", "190725.665000", "190726.125000", "190726.585000", "190727.045000", "190727.505000", "190727.965000", "190728.425000", "190728.885000", "190729.345000", "190729.805000", "190730.265000", "190730.725000", "190731.185000", "190731.645000", "190732.105000", "190732.565000", "190733.025000", "190733.485000", "190733.945000", "190734.405000", "190734.865000", "190735.325000", "190735.785000", "190736.245000", "190736.705000", "190737.165000", "190737.625000", "190738.085000", "190738.545000", "190739.005000", "190739.465000", "190739.925000", "190740.385000", "190740.845000", "190741.305000", "190741.765000", "190742.225000", "190742.685000", "190743.145000", "190743.605000", "190744.065000", "190744.525000", "190744.985000", "190745.445000", "190745.905000", "190746.365000", "190746.825000", "190747.285000", "190747.745000", "190748.205000", "190748.665000", "190749.125000", "190749.585000", "190750.045000", "190750.505000", "190750.965000", "190751.425000", "190751.885000", "190752.345000", "190752.805000", "190753.265000", "190753.725000", "190754.185000", "190754.645000", "190755.105000", "190755.565000", "190756.025000", "190756.485000", "190756.945000", "190757.405000", "190757.865000", "190758.325000", "190758.785000", "190759.245000", "190759.705000", "190800.165000", "190800.625000", "190801.085000", "190801.545000", "190802.005000", "190802.465000", "190802.925000", "190803.385000", "190803.845000", "190804.305000", "190804.765000", "190805.225000", "190805.685000", "190806.145000", "190806.605000", "190807.065000", "190807.525000", "190807.985000", "190808.445000", "190808.905000", "190809.365000", "190809.825000", "190810.285000", "190810.745000", "190811.205000", "190811.665000", "190812.125000", "190812.585000", "190813.045000", "190813.505000", "190813.965000", "190814.425000", "190814.885000", "190815.345000", "190815.805000", "190816.265000", "190816.725000", "190817.185000", "190817.645000", "190818.105000", "190818.565000", "190819.025000", "190819.485000", "190819.945000", "190820.405000", "190820.865000", "190821.325000", "190821.785000", "190822.245000", "190822.705000", "190823.165000", "190823.625000", "190824.085000", "190824.545000", "190825.005000", "190825.465000", "190825.925000", "190826.385000", "190826.845000", "190827.305000", "190827.765000", "190828.225000", "190828.685000", "190829.145000", "190829.605000", "190830.065000", "190830.525000", "190830.985000", "190831.445000", "190831.905000", "190832.365000", "190832.825000", "190833.285000", "190833.745000", "190834.205000", "190834.665000", "190835.125000", "190835.585000", "190836.045000", "190836.505000", "190836.965000", "190837.425000", "190837.885000", "190838.345000", "190838.805000", "190839.265000", "190839.725000", "190840.185000", "190840.645000", "190841.105000", "190841.565000", "190842.025000", "190842.485000", "190842.945000", "190843.405000", "190843.865000", "190844.325000", "190844.785000", "190845.245000", "190845.705000", "190846.165000", "190846.625000", "190847.085000", "190847.545000", "190848.005000", "190848.465000", "190848.925000", "190849.385000", "190849.845000", "190850.305000", "190850.765000", "190851.225000", "190851.685000", "190852.145000", "190852.605000", "190853.065000", "190853.525000", "190853.985000", "190854.445000", "190854.905000", "190855.365000", "190855.825000", "190856.285000", "190856.745000", "190857.205000", "190857.665000", "190858.125000", "190858.585000", "190859.045000", "190859.505000", "190859.965000", "190900.425000", "190900.885000", "190901.345000", "190901.805000", "190902.265000", "190902.725000", "190903.185000", "190903.645000", "190904.105000", "190904.565000", "190905.025000", "190905.485000", "190905.945000", "190906.405000", "190906.865000", "190907.325000", "190907.785000", "190908.245000", "190908.705000", "190909.165000", "190909.625000", "190910.085000", "190910.545000", "190911.005000", "190911.465000", "190911.925000", "190912.385000", "190912.845000", "190913.305000", "190913.765000", "190914.225000", "190914.685000", "190915.145000", "190915.605000", "190916.065000", "190916.525000", "190916.985000", "190917.445000", "190917.905000", "190918.365000", "190918.825000", "190919.285000", "190919.745000", "190920.205000", "190920.665000", "190921.125000", "190921.585000", "190922.045000", "190922.505000", "190922.965000", "190923.425000", "190923.885000", "190924.345000", "190924.805000", "190925.265000", "190925.725000", "190926.185000", "190926.645000", "190927.105000", "190927.565000", "190928.025000", "190928.485000", "190928.945000", "190929.405000", "190929.865000", "190930.325000", "190930.785000", "190931.245000", "190931.705000", "190932.165000", "190932.625000", "190933.085000", "190933.545000", "190934.005000", "190934.465000", "190934.925000", "190935.385000", "190935.845000", "190936.305000", "190936.765000", "190937.225000", "190937.685000", "190938.145000", "190938.605000", "190939.065000", "190939.525000", "190939.985000", "190940.445000", "190940.905000", "190941.365000", "190941.825000", "190942.285000", "190942.745000", "190943.205000", "190943.665000", "190944.125000", "190944.585000", "190945.045000", "190945.505000", "190945.965000", "190946.425000", "190946.885000", "190947.345000", "190947.805000", "190948.265000", "190948.725000", "190949.185000", "190949.645000", "190950.105000", "190950.565000", "190951.025000", "190951.485000", "190951.945000", "190952.405000", "190952.865000", "190953.325000", "190953.785000", "190954.245000", "190954.705000", "190955.165000", "190955.625000", "190956.085000", "190956.545000", "190957.005000", "190957.465000", "190957.925000", "190958.385000", "190958.845000", "190959.305000", "190959.765000", "191000.225000", "191000.685000", "191001.145000", "191001.605000", "191002.065000", "191002.525000", "191002.985000", "191003.445000", "191003.905000", "191004.365000", "191004.825000", "191005.285000", "191005.745000", "191006.205000", "191006.665000", "191007.125000", "191007.585000", "191008.045000", "191008.505000", "191008.965000", "191009.425000", "191009.885000", "191010.345000", "191010.805000", "191011.265000", "191011.725000", "191012.185000", "191012.645000", "191013.105000", "191013.565000", "191014.025000", "191014.485000", "191014.945000", "191015.405000", "191015.865000", "191016.325000", "191016.785000", "191017.245000", "191017.705000", "191018.165000", "191018.625000", "191019.085000", "191019.545000", "191020.005000", "191020.465000", "191020.925000", "191021.385000", "191021.845000", "191022.305000", "191022.765000", "191023.225000", "191023.685000", "191024.145000", "191024.605000", "191025.065000", "191025.525000", "191025.985000", "191026.445000", "191026.905000", "191027.365000", "191027.825000", "191028.285000", "191028.745000", "191029.205000", "191029.665000", "191030.125000", "191030.585000", "191031.045000", "191031.505000", "191031.965000", "191032.425000", "191032.885000", "191033.345000", "191033.805000", "191034.265000", "191034.725000", "191035.185000", "191035.645000", "191036.105000", "191036.565000", "191037.025000", "191037.485000", "191037.945000", "191038.405000", "191038.865000", "191039.325000", "191039.785000", "191040.245000", "191040.705000", "191041.165000"],
