{
  "AcquisitionMatrixPE": 82,
  "AcquisitionNumber": 1,
  "AcquisitionTime": "18:56:16.402500",
  "BandwidthPerPixelPhaseEncode": 24.888,
  "BaseResolution": 82,
  "BodyPartExamined": "BRAIN",
  "ConsistencyInfo": "N4_VE11E_LATEST_20181129",
  "ConversionSoftware": "dcm2niix",
  "ConversionSoftwareVersion": "v1.0.20201102",
  "DerivedVendorReportedEchoSpacing": 0.00049,
  "DeviceSerialNumber": "66112",
  "DwellTime": 2e-06,
  "EchoTime": 0.0272,
  "EchoTrainLength": 82,
  "EffectiveEchoSpacing": 0.00049,
  "FlipAngle": 44,
  "ImageComments": "Unaliased MB8/PE3",
  "ImageOrientationPatientDICOM": [0.998353, -0.0290406, 0.0494762, 0.0216098, 0.989254, 0.144602],
  "ImageType": [
    "ORIGINAL",
    "PRIMARY",
    "M",
    "MB",
    "ND",
    "NORM",
    "MOSAIC"
],
  "ImagingFrequency": 123.252,
  "InPlanePhaseEncodingDirectionDICOM": "COL",
  "InstitutionAddress": "Maynard 3,Hanover,NH,US,03755",
  "InstitutionName": "Dartmouth College - PBS",
  "InstitutionalDepartmentName": "Department",
  "MRAcquisitionType": "2D",
  "MagneticFieldStrength": 3,
  "Manufacturer": "Siemens",
  "ManufacturersModelName": "Prisma",
  "Modality": "MR",
  "MultibandAccelerationFactor": 8,
  "PartialFourier": 1,
  "PatientPosition": "HFS",
  "PercentPhaseFOV": 100,
  "PercentSampling": 100,
  "PhaseEncodingDirection": "j-",
  "PhaseEncodingSteps": 82,
  "PhaseResolution": 1,
  "PixelBandwidth": 3050,
  "ProcedureStepDescription": "Wager_Wager^1076_spacetop",
  "ProtocolName": "func_run-01_task-faces_acq-ap-mb8",
  "PulseSequenceDetails": "%CustomerSeq%\\cmrr_mbep2d_bold",
  "ReceiveCoilActiveElements": "HEA;HEP",
  "ReceiveCoilName": "Head_32",
  "ReconMatrixPE": 82,
  "RepetitionTime": 0.46,
  "SAR": 0.0883246,
  "ScanOptions": "FS",
  "ScanningSequence": "EP",
  "SequenceName": "epfid2d1_82",
  "SequenceVariant": "SK\\SS",
  "SeriesDescription": "func_run-01_task-faces_acq-ap-mb8",
  "SeriesNumber": 16,
  "ShimSetting": [4150, -7739, -7280, 695, -46, -17, -44, 83],
  "SliceThickness": 2.7,
  "SliceTiming": [0, 0.2525, 0.0625, 0.315, 0.125, 0.3775, 0.1875, 0, 0.2525, 0.0625, 0.315, 0.125, 0.3775, 0.1875, 0, 0.2525, 0.0625, 0.315, 0.125, 0.3775, 0.1875, 0, 0.2525, 0.0625, 0.315, 0.125, 0.3775, 0.1875, 0, 0.2525, 0.0625, 0.315, 0.125, 0.3775, 0.1875, 0, 0.2525, 0.0625, 0.315, 0.125, 0.3775, 0.1875, 0, 0.2525, 0.0625, 0.315, 0.125, 0.3775, 0.1875, 0, 0.2525, 0.0625, 0.315, 0.125, 0.3775, 0.1875],
  "SoftwareVersions": "syngo MR E11",
  "SpacingBetweenSlices": 2.7,
  "StationName": "AWP66112",
  "TaskName": "faces",
  "TotalReadoutTime": 0.03969,
  "TxRefAmp": 230.207,
  "WipMemBlock": "82a48ac3-812c-4921-9b53-58ea4273c8cc||Sequence: R016 ve11e/master r/434b28f1; Aug  7 2019 18:53:46 by eja",
  "dcmmeta_affine": [
    [-2.6785080432891846, 0.05797749385237694, 0.14348851144313812, 102.58131408691406],
    [0.07791393250226974, 2.6540958881378174, 0.3868960738182068, -112.21342468261719],
    [0.13274110853672028, -0.38795703649520874, 2.668280839920044, -57.98200988769531],
    [0.0, 0.0, 0.0, 1.0]
],
  "dcmmeta_reorient_transform": [
    [0.0, -1.0, 0.0, 81.0],
    [1.0, 0.0, 0.0, 0.0],
    [0.0, 0.0, 1.0, 0.0],
    [0.0, 0.0, 0.0, 1.0]
],
  "dcmmeta_shape": [82, 82, 56, 914],
  "dcmmeta_slice_dim": 2,
  "dcmmeta_version": 0.6,
  "global": {
    "const": {
      "AccessionNumber": "A003975",
      "AcquisitionMatrix": [82, 0, 0, 82],
      "AngioFlag": "N",
      "BitsAllocated": 16,
      "BitsStored": 16,
      "BodyPartExamined": "BRAIN",
      "Columns": 656,
      "EchoNumbers": 1,
      "EchoTime": 27.2,
      "EchoTrainLength": 82,
      "FlipAngle": 44.0,
      "HighBit": 15,
      "ImageOrientationPatient": [0.99835301550827, -0.0290406462114, 0.04947622957709, 0.02160979298544, 0.98925387600043, 0.14460216341833],
      "ImagePositionPatient": [-892.64887017516, -842.13254432418, -238.84689701238],
      "ImageType": [
        "ORIGINAL",
        "PRIMARY",
        "M",
        "MB",
        "ND",
        "NORM",
        "MOSAIC"
],
      "ImagedNucleus": "1H",
      "ImagingFrequency": 123.252211,
      "InPlanePhaseEncodingDirection": "COL",
      "MRAcquisitionType": "2D",
      "MagneticFieldStrength": 3.0,
      "Manufacturer": "SIEMENS",
      "ManufacturerModelName": "Prisma",
      "Modality": "MR",
      "NumberOfAverages": 1.0,
      "NumberOfPhaseEncodingSteps": 82,
      "PercentPhaseFieldOfView": 100.0,
      "PercentSampling": 100.0,
      "PerformedProcedureStepStartTime": "180247.366000",
      "PhotometricInterpretation": "MONOCHROME2",
      "PixelBandwidth": 3050.0,
      "PixelRepresentation": 0,
      "PixelSpacing": [2.6829268932343, 2.6829268932343],
      "ProtocolName": "func_run-01_task-faces_acq-ap-mb8",
      "RepetitionTime": 460.0,
      "Rows": 656,
      "SAR": 0.08832461359954,
      "SamplesPerPixel": 1,
      "ScanOptions": "FS",
      "ScanningSequence": "EP",
      "SequenceName": "epfid2d1_82",
      "SequenceVariant": [
        "SK",
        "SS"
],
      "SeriesDescription": "func_run-01_task-faces_acq-ap-mb8",
      "SeriesNumber": 16,
      "SeriesTime": "185633.682000",
      "SliceLocation": -67.928880987665,
      "SliceThickness": 2.7000000476837,
      "SmallestImagePixelValue": 0,
      "SoftwareVersions": "syngo MR E11",
      "SpacingBetweenSlices": 2.7000000517446,
      "SpecificCharacterSet": "ISO_IR 100",
      "StudyID": "1",
      "StudyTime": "180247.311000",
      "TransmitCoilName": "Body",
      "VariableFlipAngleFlag": "N",
      "WindowCenterWidthExplanation": "Algo1"
    },
    "slices": {}
  },
  "time": {
    "samples": {
      "AcquisitionNumber": [1, 2, 3, 4, 5, 6, 7, 8, 9, 10, 11, 12, 13, 14, 15, 16, 17, 18, 19, 20, 21, 22, 23, 24, 25, 26, 27, 28, 29, 30, 31, 32, 33, 34, 35, 36, 37, 38, 39, 40, 41, 42, 43, 44, 45, 46, 47, 48, 49, 50, 51, 52, 53, 54, 55, 56, 57, 58, 59, 60, 61, 62, 63, 64, 65, 66, 67, 68, 69, 70, 71, 72, 73, 74, 75, 76, 77, 78, 79, 80, 81, 82, 83, 84, 85, 86, 87, 88, 89, 90, 91, 92, 93, 94, 95, 96, 97, 98, 99, 100, 101, 102, 103, 104, 105, 106, 107, 108, 109, 110, 111, 112, 113, 114, 115, 116, 117, 118, 119, 120, 121, 122, 123, 124, 125, 126, 127, 128, 129, 130, 131, 132, 133, 134, 135, 136, 137, 138, 139, 140, 141, 142, 143, 144, 145, 146, 147, 148, 149, 150, 151, 152, 153, 154, 155, 156, 157, 158, 159, 160, 161, 162, 163, 164, 165, 166, 167, 168, 169, 170, 171, 172, 173, 174, 175, 176, 177, 178, 179, 180, 181, 182, 183, 184, 185, 186, 187, 188, 189, 190, 191, 192, 193, 194, 195, 196, 197, 198, 199, 200, 201, 202, 203, 204, 205, 206, 207, 208, 209, 210, 211, 212, 213, 214, 215, 216, 217, 218, 219, 220, 221, 222, 223, 224, 225, 226, 227, 228, 229, 230, 231, 232, 233, 234, 235, 236, 237, 238, 239, 240, 241, 242, 243, 244, 245, 246, 247, 248, 249, 250, 251, 252, 253, 254, 255, 256, 257, 258, 259, 260, 261, 262, 263, 264, 265, 266, 267, 268, 269, 270, 271, 272, 273, 274, 275, 276, 277, 278, 279, 280, 281, 282, 283, 284, 285, 286, 287, 288, 289, 290, 291, 292, 293, 294, 295, 296, 297, 298, 299, 300, 301, 302, 303, 304, 305, 306, 307, 308, 309, 310, 311, 312, 313, 314, 315, 316, 317, 318, 319, 320, 321, 322, 323, 324, 325, 326, 327, 328, 329, 330, 331, 332, 333, 334, 335, 336, 337, 338, 339, 340, 341, 342, 343, 344, 345, 346, 347, 348, 349, 350, 351, 352, 353, 354, 355, 356, 357, 358, 359, 360, 361, 362, 363, 364, 365, 366, 367, 368, 369, 370, 371, 372, 373, 374, 375, 376, 377, 378, 379, 380, 381, 382, 383, 384, 385, 386, 387, 388, 389, 390, 391, 392, 393, 394, 395, 396, 397, 398, 399, 400, 401, 402, 403, 404, 405, 406, 407, 408, 409, 410, 411, 412, 413, 414, 415, 416, 417, 418, 419, 420, 421, 422, 423, 424, 425, 426, 427, 428, 429, 430, 431, 432, 433, 434, 435, 436, 437, 438, 439, 440, 441, 442, 443, 444, 445, 446, 447, 448, 449, 450, 451, 452, 453, 454, 455, 456, 457, 458, 459, 460, 461, 462, 463, 464, 465, 466, 467, 468, 469, 470, 471, 472, 473, 474, 475, 476, 477, 478, 479, 480, 481, 482, 483, 484, 485, 486, 487, 488, 489, 490, 491, 492, 493, 494, 495, 496, 497, 498, 499, 500, 501, 502, 503, 504, 505, 506, 507, 508, 509, 510, 511, 512, 513, 514, 515, 516, 517, 518, 519, 520, 521, 522, 523, 524, 525, 526, 527, 528, 529, 530, 531, 532, 533, 534, 535, 536, 537, 538, 539, 540, 541, 542, 543, 544, 545, 546, 547, 548, 549, 550, 551, 552, 553, 554, 555, 556, 557, 558, 559, 560, 561, 562, 563, 564, 565, 566, 567, 568, 569, 570, 571, 572, 573, 574, 575, 576, 577, 578, 579, 580, 581, 582, 583, 584, 585, 586, 587, 588, 589, 590, 591, 592, 593, 594, 595, 596, 597, 598, 599, 600, 601, 602, 603, 604, 605, 606, 607, 608, 609, 610, 611, 612, 613, 614, 615, 616, 617, 618, 619, 620, 621, 622, 623, 624, 625, 626, 627, 628, 629, 630, 631, 632, 633, 634, 635, 636, 637, 638, 639, 640, 641, 642, 643, 644, 645, 646, 647, 648, 649, 650, 651, 652, 653, 654, 655, 656, 657, 658, 659, 660, 661, 662, 663, 664, 665, 666, 667, 668, 669, 670, 671, 672, 673, 674, 675, 676, 677, 678, 679, 680, 681, 682, 683, 684, 685, 686, 687, 688, 689, 690, 691, 692, 693, 694, 695, 696, 697, 698, 699, 700, 701, 702, 703, 704, 705, 706, 707, 708, 709, 710, 711, 712, 713, 714, 715, 716, 717, 718, 719, 720, 721, 722, 723, 724, 725, 726, 727, 728, 729, 730, 731, 732, 733, 734, 735, 736, 737, 738, 739, 740, 741, 742, 743, 744, 745, 746, 747, 748, 749, 750, 751, 752, 753, 754, 755, 756, 757, 758, 759, 760, 761, 762, 763, 764, 765, 766, 767, 768, 769, 770, 771, 772, 773, 774, 775, 776, 777, 778, 779, 780, 781, 782, 783, 784, 785, 786, 787, 788, 789, 790, 791, 792, 793, 794, 795, 796, 797, 798, 799, 800, 801, 802, 803, 804, 805, 806, 807, 808, 809, 810, 811, 812, 813, 814, 815, 816, 817, 818, 819, 820, 821, 822, 823, 824, 825, 826, 827, 828, 829, 830, 831, 832, 833, 834, 835, 836, 837, 838, 839, 840, 841, 842, 843, 844, 845, 846, 847, 848, 849, 850, 851, 852, 853, 854, 855, 856, 857, 858, 859, 860, 861, 862, 863, 864, 865, 866, 867, 868, 869, 870, 871, 872, 873, 874, 875, 876, 877, 878, 879, 880, 881, 882, 883, 884, 885, 886, 887, 888, 889, 890, 891, 892, 893, 894, 895, 896, 897, 898, 899, 900, 901, 902, 903, 904, 905, 906, 907, 908, 909, 910, 911, 912, 913, 914],
      "AcquisitionTime": ["185616.402500", "185616.862500", "185617.322500", "185617.782500", "185618.242500", "185618.702500", "185619.162500", "185619.622500", "185620.082500", "185620.542500", "185621.002500", "185621.462500", "185621.922500", "185622.382500", "185622.842500", "185623.302500", "185623.762500", "185624.222500", "185624.682500", "185625.142500", "185625.602500", "185626.062500", "185626.522500", "185626.982500", "185627.442500", "185627.902500", "185628.362500", "185628.822500", "185629.282500", "185629.742500", "185630.202500", "185630.662500", "185631.122500", "185631.582500", "185632.042500", "185632.502500", "185632.962500", "185633.422500", "185633.882500", "185634.342500", "185634.802500", "185635.262500", "185635.722500", "185636.182500", "185636.642500", "185637.102500", "185637.562500", "185638.022500", "185638.482500", "185638.942500", "185639.402500", "185639.862500", "185640.322500", "185640.782500", "185641.242500", "185641.702500", "185642.162500", "185642.622500", "185643.082500", "185643.542500", "185644.002500", "185644.462500", "185644.922500", "185645.382500", "185645.842500", "185646.302500", "185646.762500", "185647.222500", "185647.682500", "185648.142500", "185648.602500", "185649.062500", "185649.522500", "185649.982500", "185650.442500", "185650.902500", "185651.362500", "185651.822500", "185652.282500", "185652.742500", "185653.202500", "185653.662500", "185654.122500", "185654.582500", "185655.042500", "185655.502500", "185655.962500", "185656.422500", "185656.882500", "185657.342500", "185657.802500", "185658.262500", "185658.722500", "185659.182500", "185659.642500", "185700.102500", "185700.562500", "185701.022500", "185701.482500", "185701.942500", "185702.402500", "185702.862500", "185703.322500", "185703.782500", "185704.242500", "185704.702500", "185705.162500", "185705.622500", "185706.082500", "185706.542500", "185707.002500", "185707.462500", "185707.922500", "185708.382500", "185708.842500", "185709.302500", "185709.762500", "185710.222500", "185710.682500", "185711.142500", "185711.602500", "185712.062500", "185712.522500", "185712.982500", "185713.442500", "185713.902500", "185714.362500", "185714.822500", "185715.282500", "185715.742500", "185716.202500", "185716.662500", "185717.122500", "185717.582500", "185718.042500", "185718.502500", "185718.962500", "185719.422500", "185719.882500", "185720.342500", "185720.802500", "185721.262500", "185721.722500", "185722.182500", "185722.642500", "185723.102500", "185723.562500", "185724.022500", "185724.482500", "185724.942500", "185725.402500", "185725.862500", "185726.322500", "185726.782500", "185727.242500", "185727.702500", "185728.162500", "185728.622500", "185729.082500", "185729.542500", "185730.002500", "185730.462500", "185730.922500", "185731.382500", "185731.842500", "185732.302500", "185732.762500", "185733.222500", "185733.682500", "185734.142500", "185734.602500", "185735.062500", "185735.522500", "185735.982500", "185736.442500", "185736.902500", "185737.362500", "185737.822500", "185738.282500", "185738.742500", "185739.202500", "185739.662500", "185740.122500", "185740.582500", "185741.042500", "185741.502500", "185741.962500", "185742.422500", "185742.882500", "185743.342500", "185743.802500", "185744.262500", "185744.722500", "185745.182500", "185745.642500", "185746.102500", "185746.562500", "185747.022500", "185747.482500", "185747.942500", "185748.402500", "185748.862500", "185749.322500", "185749.782500", "185750.242500", "185750.702500", "185751.162500", "185751.622500", "185752.082500", "185752.542500", "185753.002500", "185753.462500", "185753.922500", "185754.382500", "185754.842500", "185755.302500", "185755.762500", "185756.222500", "185756.682500", "185757.142500", "185757.602500", "185758.062500", "185758.522500", "185758.982500", "185759.442500", "185759.902500", "185800.362500", "185800.822500", "185801.282500", "185801.742500", "185802.202500", "185802.662500", "185803.122500", "185803.582500", "185804.042500", "185804.502500", "185804.962500", "185805.422500", "185805.882500", "185806.342500", "185806.802500", "185807.262500", "185807.722500", "185808.182500", "185808.642500", "185809.102500", "185809.562500", "185810.022500", "185810.482500", "185810.942500", "185811.402500", "185811.862500", "185812.322500", "185812.782500", "185813.242500", "185813.702500", "185814.162500", "185814.622500", "185815.082500", "185815.542500", "185816.002500", "185816.462500", "185816.922500", "185817.382500", "185817.842500", "185818.302500", "185818.762500", "185819.222500", "185819.682500", "185820.142500", "185820.602500", "185821.062500", "185821.522500", "185821.982500", "185822.442500", "185822.902500", "185823.362500", "185823.822500", "185824.282500", "185824.742500", "185825.202500", "185825.662500", "185826.122500", "185826.582500", "185827.042500", "185827.502500", "185827.962500", "185828.422500", "185828.882500", "185829.342500", "185829.802500", "185830.262500", "185830.722500", "185831.182500", "185831.642500", "185832.102500", "185832.562500", "185833.022500", "185833.482500", "185833.942500", "185834.402500", "185834.862500", "185835.322500", "185835.782500", "185836.242500", "185836.702500", "185837.162500", "185837.622500", "185838.082500", "185838.542500", "185839.002500", "185839.462500", "185839.922500", "185840.382500", "185840.842500", "185841.302500", "185841.762500", "185842.222500", "185842.682500", "185843.142500", "185843.602500", "185844.062500", "185844.522500", "185844.982500", "185845.442500", "185845.902500", "185846.362500", "185846.822500", "185847.282500", "185847.742500", "185848.202500", "185848.662500", "185849.122500", "185849.582500", "185850.042500", "185850.502500", "185850.962500", "185851.422500", "185851.882500", "185852.342500", "185852.802500", "185853.262500", "185853.722500", "185854.182500", "185854.642500", "185855.102500", "185855.562500", "185856.022500", "185856.482500", "185856.942500", "185857.402500", "185857.862500", "185858.322500", "185858.782500", "185859.242500", "185859.702500", "185900.162500", "185900.622500", "185901.082500", "185901.542500", "185902.002500", "185902.462500", "185902.922500", "185903.382500", "185903.842500", "185904.302500", "185904.762500", "185905.222500", "185905.682500", "185906.142500", "185906.602500", "185907.062500", "185907.522500", "185907.982500", "185908.442500", "185908.902500", "185909.362500", "185909.822500", "185910.282500", "185910.742500", "185911.202500", "185911.662500", "185912.122500", "185912.582500", "185913.042500", "185913.502500", "185913.962500", "185914.422500", "185914.882500", "185915.342500", "185915.802500", "185916.262500", "185916.722500", "185917.182500", "185917.642500", "185918.102500", "185918.562500", "185919.022500", "185919.482500", "185919.942500", "185920.402500", "185920.862500", "185921.322500", "185921.782500", "185922.242500", "185922.702500", "185923.162500", "185923.622500", "185924.082500", "185924.542500", "185925.002500", "185925.462500", "185925.922500", "185926.382500", "185926.842500", "185927.302500", "185927.762500", "185928.222500", "185928.682500", "185929.142500", "185929.602500", "185930.062500", "185930.522500", "185930.982500", "185931.442500", "185931.902500", "185932.362500", "185932.822500", "185933.282500", "185933.742500", "185934.202500", "185934.662500", "185935.122500", "185935.582500", "185936.042500", "185936.502500", "185936.962500", "185937.422500", "185937.882500", "185938.342500", "185938.802500", "185939.262500", "185939.722500", "185940.182500", "185940.642500", "185941.102500", "185941.562500", "185942.022500", "185942.482500", "185942.942500", "185943.402500", "185943.862500", "185944.322500", "185944.782500", "185945.242500", "185945.702500", "185946.162500", "185946.622500", "185947.082500", "185947.542500", "185948.002500", "185948.462500", "185948.922500", "185949.382500", "185949.842500", "185950.302500", "185950.762500", "185951.222500", "185951.682500", "185952.142500", "185952.602500", "185953.062500", "185953.522500", "185953.982500", "185954.442500", "185954.902500", "185955.362500", "185955.822500", "185956.282500", "185956.742500", "185957.202500", "185957.662500", "185958.122500", "185958.582500", "185959.042500", "185959.502500", "185959.962500", "190000.422500", "190000.882500", "190001.342500", "190001.802500", "190002.262500", "190002.722500", "190003.182500", "190003.642500", "190004.102500", "190004.562500", "190005.022500", "190005.482500", "190005.942500", "190006.402500", "190006.862500", "190007.322500", "190007.782500", "190008.242500", "190008.702500", "190009.162500", "190009.622500", "190010.082500", "190010.542500", "190011.002500", "190011.462500", "190011.922500", "190012.382500", "190012.842500", "190013.302500", "190013.762500", "190014.222500", "190014.682500", "190015.142500", "190015.602500", "190016.062500", "190016.522500", "190016.982500", "190017.442500", "190017.902500", "190018.362500", "190018.822500", "190019.282500", "190019.742500", "190020.202500", "190020.662500", "190021.122500", "190021.582500", "190022.042500", "190022.502500", "190022.962500", "190023.422500", "190023.882500", "190024.342500", "190024.802500", "190025.262500", "190025.722500", "190026.182500", "190026.642500", "190027.102500", "190027.562500", "190028.022500", "190028.482500", "190028.942500", "190029.402500", "190029.862500", "190030.322500", "190030.782500", "190031.242500", "190031.702500", "190032.162500", "190032.622500", "190033.082500", "190033.542500", "190034.002500", "190034.462500", "190034.922500", "190035.382500", "190035.842500", "190036.302500", "190036.762500", "190037.222500", "190037.682500", "190038.142500", "190038.602500", "190039.062500", "190039.522500", "190039.982500", "190040.442500", "190040.902500", "190041.362500", "190041.822500", "190042.282500", "190042.742500", "190043.202500", "190043.662500", "190044.122500", "190044.582500", "190045.042500", "190045.502500", "190045.962500", "190046.422500", "190046.882500", "190047.342500", "190047.802500", "190048.262500", "190048.722500", "190049.182500", "190049.642500", "190050.102500", "190050.562500", "190051.022500", "190051.482500", "190051.942500", "190052.402500", "190052.862500", "190053.322500", "190053.782500", "190054.242500", "190054.702500", "190055.162500", "190055.622500", "190056.082500", "190056.542500", "190057.002500", "190057.462500", "190057.922500", "190058.382500", "190058.842500", "190059.302500", "190059.762500", "190100.222500", "190100.682500", "190101.142500", "190101.602500", "190102.062500", "190102.522500", "190102.982500", "190103.442500", "190103.902500", "190104.362500", "190104.822500", "190105.282500", "190105.742500", "190106.202500", "190106.662500", "190107.122500", "190107.582500", "190108.042500", "190108.502500", "190108.962500", "190109.422500", "190109.882500", "190110.342500", "190110.802500", "190111.262500", "190111.722500", "190112.182500", "190112.642500", "190113.102500", "190113.562500", "190114.022500", "190114.482500", "190114.942500", "190115.402500", "190115.862500", "190116.322500", "190116.782500", "190117.242500", "190117.702500", "190118.162500", "190118.622500", "190119.082500", "190119.542500", "190120.002500", "190120.462500", "190120.922500", "190121.382500", "190121.842500", "190122.302500", "190122.762500", "190123.222500", "190123.682500", "190124.142500", "190124.602500", "190125.062500", "190125.522500", "190125.982500", "190126.442500", "190126.902500", "190127.362500", "190127.822500", "190128.282500", "190128.742500", "190129.202500", "190129.662500", "190130.122500", "190130.582500", "190131.042500", "190131.502500", "190131.962500", "190132.422500", "190132.882500", "190133.342500", "190133.802500", "190134.262500", "190134.722500", "190135.182500", "190135.642500", "190136.102500", "190136.562500", "190137.022500", "190137.482500", "190137.942500", "190138.402500", "190138.862500", "190139.322500", "190139.782500", "190140.242500", "190140.702500", "190141.162500", "190141.622500", "190142.082500", "190142.542500", "190143.002500", "190143.462500", "190143.922500", "190144.382500", "190144.842500", "190145.302500", "190145.762500", "190146.222500", "190146.682500", "190147.142500", "190147.602500", "190148.062500", "190148.522500", "190148.982500", "190149.442500", "190149.902500", "190150.362500", "190150.822500", "190151.282500", "190151.742500", "190152.202500", "190152.662500", "190153.122500", "190153.582500", "190154.042500", "190154.502500", "190154.962500", "190155.422500", "190155.882500", "190156.342500", "190156.802500", "190157.262500", "190157.722500", "190158.182500", "190158.642500", "190159.102500", "190159.562500", "190200.022500", "190200.482500", "190200.942500", "190201.402500", "190201.862500", "190202.322500", "190202.782500", "190203.242500", "190203.702500", "190204.162500", "190204.622500", "190205.082500", "190205.542500", "190206.002500", "190206.462500", "190206.922500", "190207.382500", "190207.842500", "190208.302500", "190208.762500", "190209.222500", "190209.682500", "190210.142500", "190210.602500", "190211.062500", "190211.522500", "190211.982500", "190212.442500", "190212.902500", "190213.362500", "190213.822500", "190214.282500", "190214.742500", "190215.202500", "190215.662500", "190216.122500", "190216.582500", "190217.042500", "190217.502500", "190217.962500", "190218.422500", "190218.882500", "190219.342500", "190219.802500", "190220.262500", "190220.722500", "190221.182500", "190221.642500", "190222.102500", "190222.562500", "190223.022500", "190223.482500", "190223.942500", "190224.402500", "190224.862500", "190225.322500", "190225.782500", "190226.242500", "190226.702500", "190227.162500", "190227.622500", "190228.082500", "190228.542500", "190229.002500", "190229.462500", "190229.922500", "190230.382500", "190230.842500", "190231.302500", "190231.762500", "190232.222500", "190232.682500", "190233.142500", "190233.602500", "190234.062500", "190234.522500", "190234.982500", "190235.442500", "190235.902500", "190236.362500", "190236.822500", "190237.282500", "190237.742500", "190238.202500", "190238.662500", "190239.122500", "190239.582500", "190240.042500", "190240.502500", "190240.962500", "190241.422500", "190241.882500", "190242.342500", "190242.802500", "190243.262500", "190243.722500", "190244.182500", "190244.642500", "190245.102500", "190245.562500", "190246.022500", "190246.482500", "190246.942500", "190247.402500", "190247.862500", "190248.322500", "190248.782500", "190249.242500", "190249.702500", "190250.162500", "190250.622500", "190251.082500", "190251.542500", "190252.002500", "190252.462500", "190252.922500", "190253.382500", "190253.842500", "190254.302500", "190254.762500", "190255.222500", "190255.682500", "190256.142500", "190256.602500", "190257.062500", "190257.522500", "190257.982500", "190258.442500", "190258.902500", "190259.362500", "190259.822500", "190300.282500", "190300.742500", "190301.202500", "190301.662500", "190302.122500", "190302.582500", "190303.042500", "190303.502500", "190303.962500", "190304.422500", "190304.882500", "190305.342500", "190305.802500", "190306.262500", "190306.722500", "190307.182500", "190307.642500", "190308.102500", "190308.562500", "190309.022500", "190309.482500", "190309.942500", "190310.402500", "190310.862500", "190311.322500", "190311.782500", "190312.242500", "190312.702500", "190313.162500", "190313.622500", "190314.082500", "190314.542500", "190315.002500", "190315.462500", "190315.922500", "190316.382500"],
