{
  "AcquisitionMatrixPE": 82,
  "AcquisitionNumber": 1,
  "AcquisitionTime": "18:26:34.035000",
  "BandwidthPerPixelPhaseEncode": 24.888,
  "BaseResolution": 82,
  "BodyPartExamined": "BRAIN",
  "ConsistencyInfo": "N4_VE11E_LATEST_20181129",
  "ConversionSoftware": "dcm2niix",
  "ConversionSoftwareVersion": "v1.0.20201102",
  "DerivedVendorReportedEchoSpacing": 0.00049,
  "DeviceSerialNumber": "66112",
  "DwellTime": 2e-06,
  "EchoTime": 0.0272,
  "EchoTrainLength": 82,
  "EffectiveEchoSpacing": 0.00049,
  "FlipAngle": 44,
  "ImageComments": "Unaliased MB8/PE3",
  "ImageOrientationPatientDICOM": [0.998353, -0.0290406, 0.0494762, 0.0216098, 0.989254, 0.144602],
  "ImageType": [
    "ORIGINAL",
    "PRIMARY",
    "M",
    "MB",
    "ND",
    "NORM",
    "MOSAIC"
],
  "ImagingFrequency": 123.252,
  "InPlanePhaseEncodingDirectionDICOM": "COL",
  "InstitutionAddress": "Maynard 3,Hanover,NH,US,03755",
  "InstitutionName": "Dartmouth College - PBS",
  "InstitutionalDepartmentName": "Department",
  "MRAcquisitionType": "2D",
  "MagneticFieldStrength": 3,
  "Manufacturer": "Siemens",
  "ManufacturersModelName": "Prisma",
  "Modality": "MR",
  "MultibandAccelerationFactor": 8,
  "PartialFourier": 1,
  "PatientPosition": "HFS",
  "PercentPhaseFOV": 100,
  "PercentSampling": 100,
  "PhaseEncodingDirection": "j-",
  "PhaseEncodingSteps": 82,
  "PhaseResolution": 1,
  "PixelBandwidth": 3050,
  "ProcedureStepDescription": "Wager_Wager^1076_spacetop",
  "ProtocolName": "func_run-02_task-narratives_acq-ap-mb8",
  "PulseSequenceDetails": "%CustomerSeq%\\cmrr_mbep2d_bold",
  "ReceiveCoilActiveElements": "HEA;HEP",
  "ReceiveCoilName": "Head_32",
  "ReconMatrixPE": 82,
  "RepetitionTime": 0.46,
  "SAR": 0.0884126,
  "ScanOptions": "FS",
  "ScanningSequence": "EP",
  "SequenceName": "epfid2d1_82",
  "SequenceVariant": "SK\\SS",
  "SeriesDescription": "func_run-02_task-narratives_acq-ap-mb8",
  "SeriesNumber": 10,
  "ShimSetting": [4150, -7739, -7280, 695, -46, -17, -44, 83],
  "SliceThickness": 2.7,
  "SliceTiming": [0, 0.2525, 0.065, 0.315, 0.1275, 0.3775, 0.19, 0, 0.2525, 0.065, 0.315, 0.1275, 0.3775, 0.19, 0, 0.2525, 0.065, 0.315, 0.1275, 0.3775, 0.19, 0, 0.2525, 0.065, 0.315, 0.1275, 0.3775, 0.19, 0, 0.2525, 0.065, 0.315, 0.1275, 0.3775, 0.19, 0, 0.2525, 0.065, 0.315, 0.1275, 0.3775, 0.19, 0, 0.2525, 0.065, 0.315, 0.1275, 0.3775, 0.19, 0, 0.2525, 0.065, 0.315, 0.1275, 0.3775, 0.19],
  "SoftwareVersions": "syngo MR E11",
  "SpacingBetweenSlices": 2.7,
  "StationName": "AWP66112",
  "TaskName": "narratives",
  "TotalReadoutTime": 0.03969,
  "TxRefAmp": 230.207,
  "WipMemBlock": "daa1c9fb-1200-4eb2-ba36-6a0e3d295594||Sequence: R016 ve11e/master r/434b28f1; Aug  7 2019 18:53:46 by eja",
  "dcmmeta_affine": [
    [-2.6785080432891846, 0.05797749385237694, 0.14348851144313812, 102.58131408691406],
    [0.07791393250226974, 2.6540958881378174, 0.3868960738182068, -112.21342468261719],
    [0.13274110853672028, -0.38795703649520874, 2.668280839920044, -57.98200988769531],
    [0.0, 0.0, 0.0, 1.0]
],
  "dcmmeta_reorient_transform": [
    [0.0, -1.0, 0.0, 81.0],
    [1.0, 0.0, 0.0, 0.0],
    [0.0, 0.0, 1.0, 0.0],
    [0.0, 0.0, 0.0, 1.0]
],
  "dcmmeta_shape": [82, 82, 56, 1098],
  "dcmmeta_slice_dim": 2,
  "dcmmeta_version": 0.6,
  "global": {
    "const": {
      "AccessionNumber": "A003975",
      "AcquisitionMatrix": [82, 0, 0, 82],
      "AngioFlag": "N",
      "BitsAllocated": 16,
      "BitsStored": 16,
      "BodyPartExamined": "BRAIN",
      "Columns": 656,
      "EchoNumbers": 1,
      "EchoTime": 27.2,
      "EchoTrainLength": 82,
      "FlipAngle": 44.0,
      "HighBit": 15,
      "ImageOrientationPatient": [0.99835301550827, -0.0290406462114, 0.04947622957709, 0.02160979298544, 0.98925387600043, 0.14460216341833],
      "ImagePositionPatient": [-892.64887017516, -842.13254432418, -238.84689701238],
      "ImageType": [
        "ORIGINAL",
        "PRIMARY",
        "M",
        "MB",
        "ND",
        "NORM",
        "MOSAIC"
],
      "ImagedNucleus": "1H",
      "ImagingFrequency": 123.252205,
      "InPlanePhaseEncodingDirection": "COL",
      "MRAcquisitionType": "2D",
      "MagneticFieldStrength": 3.0,
      "Manufacturer": "SIEMENS",
      "ManufacturerModelName": "Prisma",
      "Modality": "MR",
      "NumberOfAverages": 1.0,
      "NumberOfPhaseEncodingSteps": 82,
      "PercentPhaseFieldOfView": 100.0,
      "PercentSampling": 100.0,
      "PerformedProcedureStepStartTime": "180247.366000",
      "PhotometricInterpretation": "MONOCHROME2",
      "PixelBandwidth": 3050.0,
      "PixelRepresentation": 0,
      "PixelSpacing": [2.6829268932343, 2.6829268932343],
      "ProtocolName": "func_run-02_task-narratives_acq-ap-mb8",
      "RepetitionTime": 460.0,
      "Rows": 656,
      "SAR": 0.08841259710522,
      "SamplesPerPixel": 1,
      "ScanOptions": "FS",
      "ScanningSequence": "EP",
      "SequenceName": "epfid2d1_82",
      "SequenceVariant": [
        "SK",
        "SS"
],
      "SeriesDescription": "func_run-02_task-narratives_acq-ap-mb8",
      "SeriesNumber": 10,
      "SeriesTime": "182653.680000",
      "SliceLocation": -67.928880987665,
      "SliceThickness": 2.7000000476837,
      "SmallestImagePixelValue": 0,
      "SoftwareVersions": "syngo MR E11",
      "SpacingBetweenSlices": 2.7000000517446,
      "SpecificCharacterSet": "ISO_IR 100",
      "StudyID": "1",
      "StudyTime": "180247.311000",
      "TransmitCoilName": "Body",
      "VariableFlipAngleFlag": "N",
      "WindowCenterWidthExplanation": "Algo1"
    },
    "slices": {}
  },
  "time": {
    "samples": {
      "AcquisitionNumber": [1, 2, 3, 4, 5, 6, 7, 8, 9, 10, 11, 12, 13, 14, 15, 16, 17, 18, 19, 20, 21, 22, 23, 24, 25, 26, 27, 28, 29, 30, 31, 32, 33, 34, 35, 36, 37, 38, 39, 40, 41, 42, 43, 44, 45, 46, 47, 48, 49, 50, 51, 52, 53, 54, 55, 56, 57, 58, 59, 60, 61, 62, 63, 64, 65, 66, 67, 68, 69, 70, 71, 72, 73, 74, 75, 76, 77, 78, 79, 80, 81, 82, 83, 84, 85, 86, 87, 88, 89, 90, 91, 92, 93, 94, 95, 96, 97, 98, 99, 100, 101, 102, 103, 104, 105, 106, 107, 108, 109, 110, 111, 112, 113, 114, 115, 116, 117, 118, 119, 120, 121, 122, 123, 124, 125, 126, 127, 128, 129, 130, 131, 132, 133, 134, 135, 136, 137, 138, 139, 140, 141, 142, 143, 144, 145, 146, 147, 148, 149, 150, 151, 152, 153, 154, 155, 156, 157, 158, 159, 160, 161, 162, 163, 164, 165, 166, 167, 168, 169, 170, 171, 172, 173, 174, 175, 176, 177, 178, 179, 180, 181, 182, 183, 184, 185, 186, 187, 188, 189, 190, 191, 192, 193, 194, 195, 196, 197, 198, 199, 200, 201, 202, 203, 204, 205, 206, 207, 208, 209, 210, 211, 212, 213, 214, 215, 216, 217, 218, 219, 220, 221, 222, 223, 224, 225, 226, 227, 228, 229, 230, 231, 232, 233, 234, 235, 236, 237, 238, 239, 240, 241, 242, 243, 244, 245, 246, 247, 248, 249, 250, 251, 252, 253, 254, 255, 256, 257, 258, 259, 260, 261, 262, 263, 264, 265, 266, 267, 268, 269, 270, 271, 272, 273, 274, 275, 276, 277, 278, 279, 280, 281, 282, 283, 284, 285, 286, 287, 288, 289, 290, 291, 292, 293, 294, 295, 296, 297, 298, 299, 300, 301, 302, 303, 304, 305, 306, 307, 308, 309, 310, 311, 312, 313, 314, 315, 316, 317, 318, 319, 320, 321, 322, 323, 324, 325, 326, 327, 328, 329, 330, 331, 332, 333, 334, 335, 336, 337, 338, 339, 340, 341, 342, 343, 344, 345, 346, 347, 348, 349, 350, 351, 352, 353, 354, 355, 356, 357, 358, 359, 360, 361, 362, 363, 364, 365, 366, 367, 368, 369, 370, 371, 372, 373, 374, 375, 376, 377, 378, 379, 380, 381, 382, 383, 384, 385, 386, 387, 388, 389, 390, 391, 392, 393, 394, 395, 396, 397, 398, 399, 400, 401, 402, 403, 404, 405, 406, 407, 408, 409, 410, 411, 412, 413, 414, 415, 416, 417, 418, 419, 420, 421, 422, 423, 424, 425, 426, 427, 428, 429, 430, 431, 432, 433, 434, 435, 436, 437, 438, 439, 440, 441, 442, 443, 444, 445, 446, 447, 448, 449, 450, 451, 452, 453, 454, 455, 456, 457, 458, 459, 460, 461, 462, 463, 464, 465, 466, 467, 468, 469, 470, 471, 472, 473, 474, 475, 476, 477, 478, 479, 480, 481, 482, 483, 484, 485, 486, 487, 488, 489, 490, 491, 492, 493, 494, 495, 496, 497, 498, 499, 500, 501, 502, 503, 504, 505, 506, 507, 508, 509, 510, 511, 512, 513, 514, 515, 516, 517, 518, 519, 520, 521, 522, 523, 524, 525, 526, 527, 528, 529, 530, 531, 532, 533, 534, 535, 536, 537, 538, 539, 540, 541, 542, 543, 544, 545, 546, 547, 548, 549, 550, 551, 552, 553, 554, 555, 556, 557, 558, 559, 560, 561, 562, 563, 564, 565, 566, 567, 568, 569, 570, 571, 572, 573, 574, 575, 576, 577, 578, 579, 580, 581, 582, 583, 584, 585, 586, 587, 588, 589, 590, 591, 592, 593, 594, 595, 596, 597, 598, 599, 600, 601, 602, 603, 604, 605, 606, 607, 608, 609, 610, 611, 612, 613, 614, 615, 616, 617, 618, 619, 620, 621, 622, 623, 624, 625, 626, 627, 628, 629, 630, 631, 632, 633, 634, 635, 636, 637, 638, 639, 640, 641, 642, 643, 644, 645, 646, 647, 648, 649, 650, 651, 652, 653, 654, 655, 656, 657, 658, 659, 660, 661, 662, 663, 664, 665, 666, 667, 668, 669, 670, 671, 672, 673, 674, 675, 676, 677, 678, 679, 680, 681, 682, 683, 684, 685, 686, 687, 688, 689, 690, 691, 692, 693, 694, 695, 696, 697, 698, 699, 700, 701, 702, 703, 704, 705, 706, 707, 708, 709, 710, 711, 712, 713, 714, 715, 716, 717, 718, 719, 720, 721, 722, 723, 724, 725, 726, 727, 728, 729, 730, 731, 732, 733, 734, 735, 736, 737, 738, 739, 740, 741, 742, 743, 744, 745, 746, 747, 748, 749, 750, 751, 752, 753, 754, 755, 756, 757, 758, 759, 760, 761, 762, 763, 764, 765, 766, 767, 768, 769, 770, 771, 772, 773, 774, 775, 776, 777, 778, 779, 780, 781, 782, 783, 784, 785, 786, 787, 788, 789, 790, 791, 792, 793, 794, 795, 796, 797, 798, 799, 800, 801, 802, 803, 804, 805, 806, 807, 808, 809, 810, 811, 812, 813, 814, 815, 816, 817, 818, 819, 820, 821, 822, 823, 824, 825, 826, 827, 828, 829, 830, 831, 832, 833, 834, 835, 836, 837, 838, 839, 840, 841, 842, 843, 844, 845, 846, 847, 848, 849, 850, 851, 852, 853, 854, 855, 856, 857, 858, 859, 860, 861, 862, 863, 864, 865, 866, 867, 868, 869, 870, 871, 872, 873, 874, 875, 876, 877, 878, 879, 880, 881, 882, 883, 884, 885, 886, 887, 888, 889, 890, 891, 892, 893, 894, 895, 896, 897, 898, 899, 900, 901, 902, 903, 904, 905, 906, 907, 908, 909, 910, 911, 912, 913, 914, 915, 916, 917, 918, 919, 920, 921, 922, 923, 924, 925, 926, 927, 928, 929, 930, 931, 932, 933, 934, 935, 936, 937, 938, 939, 940, 941, 942, 943, 944, 945, 946, 947, 948, 949, 950, 951, 952, 953, 954, 955, 956, 957, 958, 959, 960, 961, 962, 963, 964, 965, 966, 967, 968, 969, 970, 971, 972, 973, 974, 975, 976, 977, 978, 979, 980, 981, 982, 983, 984, 985, 986, 987, 988, 989, 990, 991, 992, 993, 994, 995, 996, 997, 998, 999, 1000, 1001, 1002, 1003, 1004, 1005, 1006, 1007, 1008, 1009, 1010, 1011, 1012, 1013, 1014, 1015, 1016, 1017, 1018, 1019, 1020, 1021, 1022, 1023, 1024, 1025, 1026, 1027, 1028, 1029, 1030, 1031, 1032, 1033, 1034, 1035, 1036, 1037, 1038, 1039, 1040, 1041, 1042, 1043, 1044, 1045, 1046, 1047, 1048, 1049, 1050, 1051, 1052, 1053, 1054, 1055, 1056, 1057, 1058, 1059, 1060, 1061, 1062, 1063, 1064, 1065, 1066, 1067, 1068, 1069, 1070, 1071, 1072, 1073, 1074, 1075, 1076, 1077, 1078, 1079, 1080, 1081, 1082, 1083, 1084, 1085, 1086, 1087, 1088, 1089, 1090, 1091, 1092, 1093, 1094, 1095, 1096, 1097, 1098],
      "AcquisitionTime": ["182634.035000", "182634.495000", "182634.955000", "182635.415000", "182635.875000", "182636.335000", "182636.795000", "182637.255000", "182637.715000", "182638.175000", "182638.635000", "182639.095000", "182639.555000", "182640.015000", "182640.475000", "182640.935000", "182641.395000", "182641.855000", "182642.315000", "182642.775000", "182643.235000", "182643.695000", "182644.155000", "182644.615000", "182645.075000", "182645.535000", "182645.995000", "182646.455000", "182646.915000", "182647.375000", "182647.835000", "182648.295000", "182648.755000", "182649.215000", "182649.675000", "182650.135000", "182650.595000", "182651.055000", "182651.515000", "182651.975000", "182652.435000", "182652.895000", "182653.355000", "182653.815000", "182654.275000", "182654.735000", "182655.195000", "182655.655000", "182656.115000", "182656.575000", "182657.035000", "182657.495000", "182657.955000", "182658.415000", "182658.875000", "182659.335000", "182659.795000", "182700.255000", "182700.715000", "182701.175000", "182701.635000", "182702.095000", "182702.555000", "182703.015000", "182703.475000", "182703.935000", "182704.395000", "182704.855000", "182705.315000", "182705.775000", "182706.235000", "182706.695000", "182707.155000", "182707.615000", "182708.075000", "182708.535000", "182708.995000", "182709.455000", "182709.915000", "182710.375000", "182710.835000", "182711.295000", "182711.755000", "182712.215000", "182712.675000", "182713.135000", "182713.595000", "182714.055000", "182714.515000", "182714.975000", "182715.435000", "182715.895000", "182716.355000", "182716.815000", "182717.275000", "182717.735000", "182718.195000", "182718.655000", "182719.115000", "182719.575000", "182720.035000", "182720.495000", "182720.955000", "182721.415000", "182721.875000", "182722.335000", "182722.795000", "182723.255000", "182723.715000", "182724.175000", "182724.635000", "182725.095000", "182725.555000", "182726.015000", "182726.475000", "182726.935000", "182727.395000", "182727.855000", "182728.315000", "182728.775000", "182729.235000", "182729.695000", "182730.155000", "182730.615000", "182731.075000", "182731.535000", "182731.995000", "182732.455000", "182732.915000", "182733.375000", "182733.835000", "182734.295000", "182734.755000", "182735.215000", "182735.675000", "182736.135000", "182736.595000", "182737.055000", "182737.515000", "182737.975000", "182738.435000", "182738.895000", "182739.355000", "182739.815000", "182740.275000", "182740.735000", "182741.195000", "182741.655000", "182742.115000", "182742.575000", "182743.035000", "182743.495000", "182743.955000", "182744.415000", "182744.875000", "182745.335000", "182745.795000", "182746.255000", "182746.715000", "182747.175000", "182747.635000", "182748.095000", "182748.555000", "182749.015000", "182749.475000", "182749.935000", "182750.395000", "182750.855000", "182751.315000", "182751.775000", "182752.235000", "182752.695000", "182753.155000", "182753.615000", "182754.075000", "182754.535000", "182754.995000", "182755.455000", "182755.915000", "182756.375000", "182756.835000", "182757.295000", "182757.755000", "182758.215000", "182758.675000", "182759.135000", "182759.595000", "182800.055000", "182800.515000", "182800.975000", "182801.435000", "182801.895000", "182802.355000", "182802.815000", "182803.275000", "182803.735000", "182804.195000", "182804.655000", "182805.115000", "182805.575000", "182806.035000", "182806.495000", "182806.955000", "182807.415000", "182807.875000", "182808.335000", "182808.795000", "182809.255000", "182809.715000", "182810.175000", "182810.635000", "182811.095000", "182811.555000", "182812.015000", "182812.475000", "182812.935000", "182813.395000", "182813.855000", "182814.315000", "182814.775000", "182815.235000", "182815.695000", "182816.155000", "182816.615000", "182817.075000", "182817.535000", "182817.995000", "182818.455000", "182818.915000", "182819.375000", "182819.835000", "182820.295000", "182820.755000", "182821.215000", "182821.675000", "182822.135000", "182822.595000", "182823.055000", "182823.515000", "182823.975000", "182824.435000", "182824.895000", "182825.355000", "182825.815000", "182826.275000", "182826.735000", "182827.195000", "182827.655000", "182828.115000", "182828.575000", "182829.035000", "182829.495000", "182829.955000", "182830.415000", "182830.875000", "182831.335000", "182831.795000", "182832.255000", "182832.715000", "182833.175000", "182833.635000", "182834.095000", "182834.555000", "182835.015000", "182835.475000", "182835.935000", "182836.395000", "182836.855000", "182837.315000", "182837.775000", "182838.235000", "182838.695000", "182839.155000", "182839.615000", "182840.075000", "182840.535000", "182840.995000", "182841.455000", "182841.915000", "182842.375000", "182842.835000", "182843.295000", "182843.755000", "182844.215000", "182844.675000", "182845.135000", "182845.595000", "182846.055000", "182846.515000", "182846.975000", "182847.435000", "182847.895000", "182848.355000", "182848.815000", "182849.275000", "182849.735000", "182850.195000", "182850.655000", "182851.115000", "182851.575000", "182852.035000", "182852.495000", "182852.955000", "182853.415000", "182853.875000", "182854.335000", "182854.795000", "182855.255000", "182855.715000", "182856.175000", "182856.635000", "182857.095000", "182857.555000", "182858.015000", "182858.475000", "182858.935000", "182859.395000", "182859.855000", "182900.315000", "182900.775000", "182901.235000", "182901.695000", "182902.155000", "182902.615000", "182903.075000", "182903.535000", "182903.995000", "182904.455000", "182904.915000", "182905.375000", "182905.835000", "182906.295000", "182906.755000", "182907.215000", "182907.675000", "182908.135000", "182908.595000", "182909.055000", "182909.515000", "182909.975000", "182910.435000", "182910.895000", "182911.355000", "182911.815000", "182912.275000", "182912.735000", "182913.195000", "182913.655000", "182914.115000", "182914.575000", "182915.035000", "182915.495000", "182915.955000", "182916.415000", "182916.875000", "182917.335000", "182917.795000", "182918.255000", "182918.715000", "182919.175000", "182919.635000", "182920.095000", "182920.555000", "182921.015000", "182921.475000", "182921.935000", "182922.395000", "182922.855000", "182923.315000", "182923.775000", "182924.235000", "182924.695000", "182925.155000", "182925.615000", "182926.075000", "182926.535000", "182926.995000", "182927.455000", "182927.915000", "182928.375000", "182928.835000", "182929.295000", "182929.755000", "182930.215000", "182930.675000", "182931.135000", "182931.595000", "182932.055000", "182932.515000", "182932.975000", "182933.435000", "182933.895000", "182934.355000", "182934.815000", "182935.275000", "182935.735000", "182936.195000", "182936.655000", "182937.115000", "182937.575000", "182938.035000", "182938.495000", "182938.955000", "182939.415000", "182939.875000", "182940.335000", "182940.795000", "182941.255000", "182941.715000", "182942.175000", "182942.635000", "182943.095000", "182943.555000", "182944.015000", "182944.475000", "182944.935000", "182945.395000", "182945.855000", "182946.315000", "182946.775000", "182947.235000", "182947.695000", "182948.155000", "182948.615000", "182949.075000", "182949.535000", "182949.995000", "182950.455000", "182950.915000", "182951.375000", "182951.835000", "182952.295000", "182952.755000", "182953.215000", "182953.675000", "182954.135000", "182954.595000", "182955.055000", "182955.515000", "182955.975000", "182956.435000", "182956.895000", "182957.355000", "182957.815000", "182958.275000", "182958.735000", "182959.195000", "182959.655000", "183000.115000", "183000.575000", "183001.035000", "183001.495000", "183001.955000", "183002.415000", "183002.875000", "183003.335000", "183003.795000", "183004.255000", "183004.715000", "183005.175000", "183005.635000", "183006.095000", "183006.555000", "183007.015000", "183007.475000", "183007.935000", "183008.395000", "183008.855000", "183009.315000", "183009.775000", "183010.235000", "183010.695000", "183011.155000", "183011.615000", "183012.075000", "183012.535000", "183012.995000", "183013.455000", "183013.915000", "183014.375000", "183014.835000", "183015.295000", "183015.755000", "183016.215000", "183016.675000", "183017.135000", "183017.595000", "183018.055000", "183018.515000", "183018.975000", "183019.435000", "183019.895000", "183020.355000", "183020.815000", "183021.275000", "183021.735000", "183022.195000", "183022.655000", "183023.115000", "183023.575000", "183024.035000", "183024.495000", "183024.955000", "183025.415000", "183025.875000", "183026.335000", "183026.795000", "183027.255000", "183027.715000", "183028.175000", "183028.635000", "183029.095000", "183029.555000", "183030.015000", "183030.475000", "183030.935000", "183031.395000", "183031.855000", "183032.315000", "183032.775000", "183033.235000", "183033.695000", "183034.155000", "183034.615000", "183035.075000", "183035.535000", "183035.995000", "183036.455000", "183036.915000", "183037.375000", "183037.835000", "183038.295000", "183038.755000", "183039.215000", "183039.675000", "183040.135000", "183040.595000", "183041.055000", "183041.515000", "183041.975000", "183042.435000", "183042.895000", "183043.355000", "183043.815000", "183044.275000", "183044.735000", "183045.195000", "183045.655000", "183046.115000", "183046.575000", "183047.035000", "183047.495000", "183047.955000", "183048.415000", "183048.875000", "183049.335000", "183049.795000", "183050.255000", "183050.715000", "183051.175000", "183051.635000", "183052.095000", "183052.555000", "183053.015000", "183053.475000", "183053.935000", "183054.395000", "183054.855000", "183055.315000", "183055.775000", "183056.235000", "183056.695000", "183057.155000", "183057.615000", "183058.075000", "183058.535000", "183058.995000", "183059.455000", "183059.915000", "183100.375000", "183100.835000", "183101.295000", "183101.755000", "183102.215000", "183102.675000", "183103.135000", "183103.595000", "183104.055000", "183104.515000", "183104.975000", "183105.435000", "183105.895000", "183106.355000", "183106.815000", "183107.275000", "183107.735000", "183108.195000", "183108.655000", "183109.115000", "183109.575000", "183110.035000", "183110.495000", "183110.955000", "183111.415000", "183111.875000", "183112.335000", "183112.795000", "183113.255000", "183113.715000", "183114.175000", "183114.635000", "183115.095000", "183115.555000", "183116.015000", "183116.475000", "183116.935000", "183117.395000", "183117.855000", "183118.315000", "183118.775000", "183119.235000", "183119.695000", "183120.155000", "183120.615000", "183121.075000", "183121.535000", "183121.995000", "183122.455000", "183122.915000", "183123.375000", "183123.835000", "183124.295000", "183124.755000", "183125.215000", "183125.675000", "183126.135000", "183126.595000", "183127.055000", "183127.515000", "183127.975000", "183128.435000", "183128.895000", "183129.355000", "183129.815000", "183130.275000", "183130.735000", "183131.195000", "183131.655000", "183132.115000", "183132.575000", "183133.035000", "183133.495000", "183133.955000", "183134.415000", "183134.875000", "183135.335000", "183135.795000", "183136.255000", "183136.715000", "183137.175000", "183137.635000", "183138.095000", "183138.555000", "183139.015000", "183139.475000", "183139.935000", "183140.395000", "183140.855000", "183141.315000", "183141.775000", "183142.235000", "183142.695000", "183143.155000", "183143.615000", "183144.075000", "183144.535000", "183144.995000", "183145.455000", "183145.915000", "183146.375000", "183146.835000", "183147.295000", "183147.755000", "183148.215000", "183148.675000", "183149.135000", "183149.595000", "183150.055000", "183150.515000", "183150.975000", "183151.435000", "183151.895000", "183152.355000", "183152.815000", "183153.275000", "183153.735000", "183154.195000", "183154.655000", "183155.115000", "183155.575000", "183156.035000", "183156.495000", "183156.955000", "183157.415000", "183157.875000", "183158.335000", "183158.795000", "183159.255000", "183159.715000", "183200.175000", "183200.635000", "183201.095000", "183201.555000", "183202.015000", "183202.475000", "183202.935000", "183203.395000", "183203.855000", "183204.315000", "183204.775000", "183205.235000", "183205.695000", "183206.155000", "183206.615000", "183207.075000", "183207.535000", "183207.995000", "183208.455000", "183208.915000", "183209.375000", "183209.835000", "183210.295000", "183210.755000", "183211.215000", "183211.675000", "183212.135000", "183212.595000", "183213.055000", "183213.515000", "183213.975000", "183214.435000", "183214.895000", "183215.355000", "183215.815000", "183216.275000", "183216.735000", "183217.195000", "183217.655000", "183218.115000", "183218.575000", "183219.035000", "183219.495000", "183219.955000", "183220.415000", "183220.875000", "183221.335000", "183221.795000", "183222.255000", "183222.715000", "183223.175000", "183223.635000", "183224.095000", "183224.555000", "183225.015000", "183225.475000", "183225.935000", "183226.395000", "183226.855000", "183227.315000", "183227.775000", "183228.235000", "183228.695000", "183229.155000", "183229.615000", "183230.075000", "183230.535000", "183230.995000", "183231.455000", "183231.915000", "183232.375000", "183232.835000", "183233.295000", "183233.755000", "183234.215000", "183234.675000", "183235.135000", "183235.595000", "183236.055000", "183236.515000", "183236.975000", "183237.435000", "183237.895000", "183238.355000", "183238.815000", "183239.275000", "183239.735000", "183240.195000", "183240.655000", "183241.115000", "183241.575000", "183242.035000", "183242.495000", "183242.955000", "183243.415000", "183243.875000", "183244.335000", "183244.795000", "183245.255000", "183245.715000", "183246.175000", "183246.635000", "183247.095000", "183247.555000", "183248.015000", "183248.475000", "183248.935000", "183249.395000", "183249.855000", "183250.315000", "183250.775000", "183251.235000", "183251.695000", "183252.155000", "183252.615000", "183253.075000", "183253.535000", "183253.995000", "183254.455000", "183254.915000", "183255.375000", "183255.835000", "183256.295000", "183256.755000", "183257.215000", "183257.675000", "183258.135000", "183258.595000", "183259.055000", "183259.515000", "183259.975000", "183300.435000", "183300.895000", "183301.355000", "183301.815000", "183302.275000", "183302.735000", "183303.195000", "183303.655000", "183304.115000", "183304.575000", "183305.035000", "183305.495000", "183305.955000", "183306.415000", "183306.875000", "183307.335000", "183307.795000", "183308.255000", "183308.715000", "183309.175000", "183309.635000", "183310.095000", "183310.555000", "183311.015000", "183311.475000", "183311.935000", "183312.395000", "183312.855000", "183313.315000", "183313.775000", "183314.235000", "183314.695000", "183315.155000", "183315.615000", "183316.075000", "183316.535000", "183316.995000", "183317.455000", "183317.915000", "183318.375000", "183318.835000", "183319.295000", "183319.755000", "183320.215000", "183320.675000", "183321.135000", "183321.595000", "183322.055000", "183322.515000", "183322.975000", "183323.435000", "183323.895000", "183324.355000", "183324.815000", "183325.275000", "183325.735000", "183326.195000", "183326.655000", "183327.115000", "183327.575000", "183328.035000", "183328.495000", "183328.955000", "183329.415000", "183329.875000", "183330.335000", "183330.795000", "183331.255000", "183331.715000", "183332.175000", "183332.635000", "183333.095000", "183333.555000", "183334.015000", "183334.475000", "183334.935000", "183335.395000", "183335.855000", "183336.315000", "183336.775000", "183337.235000", "183337.695000", "183338.155000", "183338.615000", "183339.075000", "183339.535000", "183339.995000", "183340.455000", "183340.915000", "183341.375000", "183341.835000", "183342.295000", "183342.755000", "183343.215000", "183343.675000", "183344.135000", "183344.595000", "183345.055000", "183345.515000", "183345.975000", "183346.435000", "183346.895000", "183347.355000", "183347.815000", "183348.275000", "183348.735000", "183349.195000", "183349.655000", "183350.115000", "183350.575000", "183351.035000", "183351.495000", "183351.955000", "183352.415000", "183352.875000", "183353.335000", "183353.795000", "183354.255000", "183354.715000", "183355.175000", "183355.635000", "183356.095000", "183356.555000", "183357.015000", "183357.475000", "183357.935000", "183358.395000", "183358.855000", "183359.315000", "183359.775000", "183400.235000", "183400.695000", "183401.155000", "183401.615000", "183402.075000", "183402.535000", "183402.995000", "183403.455000", "183403.915000", "183404.375000", "183404.835000", "183405.295000", "183405.755000", "183406.215000", "183406.675000", "183407.135000", "183407.595000", "183408.055000", "183408.515000", "183408.975000", "183409.435000", "183409.895000", "183410.355000", "183410.815000", "183411.275000", "183411.735000", "183412.195000", "183412.655000", "183413.115000", "183413.575000", "183414.035000", "183414.495000", "183414.955000", "183415.415000", "183415.875000", "183416.335000", "183416.795000", "183417.255000", "183417.715000", "183418.175000", "183418.635000", "183419.095000", "183419.555000", "183420.015000", "183420.475000", "183420.935000", "183421.395000", "183421.855000", "183422.315000", "183422.775000", "183423.235000", "183423.695000", "183424.155000", "183424.615000", "183425.075000", "183425.535000", "183425.995000", "183426.455000", "183426.915000", "183427.375000", "183427.835000", "183428.295000", "183428.755000", "183429.215000", "183429.675000", "183430.135000", "183430.595000", "183431.055000", "183431.515000", "183431.975000", "183432.435000", "183432.895000", "183433.355000", "183433.815000", "183434.275000", "183434.735000", "183435.195000", "183435.655000", "183436.115000", "183436.575000", "183437.035000", "183437.495000", "183437.955000", "183438.415000", "183438.875000", "183439.335000", "183439.795000", "183440.255000", "183440.715000", "183441.175000", "183441.635000", "183442.095000", "183442.555000", "183443.015000", "183443.475000", "183443.935000", "183444.395000", "183444.855000", "183445.315000", "183445.775000", "183446.235000", "183446.695000", "183447.155000", "183447.615000", "183448.075000", "183448.535000", "183448.995000", "183449.455000", "183449.915000", "183450.375000", "183450.835000", "183451.295000", "183451.755000", "183452.215000", "183452.675000", "183453.135000", "183453.595000", "183454.055000", "183454.515000", "183454.975000", "183455.435000", "183455.895000", "183456.355000", "183456.815000", "183457.275000", "183457.735000", "183458.195000", "183458.655000"],
