{
  "AcquisitionMatrixPE": 82,
  "AcquisitionNumber": 1,
  "AcquisitionTime": "18:18:37.505000",
  "BandwidthPerPixelPhaseEncode": 24.888,
  "BaseResolution": 82,
  "BodyPartExamined": "BRAIN",
  "ConsistencyInfo": "N4_VE11E_LATEST_20181129",
  "ConversionSoftware": "dcm2niix",
  "ConversionSoftwareVersion": "v1.0.20201102",
  "DerivedVendorReportedEchoSpacing": 0.00049,
  "DeviceSerialNumber": "66112",
  "DwellTime": 2e-06,
  "EchoTime": 0.0272,
  "EchoTrainLength": 82,
  "EffectiveEchoSpacing": 0.00049,
  "FlipAngle": 44,
  "ImageComments": "Unaliased MB8/PE3",
  "ImageOrientationPatientDICOM": [0.998353, -0.0290406, 0.0494762, 0.0216098, 0.989254, 0.144602],
  "ImageType": [
    "ORIGINAL",
    "PRIMARY",
    "M",
    "MB",
    "ND",
    "NORM",
    "MOSAIC"
],
  "ImagingFrequency": 123.252,
  "InPlanePhaseEncodingDirectionDICOM": "COL",
  "InstitutionAddress": "Maynard 3,Hanover,NH,US,03755",
  "InstitutionName": "Dartmouth College - PBS",
  "InstitutionalDepartmentName": "Department",
  "MRAcquisitionType": "2D",
  "MagneticFieldStrength": 3,
  "Manufacturer": "Siemens",
  "ManufacturersModelName": "Prisma",
  "Modality": "MR",
  "MultibandAccelerationFactor": 8,
  "PartialFourier": 1,
  "PatientPosition": "HFS",
  "PercentPhaseFOV": 100,
  "PercentSampling": 100,
  "PhaseEncodingDirection": "j-",
  "PhaseEncodingSteps": 82,
  "PhaseResolution": 1,
  "PixelBandwidth": 3050,
  "ProcedureStepDescription": "Wager_Wager^1076_spacetop",
  "ProtocolName": "func_run-01_task-narratives_acq-ap-mb8",
  "PulseSequenceDetails": "%CustomerSeq%\\cmrr_mbep2d_bold",
  "ReceiveCoilActiveElements": "HEA;HEP",
  "ReceiveCoilName": "Head_32",
  "ReconMatrixPE": 82,
  "RepetitionTime": 0.46,
  "SAR": 0.0883533,
  "ScanOptions": "FS",
  "ScanningSequence": "EP",
  "SequenceName": "epfid2d1_82",
  "SequenceVariant": "SK\\SS",
  "SeriesDescription": "func_run-01_task-narratives_acq-ap-mb8",
  "SeriesNumber": 8,
  "ShimSetting": [4150, -7739, -7280, 695, -46, -17, -44, 83],
  "SliceThickness": 2.7,
  "SliceTiming": [0, 0.2525, 0.0625, 0.315, 0.125, 0.3775, 0.19, 0, 0.2525, 0.0625, 0.315, 0.125, 0.3775, 0.19, 0, 0.2525, 0.0625, 0.315, 0.125, 0.3775, 0.19, 0, 0.2525, 0.0625, 0.315, 0.125, 0.3775, 0.19, 0, 0.2525, 0.0625, 0.315, 0.125, 0.3775, 0.19, 0, 0.2525, 0.0625, 0.315, 0.125, 0.3775, 0.19, 0, 0.2525, 0.0625, 0.315, 0.125, 0.3775, 0.19, 0, 0.2525, 0.0625, 0.315, 0.125, 0.3775, 0.19],
  "SoftwareVersions": "syngo MR E11",
  "SpacingBetweenSlices": 2.7,
  "StationName": "AWP66112",
  "TaskName": "narratives",
  "TotalReadoutTime": 0.03969,
  "TxRefAmp": 230.207,
  "WipMemBlock": "13ede45d-a918-4692-ac62-2bed75038fab||Sequence: R016 ve11e/master r/434b28f1; Aug  7 2019 18:53:46 by eja",
  "dcmmeta_affine": [
    [-2.6785080432891846, 0.05797749385237694, 0.14348851144313812, 102.58131408691406],
    [0.07791393250226974, 2.6540958881378174, 0.3868960738182068, -112.21342468261719],
    [0.13274110853672028, -0.38795703649520874, 2.668280839920044, -57.98200988769531],
    [0.0, 0.0, 0.0, 1.0]
],
  "dcmmeta_reorient_transform": [
    [0.0, -1.0, 0.0, 81.0],
    [1.0, 0.0, 0.0, 0.0],
    [0.0, 0.0, 1.0, 0.0],
    [0.0, 0.0, 0.0, 1.0]
],
  "dcmmeta_shape": [82, 82, 56, 967],
  "dcmmeta_slice_dim": 2,
  "dcmmeta_version": 0.6,
  "global": {
    "const": {
      "AccessionNumber": "A003975",
      "AcquisitionMatrix": [82, 0, 0, 82],
      "AngioFlag": "N",
      "BitsAllocated": 16,
      "BitsStored": 16,
      "BodyPartExamined": "BRAIN",
      "Columns": 656,
      "EchoNumbers": 1,
      "EchoTime": 27.2,
      "EchoTrainLength": 82,
      "FlipAngle": 44.0,
      "HighBit": 15,
      "ImageOrientationPatient": [0.99835301550827, -0.0290406462114, 0.04947622957709, 0.02160979298544, 0.98925387600043, 0.14460216341833],
      "ImagePositionPatient": [-892.64887017516, -842.13254432418, -238.84689701238],
      "ImageType": [
        "ORIGINAL",
        "PRIMARY",
        "M",
        "MB",
        "ND",
        "NORM",
        "MOSAIC"
],
      "ImagedNucleus": "1H",
      "ImagingFrequency": 123.252201,
      "InPlanePhaseEncodingDirection": "COL",
      "MRAcquisitionType": "2D",
      "MagneticFieldStrength": 3.0,
      "Manufacturer": "SIEMENS",
      "ManufacturerModelName": "Prisma",
      "Modality": "MR",
      "NumberOfAverages": 1.0,
      "NumberOfPhaseEncodingSteps": 82,
      "PercentPhaseFieldOfView": 100.0,
      "PercentSampling": 100.0,
      "PerformedProcedureStepStartTime": "180247.366000",
      "PhotometricInterpretation": "MONOCHROME2",
      "PixelBandwidth": 3050.0,
      "PixelRepresentation": 0,
      "PixelSpacing": [2.6829268932343, 2.6829268932343],
      "ProtocolName": "func_run-01_task-narratives_acq-ap-mb8",
      "RepetitionTime": 460.0,
      "Rows": 656,
      "SAR": 0.08835333739506,
      "SamplesPerPixel": 1,
      "ScanOptions": "FS",
      "ScanningSequence": "EP",
      "SequenceName": "epfid2d1_82",
      "SequenceVariant": [
        "SK",
        "SS"
],
      "SeriesDescription": "func_run-01_task-narratives_acq-ap-mb8",
      "SeriesNumber": 8,
      "SeriesTime": "181853.858000",
      "SliceLocation": -67.928880987665,
      "SliceThickness": 2.7000000476837,
      "SmallestImagePixelValue": 0,
      "SoftwareVersions": "syngo MR E11",
      "SpacingBetweenSlices": 2.7000000517446,
      "SpecificCharacterSet": "ISO_IR 100",
      "StudyID": "1",
      "StudyTime": "180247.311000",
      "TransmitCoilName": "Body",
      "VariableFlipAngleFlag": "N",
      "WindowCenterWidthExplanation": "Algo1"
    },
    "slices": {}
  },
  "time": {
    "samples": {
      "AcquisitionNumber": [1, 2, 3, 4, 5, 6, 7, 8, 9, 10, 11, 12, 13, 14, 15, 16, 17, 18, 19, 20, 21, 22, 23, 24, 25, 26, 27, 28, 29, 30, 31, 32, 33, 34, 35, 36, 37, 38, 39, 40, 41, 42, 43, 44, 45, 46, 47, 48, 49, 50, 51, 52, 53, 54, 55, 56, 57, 58, 59, 60, 61, 62, 63, 64, 65, 66, 67, 68, 69, 70, 71, 72, 73, 74, 75, 76, 77, 78, 79, 80, 81, 82, 83, 84, 85, 86, 87, 88, 89, 90, 91, 92, 93, 94, 95, 96, 97, 98, 99, 100, 101, 102, 103, 104, 105, 106, 107, 108, 109, 110, 111, 112, 113, 114, 115, 116, 117, 118, 119, 120, 121, 122, 123, 124, 125, 126, 127, 128, 129, 130, 131, 132, 133, 134, 135, 136, 137, 138, 139, 140, 141, 142, 143, 144, 145, 146, 147, 148, 149, 150, 151, 152, 153, 154, 155, 156, 157, 158, 159, 160, 161, 162, 163, 164, 165, 166, 167, 168, 169, 170, 171, 172, 173, 174, 175, 176, 177, 178, 179, 180, 181, 182, 183, 184, 185, 186, 187, 188, 189, 190, 191, 192, 193, 194, 195, 196, 197, 198, 199, 200, 201, 202, 203, 204, 205, 206, 207, 208, 209, 210, 211, 212, 213, 214, 215, 216, 217, 218, 219, 220, 221, 222, 223, 224, 225, 226, 227, 228, 229, 230, 231, 232, 233, 234, 235, 236, 237, 238, 239, 240, 241, 242, 243, 244, 245, 246, 247, 248, 249, 250, 251, 252, 253, 254, 255, 256, 257, 258, 259, 260, 261, 262, 263, 264, 265, 266, 267, 268, 269, 270, 271, 272, 273, 274, 275, 276, 277, 278, 279, 280, 281, 282, 283, 284, 285, 286, 287, 288, 289, 290, 291, 292, 293, 294, 295, 296, 297, 298, 299, 300, 301, 302, 303, 304, 305, 306, 307, 308, 309, 310, 311, 312, 313, 314, 315, 316, 317, 318, 319, 320, 321, 322, 323, 324, 325, 326, 327, 328, 329, 330, 331, 332, 333, 334, 335, 336, 337, 338, 339, 340, 341, 342, 343, 344, 345, 346, 347, 348, 349, 350, 351, 352, 353, 354, 355, 356, 357, 358, 359, 360, 361, 362, 363, 364, 365, 366, 367, 368, 369, 370, 371, 372, 373, 374, 375, 376, 377, 378, 379, 380, 381, 382, 383, 384, 385, 386, 387, 388, 389, 390, 391, 392, 393, 394, 395, 396, 397, 398, 399, 400, 401, 402, 403, 404, 405, 406, 407, 408, 409, 410, 411, 412, 413, 414, 415, 416, 417, 418, 419, 420, 421, 422, 423, 424, 425, 426, 427, 428, 429, 430, 431, 432, 433, 434, 435, 436, 437, 438, 439, 440, 441, 442, 443, 444, 445, 446, 447, 448, 449, 450, 451, 452, 453, 454, 455, 456, 457, 458, 459, 460, 461, 462, 463, 464, 465, 466, 467, 468, 469, 470, 471, 472, 473, 474, 475, 476, 477, 478, 479, 480, 481, 482, 483, 484, 485, 486, 487, 488, 489, 490, 491, 492, 493, 494, 495, 496, 497, 498, 499, 500, 501, 502, 503, 504, 505, 506, 507, 508, 509, 510, 511, 512, 513, 514, 515, 516, 517, 518, 519, 520, 521, 522, 523, 524, 525, 526, 527, 528, 529, 530, 531, 532, 533, 534, 535, 536, 537, 538, 539, 540, 541, 542, 543, 544, 545, 546, 547, 548, 549, 550, 551, 552, 553, 554, 555, 556, 557, 558, 559, 560, 561, 562, 563, 564, 565, 566, 567, 568, 569, 570, 571, 572, 573, 574, 575, 576, 577, 578, 579, 580, 581, 582, 583, 584, 585, 586, 587, 588, 589, 590, 591, 592, 593, 594, 595, 596, 597, 598, 599, 600, 601, 602, 603, 604, 605, 606, 607, 608, 609, 610, 611, 612, 613, 614, 615, 616, 617, 618, 619, 620, 621, 622, 623, 624, 625, 626, 627, 628, 629, 630, 631, 632, 633, 634, 635, 636, 637, 638, 639, 640, 641, 642, 643, 644, 645, 646, 647, 648, 649, 650, 651, 652, 653, 654, 655, 656, 657, 658, 659, 660, 661, 662, 663, 664, 665, 666, 667, 668, 669, 670, 671, 672, 673, 674, 675, 676, 677, 678, 679, 680, 681, 682, 683, 684, 685, 686, 687, 688, 689, 690, 691, 692, 693, 694, 695, 696, 697, 698, 699, 700, 701, 702, 703, 704, 705, 706, 707, 708, 709, 710, 711, 712, 713, 714, 715, 716, 717, 718, 719, 720, 721, 722, 723, 724, 725, 726, 727, 728, 729, 730, 731, 732, 733, 734, 735, 736, 737, 738, 739, 740, 741, 742, 743, 744, 745, 746, 747, 748, 749, 750, 751, 752, 753, 754, 755, 756, 757, 758, 759, 760, 761, 762, 763, 764, 765, 766, 767, 768, 769, 770, 771, 772, 773, 774, 775, 776, 777, 778, 779, 780, 781, 782, 783, 784, 785, 786, 787, 788, 789, 790, 791, 792, 793, 794, 795, 796, 797, 798, 799, 800, 801, 802, 803, 804, 805, 806, 807, 808, 809, 810, 811, 812, 813, 814, 815, 816, 817, 818, 819, 820, 821, 822, 823, 824, 825, 826, 827, 828, 829, 830, 831, 832, 833, 834, 835, 836, 837, 838, 839, 840, 841, 842, 843, 844, 845, 846, 847, 848, 849, 850, 851, 852, 853, 854, 855, 856, 857, 858, 859, 860, 861, 862, 863, 864, 865, 866, 867, 868, 869, 870, 871, 872, 873, 874, 875, 876, 877, 878, 879, 880, 881, 882, 883, 884, 885, 886, 887, 888, 889, 890, 891, 892, 893, 894, 895, 896, 897, 898, 899, 900, 901, 902, 903, 904, 905, 906, 907, 908, 909, 910, 911, 912, 913, 914, 915, 916, 917, 918, 919, 920, 921, 922, 923, 924, 925, 926, 927, 928, 929, 930, 931, 932, 933, 934, 935, 936, 937, 938, 939, 940, 941, 942, 943, 944, 945, 946, 947, 948, 949, 950, 951, 952, 953, 954, 955, 956, 957, 958, 959, 960, 961, 962, 963, 964, 965, 966, 967],
      "AcquisitionTime": ["181837.505000", "181837.965000", "181838.425000", "181838.885000", "181839.345000", "181839.805000", "181840.265000", "181840.725000", "181841.185000", "181841.645000", "181842.105000", "181842.565000", "181843.025000", "181843.485000", "181843.945000", "181844.405000", "181844.865000", "181845.325000", "181845.785000", "181846.245000", "181846.705000", "181847.165000", "181847.625000", "181848.085000", "181848.545000", "181849.005000", "181849.465000", "181849.925000", "181850.385000", "181850.845000", "181851.305000", "181851.765000", "181852.225000", "181852.685000", "181853.145000", "181853.605000", "181854.065000", "181854.525000", "181854.985000", "181855.445000", "181855.905000", "181856.365000", "181856.825000", "181857.285000", "181857.745000", "181858.205000", "181858.665000", "181859.125000", "181859.585000", "181900.045000", "181900.505000", "181900.965000", "181901.425000", "181901.885000", "181902.345000", "181902.805000", "181903.265000", "181903.725000", "181904.185000", "181904.645000", "181905.105000", "181905.565000", "181906.025000", "181906.485000", "181906.945000", "181907.405000", "181907.865000", "181908.325000", "181908.785000", "181909.245000", "181909.705000", "181910.165000", "181910.625000", "181911.085000", "181911.545000", "181912.005000", "181912.465000", "181912.925000", "181913.385000", "181913.845000", "181914.305000", "181914.765000", "181915.225000", "181915.685000", "181916.145000", "181916.605000", "181917.065000", "181917.525000", "181917.985000", "181918.445000", "181918.905000", "181919.365000", "181919.825000", "181920.285000", "181920.745000", "181921.205000", "181921.665000", "181922.125000", "181922.585000", "181923.045000", "181923.505000", "181923.965000", "181924.425000", "181924.885000", "181925.345000", "181925.805000", "181926.265000", "181926.725000", "181927.185000", "181927.645000", "181928.105000", "181928.565000", "181929.025000", "181929.485000", "181929.945000", "181930.405000", "181930.865000", "181931.325000", "181931.785000", "181932.245000", "181932.705000", "181933.165000", "181933.625000", "181934.085000", "181934.545000", "181935.005000", "181935.465000", "181935.925000", "181936.385000", "181936.845000", "181937.305000", "181937.765000", "181938.225000", "181938.685000", "181939.145000", "181939.605000", "181940.065000", "181940.525000", "181940.985000", "181941.445000", "181941.905000", "181942.365000", "181942.825000", "181943.285000", "181943.745000", "181944.205000", "181944.665000", "181945.125000", "181945.585000", "181946.045000", "181946.505000", "181946.965000", "181947.425000", "181947.885000", "181948.345000", "181948.805000", "181949.265000", "181949.725000", "181950.185000", "181950.645000", "181951.105000", "181951.565000", "181952.025000", "181952.485000", "181952.945000", "181953.405000", "181953.865000", "181954.325000", "181954.785000", "181955.245000", "181955.705000", "181956.165000", "181956.625000", "181957.085000", "181957.545000", "181958.005000", "181958.465000", "181958.925000", "181959.385000", "181959.845000", "182000.305000", "182000.765000", "182001.225000", "182001.685000", "182002.145000", "182002.605000", "182003.065000", "182003.525000", "182003.985000", "182004.445000", "182004.905000", "182005.365000", "182005.825000", "182006.285000", "182006.745000", "182007.205000", "182007.665000", "182008.125000", "182008.585000", "182009.045000", "182009.505000", "182009.965000", "182010.425000", "182010.885000", "182011.345000", "182011.805000", "182012.265000", "182012.725000", "182013.185000", "182013.645000", "182014.105000", "182014.565000", "182015.025000", "182015.485000", "182015.945000", "182016.405000", "182016.865000", "182017.325000", "182017.785000", "182018.245000", "182018.705000", "182019.165000", "182019.625000", "182020.085000", "182020.545000", "182021.005000", "182021.465000", "182021.925000", "182022.385000", "182022.845000", "182023.305000", "182023.765000", "182024.225000", "182024.685000", "182025.145000", "182025.605000", "182026.065000", "182026.525000", "182026.985000", "182027.445000", "182027.905000", "182028.365000", "182028.825000", "182029.285000", "182029.745000", "182030.205000", "182030.665000", "182031.125000", "182031.585000", "182032.045000", "182032.505000", "182032.965000", "182033.425000", "182033.885000", "182034.345000", "182034.805000", "182035.265000", "182035.725000", "182036.185000", "182036.645000", "182037.105000", "182037.565000", "182038.025000", "182038.485000", "182038.945000", "182039.405000", "182039.865000", "182040.325000", "182040.785000", "182041.245000", "182041.705000", "182042.165000", "182042.625000", "182043.085000", "182043.545000", "182044.005000", "182044.465000", "182044.925000", "182045.385000", "182045.845000", "182046.305000", "182046.765000", "182047.225000", "182047.685000", "182048.145000", "182048.605000", "182049.065000", "182049.525000", "182049.985000", "182050.445000", "182050.905000", "182051.365000", "182051.825000", "182052.285000", "182052.745000", "182053.205000", "182053.665000", "182054.125000", "182054.585000", "182055.045000", "182055.505000", "182055.965000", "182056.425000", "182056.885000", "182057.345000", "182057.805000", "182058.265000", "182058.725000", "182059.185000", "182059.645000", "182100.105000", "182100.565000", "182101.025000", "182101.485000", "182101.945000", "182102.405000", "182102.865000", "182103.325000", "182103.785000", "182104.245000", "182104.705000", "182105.165000", "182105.625000", "182106.085000", "182106.545000", "182107.005000", "182107.465000", "182107.925000", "182108.385000", "182108.845000", "182109.305000", "182109.765000", "182110.225000", "182110.685000", "182111.145000", "182111.605000", "182112.065000", "182112.525000", "182112.985000", "182113.445000", "182113.905000", "182114.365000", "182114.825000", "182115.285000", "182115.745000", "182116.205000", "182116.665000", "182117.125000", "182117.585000", "182118.045000", "182118.505000", "182118.965000", "182119.425000", "182119.885000", "182120.345000", "182120.805000", "182121.265000", "182121.725000", "182122.185000", "182122.645000", "182123.105000", "182123.565000", "182124.025000", "182124.485000", "182124.945000", "182125.405000", "182125.865000", "182126.325000", "182126.785000", "182127.245000", "182127.705000", "182128.165000", "182128.625000", "182129.085000", "182129.545000", "182130.005000", "182130.465000", "182130.925000", "182131.385000", "182131.845000", "182132.305000", "182132.765000", "182133.225000", "182133.685000", "182134.145000", "182134.605000", "182135.065000", "182135.525000", "182135.985000", "182136.445000", "182136.905000", "182137.365000", "182137.825000", "182138.285000", "182138.745000", "182139.205000", "182139.665000", "182140.125000", "182140.585000", "182141.045000", "182141.505000", "182141.965000", "182142.425000", "182142.885000", "182143.345000", "182143.805000", "182144.265000", "182144.725000", "182145.185000", "182145.645000", "182146.105000", "182146.565000", "182147.025000", "182147.485000", "182147.945000", "182148.405000", "182148.865000", "182149.325000", "182149.785000", "182150.245000", "182150.705000", "182151.165000", "182151.625000", "182152.085000", "182152.545000", "182153.005000", "182153.465000", "182153.925000", "182154.385000", "182154.845000", "182155.305000", "182155.765000", "182156.225000", "182156.685000", "182157.145000", "182157.605000", "182158.065000", "182158.525000", "182158.985000", "182159.445000", "182159.905000", "182200.365000", "182200.825000", "182201.285000", "182201.745000", "182202.205000", "182202.665000", "182203.125000", "182203.585000", "182204.045000", "182204.505000", "182204.965000", "182205.425000", "182205.885000", "182206.345000", "182206.805000", "182207.265000", "182207.725000", "182208.185000", "182208.645000", "182209.105000", "182209.565000", "182210.025000", "182210.485000", "182210.945000", "182211.405000", "182211.865000", "182212.325000", "182212.785000", "182213.245000", "182213.705000", "182214.165000", "182214.625000", "182215.085000", "182215.545000", "182216.005000", "182216.465000", "182216.925000", "182217.385000", "182217.845000", "182218.305000", "182218.765000", "182219.225000", "182219.685000", "182220.145000", "182220.605000", "182221.065000", "182221.525000", "182221.985000", "182222.445000", "182222.905000", "182223.365000", "182223.825000", "182224.285000", "182224.745000", "182225.205000", "182225.665000", "182226.125000", "182226.585000", "182227.045000", "182227.505000", "182227.965000", "182228.425000", "182228.885000", "182229.345000", "182229.805000", "182230.265000", "182230.725000", "182231.185000", "182231.645000", "182232.105000", "182232.565000", "182233.025000", "182233.485000", "182233.945000", "182234.405000", "182234.865000", "182235.325000", "182235.785000", "182236.245000", "182236.705000", "182237.165000", "182237.625000", "182238.085000", "182238.545000", "182239.005000", "182239.465000", "182239.925000", "182240.385000", "182240.845000", "182241.305000", "182241.765000", "182242.225000", "182242.685000", "182243.145000", "182243.605000", "182244.065000", "182244.525000", "182244.985000", "182245.445000", "182245.905000", "182246.365000", "182246.825000", "182247.285000", "182247.745000", "182248.205000", "182248.665000", "182249.125000", "182249.585000", "182250.045000", "182250.505000", "182250.965000", "182251.425000", "182251.885000", "182252.345000", "182252.805000", "182253.265000", "182253.725000", "182254.185000", "182254.645000", "182255.105000", "182255.565000", "182256.025000", "182256.485000", "182256.945000", "182257.405000", "182257.865000", "182258.325000", "182258.785000", "182259.245000", "182259.705000", "182300.165000", "182300.625000", "182301.085000", "182301.545000", "182302.005000", "182302.465000", "182302.925000", "182303.385000", "182303.845000", "182304.305000", "182304.765000", "182305.225000", "182305.685000", "182306.145000", "182306.605000", "182307.065000", "182307.525000", "182307.985000", "182308.445000", "182308.905000", "182309.365000", "182309.825000", "182310.285000", "182310.745000", "182311.205000", "182311.665000", "182312.125000", "182312.585000", "182313.045000", "182313.505000", "182313.965000", "182314.425000", "182314.885000", "182315.345000", "182315.805000", "182316.265000", "182316.725000", "182317.185000", "182317.645000", "182318.105000", "182318.565000", "182319.025000", "182319.485000", "182319.945000", "182320.405000", "182320.865000", "182321.325000", "182321.785000", "182322.245000", "182322.705000", "182323.165000", "182323.625000", "182324.085000", "182324.545000", "182325.005000", "182325.465000", "182325.925000", "182326.385000", "182326.845000", "182327.305000", "182327.765000", "182328.225000", "182328.685000", "182329.145000", "182329.605000", "182330.065000", "182330.525000", "182330.985000", "182331.445000", "182331.905000", "182332.365000", "182332.825000", "182333.285000", "182333.745000", "182334.205000", "182334.665000", "182335.125000", "182335.585000", "182336.045000", "182336.505000", "182336.965000", "182337.425000", "182337.885000", "182338.345000", "182338.805000", "182339.265000", "182339.725000", "182340.185000", "182340.645000", "182341.105000", "182341.565000", "182342.025000", "182342.485000", "182342.945000", "182343.405000", "182343.865000", "182344.325000", "182344.785000", "182345.245000", "182345.705000", "182346.165000", "182346.625000", "182347.085000", "182347.545000", "182348.005000", "182348.465000", "182348.925000", "182349.385000", "182349.845000", "182350.305000", "182350.765000", "182351.225000", "182351.685000", "182352.145000", "182352.605000", "182353.065000", "182353.525000", "182353.985000", "182354.445000", "182354.905000", "182355.365000", "182355.825000", "182356.285000", "182356.745000", "182357.205000", "182357.665000", "182358.125000", "182358.585000", "182359.045000", "182359.505000", "182359.965000", "182400.425000", "182400.885000", "182401.345000", "182401.805000", "182402.265000", "182402.725000", "182403.185000", "182403.645000", "182404.105000", "182404.565000", "182405.025000", "182405.485000", "182405.945000", "182406.405000", "182406.865000", "182407.325000", "182407.785000", "182408.245000", "182408.705000", "182409.165000", "182409.625000", "182410.085000", "182410.545000", "182411.005000", "182411.465000", "182411.925000", "182412.385000", "182412.845000", "182413.305000", "182413.765000", "182414.225000", "182414.685000", "182415.145000", "182415.605000", "182416.065000", "182416.525000", "182416.985000", "182417.445000", "182417.905000", "182418.365000", "182418.825000", "182419.285000", "182419.745000", "182420.205000", "182420.665000", "182421.125000", "182421.585000", "182422.045000", "182422.505000", "182422.965000", "182423.425000", "182423.885000", "182424.345000", "182424.805000", "182425.265000", "182425.725000", "182426.185000", "182426.645000", "182427.105000", "182427.565000", "182428.025000", "182428.485000", "182428.945000", "182429.405000", "182429.865000", "182430.325000", "182430.785000", "182431.245000", "182431.705000", "182432.165000", "182432.625000", "182433.085000", "182433.545000", "182434.005000", "182434.465000", "182434.925000", "182435.385000", "182435.845000", "182436.305000", "182436.765000", "182437.225000", "182437.685000", "182438.145000", "182438.605000", "182439.065000", "182439.525000", "182439.985000", "182440.445000", "182440.905000", "182441.365000", "182441.825000", "182442.285000", "182442.745000", "182443.205000", "182443.665000", "182444.125000", "182444.585000", "182445.045000", "182445.505000", "182445.965000", "182446.425000", "182446.885000", "182447.345000", "182447.805000", "182448.265000", "182448.725000", "182449.185000", "182449.645000", "182450.105000", "182450.565000", "182451.025000", "182451.485000", "182451.945000", "182452.405000", "182452.865000", "182453.325000", "182453.785000", "182454.245000", "182454.705000", "182455.165000", "182455.625000", "182456.085000", "182456.545000", "182457.005000", "182457.465000", "182457.925000", "182458.385000", "182458.845000", "182459.305000", "182459.765000", "182500.225000", "182500.685000", "182501.145000", "182501.605000", "182502.065000", "182502.525000", "182502.985000", "182503.445000", "182503.905000", "182504.365000", "182504.825000", "182505.285000", "182505.745000", "182506.205000", "182506.665000", "182507.125000", "182507.585000", "182508.045000", "182508.505000", "182508.965000", "182509.425000", "182509.885000", "182510.345000", "182510.805000", "182511.265000", "182511.725000", "182512.185000", "182512.645000", "182513.105000", "182513.565000", "182514.025000", "182514.485000", "182514.945000", "182515.405000", "182515.865000", "182516.325000", "182516.785000", "182517.245000", "182517.705000", "182518.165000", "182518.625000", "182519.085000", "182519.545000", "182520.005000", "182520.465000", "182520.925000", "182521.385000", "182521.845000", "182522.305000", "182522.765000", "182523.225000", "182523.685000", "182524.145000", "182524.605000", "182525.065000", "182525.525000", "182525.985000", "182526.445000", "182526.905000", "182527.365000", "182527.825000", "182528.285000", "182528.745000", "182529.205000", "182529.665000", "182530.125000", "182530.585000", "182531.045000", "182531.505000", "182531.965000", "182532.425000", "182532.885000", "182533.345000", "182533.805000", "182534.265000", "182534.725000", "182535.185000", "182535.645000", "182536.105000", "182536.565000", "182537.025000", "182537.485000", "182537.945000", "182538.405000", "182538.865000", "182539.325000", "182539.785000", "182540.245000", "182540.705000", "182541.165000", "182541.625000", "182542.085000", "182542.545000", "182543.005000", "182543.465000", "182543.925000", "182544.385000", "182544.845000", "182545.305000", "182545.765000", "182546.225000", "182546.685000", "182547.145000", "182547.605000", "182548.065000", "182548.525000", "182548.985000", "182549.445000", "182549.905000", "182550.365000", "182550.825000", "182551.285000", "182551.745000", "182552.205000", "182552.665000", "182553.125000", "182553.585000", "182554.045000", "182554.505000", "182554.965000", "182555.425000", "182555.885000", "182556.345000", "182556.805000", "182557.265000", "182557.725000", "182558.185000", "182558.645000", "182559.105000", "182559.565000", "182600.025000", "182600.485000", "182600.945000", "182601.405000", "182601.865000"],
