{
  "AcquisitionMatrixPE": 82,
  "AcquisitionNumber": 1,
  "AcquisitionTime": "18:38:23.412500",
  "BandwidthPerPixelPhaseEncode": 24.888,
  "BaseResolution": 82,
  "BodyPartExamined": "BRAIN",
  "ConsistencyInfo": "N4_VE11E_LATEST_20181129",
  "ConversionSoftware": "dcm2niix",
  "ConversionSoftwareVersion": "v1.0.20201102",
  "DerivedVendorReportedEchoSpacing": 0.00049,
  "DeviceSerialNumber": "66112",
  "DwellTime": 2e-06,
  "EchoTime": 0.0272,
  "EchoTrainLength": 82,
  "EffectiveEchoSpacing": 0.00049,
  "FlipAngle": 44,
  "ImageComments": "Unaliased MB8/PE3",
  "ImageOrientationPatientDICOM": [0.997541, 0.0696281, -0.0079623, -0.06958, 0.997557, 0.00617182],
  "ImageType": [
    "ORIGINAL",
    "PRIMARY",
    "M",
    "MB",
    "ND",
    "NORM",
    "MOSAIC"
],
  "ImagingFrequency": 123.252,
  "InPlanePhaseEncodingDirectionDICOM": "COL",
  "InstitutionAddress": "Maynard 3,Hanover,NH,US,03755",
  "InstitutionName": "Dartmouth College - PBS",
  "InstitutionalDepartmentName": "Department",
  "MRAcquisitionType": "2D",
  "MagneticFieldStrength": 3,
  "Manufacturer": "Siemens",
  "ManufacturersModelName": "Prisma",
  "Modality": "MR",
  "MultibandAccelerationFactor": 8,
  "PartialFourier": 1,
  "PatientPosition": "HFS",
  "PercentPhaseFOV": 100,
  "PercentSampling": 100,
  "PhaseEncodingDirection": "j-",
  "PhaseEncodingSteps": 82,
  "PhaseResolution": 1,
  "PixelBandwidth": 3050,
  "ProcedureStepDescription": "Wager_Wager^1076_spacetop",
  "ProtocolName": "func_run-01_task-alignvideo_acq-ap-mb8",
  "PulseSequenceDetails": "%CustomerSeq%\\cmrr_mbep2d_bold",
  "ReceiveCoilActiveElements": "HEA;HEP",
  "ReceiveCoilName": "Head_32",
  "ReconMatrixPE": 82,
  "RepetitionTime": 0.46,
  "SAR": 0.0924485,
  "ScanOptions": "FS",
  "ScanningSequence": "EP",
  "SequenceName": "epfid2d1_82",
  "SequenceVariant": "SK\\SS",
  "SeriesDescription": "func_run-01_task-alignvideo_acq-ap-mb8",
  "SeriesNumber": 28,
  "ShimSetting": [4160, -7778, -7202, 827, -33, -257, 68, 62],
  "SliceThickness": 2.7,
  "SliceTiming": [0, 0.2525, 0.065, 0.315, 0.1275, 0.3775, 0.19, 0, 0.2525, 0.065, 0.315, 0.1275, 0.3775, 0.19, 0, 0.2525, 0.065, 0.315, 0.1275, 0.3775, 0.19, 0, 0.2525, 0.065, 0.315, 0.1275, 0.3775, 0.19, 0, 0.2525, 0.065, 0.315, 0.1275, 0.3775, 0.19, 0, 0.2525, 0.065, 0.315, 0.1275, 0.3775, 0.19, 0, 0.2525, 0.065, 0.315, 0.1275, 0.3775, 0.19, 0, 0.2525, 0.065, 0.315, 0.1275, 0.3775, 0.19],
  "SoftwareVersions": "syngo MR E11",
  "SpacingBetweenSlices": 2.7,
  "StationName": "AWP66112",
  "TaskName": "alignvideo",
  "TotalReadoutTime": 0.03969,
  "TxRefAmp": 229.28,
  "WipMemBlock": "1e050c95-93f0-44e6-b642-d1a32477356d||Sequence: R016 ve11e/master r/434b28f1; Aug  7 2019 18:53:46 by eja",
  "dcmmeta_affine": [
    [-2.676330327987671, -0.1866779625415802, -0.02260597236454487, 118.63753509521484],
    [-0.18680712580680847, 2.676373243331909, 0.015127109363675117, -96.19772338867188],
    [-0.021362265571951866, -0.016558554023504257, 2.6998629570007324, -50.15904235839844],
    [0.0, 0.0, 0.0, 1.0]
],
  "dcmmeta_reorient_transform": [
    [0.0, -1.0, 0.0, 81.0],
    [1.0, 0.0, 0.0, 0.0],
    [0.0, 0.0, 1.0, 0.0],
    [0.0, 0.0, 0.0, 1.0]
],
  "dcmmeta_shape": [82, 82, 56, 839],
  "dcmmeta_slice_dim": 2,
  "dcmmeta_version": 0.6,
  "global": {
    "const": {
      "AccessionNumber": "A003917",
      "AcquisitionMatrix": [82, 0, 0, 82],
      "AngioFlag": "N",
      "BitsAllocated": 16,
      "BitsStored": 16,
      "BodyPartExamined": "BRAIN",
      "Columns": 656,
      "EchoNumbers": 1,
      "EchoTime": 27.2,
      "EchoTrainLength": 82,
      "FlipAngle": 44.0,
      "HighBit": 15,
      "ImageOrientationPatient": [0.99754124147259, 0.06962810749868, -0.0079622991325, -0.069579964304, 0.99755728514694, 0.00617182450521],
      "ImagePositionPatient": [-818.04682045775, -942.32128541317, -50.121621212501],
      "ImageType": [
        "ORIGINAL",
        "PRIMARY",
        "M",
        "MB",
        "ND",
        "NORM",
        "MOSAIC"
],
      "ImagedNucleus": "1H",
      "ImagingFrequency": 123.2522,
      "InPlanePhaseEncodingDirection": "COL",
      "MRAcquisitionType": "2D",
      "MagneticFieldStrength": 3.0,
      "Manufacturer": "SIEMENS",
      "ManufacturerModelName": "Prisma",
      "Modality": "MR",
      "NumberOfAverages": 1.0,
      "NumberOfPhaseEncodingSteps": 82,
      "PercentPhaseFieldOfView": 100.0,
      "PercentSampling": 100.0,
      "PerformedProcedureStepStartTime": "171756.406000",
      "PhotometricInterpretation": "MONOCHROME2",
      "PixelBandwidth": 3050.0,
      "PixelRepresentation": 0,
      "PixelSpacing": [2.6829268932343, 2.6829268932343],
      "ProtocolName": "func_run-01_task-alignvideo_acq-ap-mb8",
      "RepetitionTime": 460.0,
      "Rows": 656,
      "SAR": 0.09244852643485,
      "SamplesPerPixel": 1,
      "ScanOptions": "FS",
      "ScanningSequence": "EP",
      "SequenceName": "epfid2d1_82",
      "SequenceVariant": [
        "SK",
        "SS"
],
      "SeriesDescription": "func_run-01_task-alignvideo_acq-ap-mb8",
      "SeriesNumber": 28,
      "SeriesTime": "183833.661000",
      "SliceLocation": -51.688761471729,
      "SliceThickness": 2.7000000476837,
      "SmallestImagePixelValue": 0,
      "SoftwareVersions": "syngo MR E11",
      "SpacingBetweenSlices": 2.7000000321606,
      "SpecificCharacterSet": "ISO_IR 100",
      "StudyID": "1",
      "StudyTime": "171756.340000",
      "TransmitCoilName": "Body",
      "VariableFlipAngleFlag": "N",
      "WindowCenterWidthExplanation": "Algo1"
    },
    "slices": {}
  },
  "time": {
    "samples": {
      "AcquisitionNumber": [1, 2, 3, 4, 5, 6, 7, 8, 9, 10, 11, 12, 13, 14, 15, 16, 17, 18, 19, 20, 21, 22, 23, 24, 25, 26, 27, 28, 29, 30, 31, 32, 33, 34, 35, 36, 37, 38, 39, 40, 41, 42, 43, 44, 45, 46, 47, 48, 49, 50, 51, 52, 53, 54, 55, 56, 57, 58, 59, 60, 61, 62, 63, 64, 65, 66, 67, 68, 69, 70, 71, 72, 73, 74, 75, 76, 77, 78, 79, 80, 81, 82, 83, 84, 85, 86, 87, 88, 89, 90, 91, 92, 93, 94, 95, 96, 97, 98, 99, 100, 101, 102, 103, 104, 105, 106, 107, 108, 109, 110, 111, 112, 113, 114, 115, 116, 117, 118, 119, 120, 121, 122, 123, 124, 125, 126, 127, 128, 129, 130, 131, 132, 133, 134, 135, 136, 137, 138, 139, 140, 141, 142, 143, 144, 145, 146, 147, 148, 149, 150, 151, 152, 153, 154, 155, 156, 157, 158, 159, 160, 161, 162, 163, 164, 165, 166, 167, 168, 169, 170, 171, 172, 173, 174, 175, 176, 177, 178, 179, 180, 181, 182, 183, 184, 185, 186, 187, 188, 189, 190, 191, 192, 193, 194, 195, 196, 197, 198, 199, 200, 201, 202, 203, 204, 205, 206, 207, 208, 209, 210, 211, 212, 213, 214, 215, 216, 217, 218, 219, 220, 221, 222, 223, 224, 225, 226, 227, 228, 229, 230, 231, 232, 233, 234, 235, 236, 237, 238, 239, 240, 241, 242, 243, 244, 245, 246, 247, 248, 249, 250, 251, 252, 253, 254, 255, 256, 257, 258, 259, 260, 261, 262, 263, 264, 265, 266, 267, 268, 269, 270, 271, 272, 273, 274, 275, 276, 277, 278, 279, 280, 281, 282, 283, 284, 285, 286, 287, 288, 289, 290, 291, 292, 293, 294, 295, 296, 297, 298, 299, 300, 301, 302, 303, 304, 305, 306, 307, 308, 309, 310, 311, 312, 313, 314, 315, 316, 317, 318, 319, 320, 321, 322, 323, 324, 325, 326, 327, 328, 329, 330, 331, 332, 333, 334, 335, 336, 337, 338, 339, 340, 341, 342, 343, 344, 345, 346, 347, 348, 349, 350, 351, 352, 353, 354, 355, 356, 357, 358, 359, 360, 361, 362, 363, 364, 365, 366, 367, 368, 369, 370, 371, 372, 373, 374, 375, 376, 377, 378, 379, 380, 381, 382, 383, 384, 385, 386, 387, 388, 389, 390, 391, 392, 393, 394, 395, 396, 397, 398, 399, 400, 401, 402, 403, 404, 405, 406, 407, 408, 409, 410, 411, 412, 413, 414, 415, 416, 417, 418, 419, 420, 421, 422, 423, 424, 425, 426, 427, 428, 429, 430, 431, 432, 433, 434, 435, 436, 437, 438, 439, 440, 441, 442, 443, 444, 445, 446, 447, 448, 449, 450, 451, 452, 453, 454, 455, 456, 457, 458, 459, 460, 461, 462, 463, 464, 465, 466, 467, 468, 469, 470, 471, 472, 473, 474, 475, 476, 477, 478, 479, 480, 481, 482, 483, 484, 485, 486, 487, 488, 489, 490, 491, 492, 493, 494, 495, 496, 497, 498, 499, 500, 501, 502, 503, 504, 505, 506, 507, 508, 509, 510, 511, 512, 513, 514, 515, 516, 517, 518, 519, 520, 521, 522, 523, 524, 525, 526, 527, 528, 529, 530, 531, 532, 533, 534, 535, 536, 537, 538, 539, 540, 541, 542, 543, 544, 545, 546, 547, 548, 549, 550, 551, 552, 553, 554, 555, 556, 557, 558, 559, 560, 561, 562, 563, 564, 565, 566, 567, 568, 569, 570, 571, 572, 573, 574, 575, 576, 577, 578, 579, 580, 581, 582, 583, 584, 585, 586, 587, 588, 589, 590, 591, 592, 593, 594, 595, 596, 597, 598, 599, 600, 601, 602, 603, 604, 605, 606, 607, 608, 609, 610, 611, 612, 613, 614, 615, 616, 617, 618, 619, 620, 621, 622, 623, 624, 625, 626, 627, 628, 629, 630, 631, 632, 633, 634, 635, 636, 637, 638, 639, 640, 641, 642, 643, 644, 645, 646, 647, 648, 649, 650, 651, 652, 653, 654, 655, 656, 657, 658, 659, 660, 661, 662, 663, 664, 665, 666, 667, 668, 669, 670, 671, 672, 673, 674, 675, 676, 677, 678, 679, 680, 681, 682, 683, 684, 685, 686, 687, 688, 689, 690, 691, 692, 693, 694, 695, 696, 697, 698, 699, 700, 701, 702, 703, 704, 705, 706, 707, 708, 709, 710, 711, 712, 713, 714, 715, 716, 717, 718, 719, 720, 721, 722, 723, 724, 725, 726, 727, 728, 729, 730, 731, 732, 733, 734, 735, 736, 737, 738, 739, 740, 741, 742, 743, 744, 745, 746, 747, 748, 749, 750, 751, 752, 753, 754, 755, 756, 757, 758, 759, 760, 761, 762, 763, 764, 765, 766, 767, 768, 769, 770, 771, 772, 773, 774, 775, 776, 777, 778, 779, 780, 781, 782, 783, 784, 785, 786, 787, 788, 789, 790, 791, 792, 793, 794, 795, 796, 797, 798, 799, 800, 801, 802, 803, 804, 805, 806, 807, 808, 809, 810, 811, 812, 813, 814, 815, 816, 817, 818, 819, 820, 821, 822, 823, 824, 825, 826, 827, 828, 829, 830, 831, 832, 833, 834, 835, 836, 837, 838, 839],
      "AcquisitionTime": ["183823.412500", "183823.872500", "183824.332500", "183824.792500", "183825.252500", "183825.712500", "183826.172500", "183826.632500", "183827.092500", "183827.552500", "183828.012500", "183828.472500", "183828.932500", "183829.392500", "183829.852500", "183830.312500", "183830.772500", "183831.232500", "183831.692500", "183832.152500", "183832.612500", "183833.072500", "183833.532500", "183833.992500", "183834.452500", "183834.912500", "183835.372500", "183835.832500", "183836.292500", "183836.752500", "183837.212500", "183837.672500", "183838.132500", "183838.592500", "183839.052500", "183839.512500", "183839.972500", "183840.432500", "183840.892500", "183841.352500", "183841.812500", "183842.272500", "183842.732500", "183843.192500", "183843.652500", "183844.112500", "183844.572500", "183845.032500", "183845.492500", "183845.952500", "183846.412500", "183846.872500", "183847.332500", "183847.792500", "183848.252500", "183848.712500", "183849.172500", "183849.632500", "183850.092500", "183850.552500", "183851.012500", "183851.472500", "183851.932500", "183852.392500", "183852.852500", "183853.312500", "183853.772500", "183854.232500", "183854.692500", "183855.152500", "183855.612500", "183856.072500", "183856.532500", "183856.992500", "183857.452500", "183857.912500", "183858.372500", "183858.832500", "183859.292500", "183859.752500", "183900.212500", "183900.672500", "183901.132500", "183901.592500", "183902.052500", "183902.512500", "183902.972500", "183903.432500", "183903.892500", "183904.352500", "183904.812500", "183905.272500", "183905.732500", "183906.192500", "183906.652500", "183907.112500", "183907.572500", "183908.032500", "183908.492500", "183908.952500", "183909.412500", "183909.872500", "183910.332500", "183910.792500", "183911.252500", "183911.712500", "183912.172500", "183912.632500", "183913.092500", "183913.552500", "183914.012500", "183914.472500", "183914.932500", "183915.392500", "183915.852500", "183916.312500", "183916.772500", "183917.232500", "183917.692500", "183918.152500", "183918.612500", "183919.072500", "183919.532500", "183919.992500", "183920.452500", "183920.912500", "183921.372500", "183921.832500", "183922.292500", "183922.752500", "183923.212500", "183923.672500", "183924.132500", "183924.592500", "183925.052500", "183925.512500", "183925.972500", "183926.432500", "183926.892500", "183927.352500", "183927.812500", "183928.272500", "183928.732500", "183929.192500", "183929.652500", "183930.112500", "183930.572500", "183931.032500", "183931.492500", "183931.952500", "183932.412500", "183932.872500", "183933.332500", "183933.792500", "183934.252500", "183934.712500", "183935.172500", "183935.632500", "183936.092500", "183936.552500", "183937.012500", "183937.472500", "183937.932500", "183938.392500", "183938.852500", "183939.312500", "183939.772500", "183940.232500", "183940.692500", "183941.152500", "183941.612500", "183942.072500", "183942.532500", "183942.992500", "183943.452500", "183943.912500", "183944.372500", "183944.832500", "183945.292500", "183945.752500", "183946.212500", "183946.672500", "183947.132500", "183947.592500", "183948.052500", "183948.512500", "183948.972500", "183949.432500", "183949.892500", "183950.352500", "183950.812500", "183951.272500", "183951.732500", "183952.192500", "183952.652500", "183953.112500", "183953.572500", "183954.032500", "183954.492500", "183954.952500", "183955.412500", "183955.872500", "183956.332500", "183956.792500", "183957.252500", "183957.712500", "183958.172500", "183958.632500", "183959.092500", "183959.552500", "184000.012500", "184000.472500", "184000.932500", "184001.392500", "184001.852500", "184002.312500", "184002.772500", "184003.232500", "184003.692500", "184004.152500", "184004.612500", "184005.072500", "184005.532500", "184005.992500", "184006.452500", "184006.912500", "184007.372500", "184007.832500", "184008.292500", "184008.752500", "184009.212500", "184009.672500", "184010.132500", "184010.592500", "184011.052500", "184011.512500", "184011.972500", "184012.432500", "184012.892500", "184013.352500", "184013.812500", "184014.272500", "184014.732500", "184015.192500", "184015.652500", "184016.112500", "184016.572500", "184017.032500", "184017.492500", "184017.952500", "184018.412500", "184018.872500", "184019.332500", "184019.792500", "184020.252500", "184020.712500", "184021.172500", "184021.632500", "184022.092500", "184022.552500", "184023.012500", "184023.472500", "184023.932500", "184024.392500", "184024.852500", "184025.312500", "184025.772500", "184026.232500", "184026.692500", "184027.152500", "184027.612500", "184028.072500", "184028.532500", "184028.992500", "184029.452500", "184029.912500", "184030.372500", "184030.832500", "184031.292500", "184031.752500", "184032.212500", "184032.672500", "184033.132500", "184033.592500", "184034.052500", "184034.512500", "184034.972500", "184035.432500", "184035.892500", "184036.352500", "184036.812500", "184037.272500", "184037.732500", "184038.192500", "184038.652500", "184039.112500", "184039.572500", "184040.032500", "184040.492500", "184040.952500", "184041.412500", "184041.872500", "184042.332500", "184042.792500", "184043.252500", "184043.712500", "184044.172500", "184044.632500", "184045.092500", "184045.552500", "184046.012500", "184046.472500", "184046.932500", "184047.392500", "184047.852500", "184048.312500", "184048.772500", "184049.232500", "184049.692500", "184050.152500", "184050.612500", "184051.072500", "184051.532500", "184051.992500", "184052.452500", "184052.912500", "184053.372500", "184053.832500", "184054.292500", "184054.752500", "184055.212500", "184055.672500", "184056.132500", "184056.592500", "184057.052500", "184057.512500", "184057.972500", "184058.432500", "184058.892500", "184059.352500", "184059.812500", "184100.272500", "184100.732500", "184101.192500", "184101.652500", "184102.112500", "184102.572500", "184103.032500", "184103.492500", "184103.952500", "184104.412500", "184104.872500", "184105.332500", "184105.792500", "184106.252500", "184106.712500", "184107.172500", "184107.632500", "184108.092500", "184108.552500", "184109.012500", "184109.472500", "184109.932500", "184110.392500", "184110.852500", "184111.312500", "184111.772500", "184112.232500", "184112.692500", "184113.152500", "184113.612500", "184114.072500", "184114.532500", "184114.992500", "184115.452500", "184115.912500", "184116.372500", "184116.832500", "184117.292500", "184117.752500", "184118.212500", "184118.672500", "184119.132500", "184119.592500", "184120.052500", "184120.512500", "184120.972500", "184121.432500", "184121.892500", "184122.352500", "184122.812500", "184123.272500", "184123.732500", "184124.192500", "184124.652500", "184125.112500", "184125.572500", "184126.032500", "184126.492500", "184126.952500", "184127.412500", "184127.872500", "184128.332500", "184128.792500", "184129.252500", "184129.712500", "184130.172500", "184130.632500", "184131.092500", "184131.552500", "184132.012500", "184132.472500", "184132.932500", "184133.392500", "184133.852500", "184134.312500", "184134.772500", "184135.232500", "184135.692500", "184136.152500", "184136.612500", "184137.072500", "184137.532500", "184137.992500", "184138.452500", "184138.912500", "184139.372500", "184139.832500", "184140.292500", "184140.752500", "184141.212500", "184141.672500", "184142.132500", "184142.592500", "184143.052500", "184143.512500", "184143.972500", "184144.432500", "184144.892500", "184145.352500", "184145.812500", "184146.272500", "184146.732500", "184147.192500", "184147.652500", "184148.112500", "184148.572500", "184149.032500", "184149.492500", "184149.952500", "184150.412500", "184150.872500", "184151.332500", "184151.792500", "184152.252500", "184152.712500", "184153.172500", "184153.632500", "184154.092500", "184154.552500", "184155.012500", "184155.472500", "184155.932500", "184156.392500", "184156.852500", "184157.312500", "184157.772500", "184158.232500", "184158.692500", "184159.152500", "184159.612500", "184200.072500", "184200.532500", "184200.992500", "184201.452500", "184201.912500", "184202.372500", "184202.832500", "184203.292500", "184203.752500", "184204.212500", "184204.672500", "184205.132500", "184205.592500", "184206.052500", "184206.512500", "184206.972500", "184207.432500", "184207.892500", "184208.352500", "184208.812500", "184209.272500", "184209.732500", "184210.192500", "184210.652500", "184211.112500", "184211.572500", "184212.032500", "184212.492500", "184212.952500", "184213.412500", "184213.872500", "184214.332500", "184214.792500", "184215.252500", "184215.712500", "184216.172500", "184216.632500", "184217.092500", "184217.552500", "184218.012500", "184218.472500", "184218.932500", "184219.392500", "184219.852500", "184220.312500", "184220.772500", "184221.232500", "184221.692500", "184222.152500", "184222.612500", "184223.072500", "184223.532500", "184223.992500", "184224.452500", "184224.912500", "184225.372500", "184225.832500", "184226.292500", "184226.752500", "184227.212500", "184227.672500", "184228.132500", "184228.592500", "184229.052500", "184229.512500", "184229.972500", "184230.432500", "184230.892500", "184231.352500", "184231.812500", "184232.272500", "184232.732500", "184233.192500", "184233.652500", "184234.112500", "184234.572500", "184235.032500", "184235.492500", "184235.952500", "184236.412500", "184236.872500", "184237.332500", "184237.792500", "184238.252500", "184238.712500", "184239.172500", "184239.632500", "184240.092500", "184240.552500", "184241.012500", "184241.472500", "184241.932500", "184242.392500", "184242.852500", "184243.312500", "184243.772500", "184244.232500", "184244.692500", "184245.152500", "184245.612500", "184246.072500", "184246.532500", "184246.992500", "184247.452500", "184247.912500", "184248.372500", "184248.832500", "184249.292500", "184249.752500", "184250.212500", "184250.672500", "184251.132500", "184251.592500", "184252.052500", "184252.512500", "184252.972500", "184253.432500", "184253.892500", "184254.352500", "184254.812500", "184255.272500", "184255.732500", "184256.192500", "184256.652500", "184257.112500", "184257.572500", "184258.032500", "184258.492500", "184258.952500", "184259.412500", "184259.872500", "184300.332500", "184300.792500", "184301.252500", "184301.712500", "184302.172500", "184302.632500", "184303.092500", "184303.552500", "184304.012500", "184304.472500", "184304.932500", "184305.392500", "184305.852500", "184306.312500", "184306.772500", "184307.232500", "184307.692500", "184308.152500", "184308.612500", "184309.072500", "184309.532500", "184309.992500", "184310.452500", "184310.912500", "184311.372500", "184311.832500", "184312.292500", "184312.752500", "184313.212500", "184313.672500", "184314.132500", "184314.592500", "184315.052500", "184315.512500", "184315.972500", "184316.432500", "184316.892500", "184317.352500", "184317.812500", "184318.272500", "184318.732500", "184319.192500", "184319.652500", "184320.112500", "184320.572500", "184321.032500", "184321.492500", "184321.952500", "184322.412500", "184322.872500", "184323.332500", "184323.792500", "184324.252500", "184324.712500", "184325.172500", "184325.632500", "184326.092500", "184326.552500", "184327.012500", "184327.472500", "184327.932500", "184328.392500", "184328.852500", "184329.312500", "184329.772500", "184330.232500", "184330.692500", "184331.152500", "184331.612500", "184332.072500", "184332.532500", "184332.992500", "184333.452500", "184333.912500", "184334.372500", "184334.832500", "184335.292500", "184335.752500", "184336.212500", "184336.672500", "184337.132500", "184337.592500", "184338.052500", "184338.512500", "184338.972500", "184339.432500", "184339.892500", "184340.352500", "184340.812500", "184341.272500", "184341.732500", "184342.192500", "184342.652500", "184343.112500", "184343.572500", "184344.032500", "184344.492500", "184344.952500", "184345.412500", "184345.872500", "184346.332500", "184346.792500", "184347.252500", "184347.712500", "184348.172500", "184348.632500", "184349.092500", "184349.552500", "184350.012500", "184350.472500", "184350.932500", "184351.392500", "184351.852500", "184352.312500", "184352.772500", "184353.232500", "184353.692500", "184354.152500", "184354.612500", "184355.072500", "184355.532500", "184355.992500", "184356.452500", "184356.912500", "184357.372500", "184357.832500", "184358.292500", "184358.752500", "184359.212500", "184359.672500", "184400.132500", "184400.592500", "184401.052500", "184401.512500", "184401.972500", "184402.432500", "184402.892500", "184403.352500", "184403.812500", "184404.272500", "184404.732500", "184405.192500", "184405.652500", "184406.112500", "184406.572500", "184407.032500", "184407.492500", "184407.952500", "184408.412500", "184408.872500", "184409.332500", "184409.792500", "184410.252500", "184410.712500", "184411.172500", "184411.632500", "184412.092500", "184412.552500", "184413.012500", "184413.472500", "184413.932500", "184414.392500", "184414.852500", "184415.312500", "184415.772500", "184416.232500", "184416.692500", "184417.152500", "184417.612500", "184418.072500", "184418.532500", "184418.992500", "184419.452500", "184419.912500", "184420.372500", "184420.832500", "184421.292500", "184421.752500", "184422.212500", "184422.672500", "184423.132500", "184423.592500", "184424.052500", "184424.512500", "184424.972500", "184425.432500", "184425.892500", "184426.352500", "184426.812500", "184427.272500", "184427.732500", "184428.192500", "184428.652500", "184429.112500", "184429.572500", "184430.032500", "184430.492500", "184430.952500", "184431.412500", "184431.872500", "184432.332500", "184432.792500", "184433.252500", "184433.712500", "184434.172500", "184434.632500", "184435.092500", "184435.552500", "184436.012500", "184436.472500", "184436.932500", "184437.392500", "184437.852500", "184438.312500", "184438.772500", "184439.232500", "184439.692500", "184440.152500", "184440.612500", "184441.072500", "184441.532500", "184441.992500", "184442.452500", "184442.912500", "184443.372500", "184443.832500", "184444.292500", "184444.752500", "184445.212500", "184445.672500", "184446.132500", "184446.592500", "184447.052500", "184447.512500", "184447.972500", "184448.432500", "184448.892500"],
